Time;EMG1;EMG2;EMG3;EMG4;EMG1_F;EMG2_F;EMG3_F;EMG4_F;Note_R;Note_V;;Level 1;Joueur;Score;Notes hit;% Reussite R;Offset EMG1;Onset EMG1;% Reussite V;Offset EMG2;Onset EMG2
37;-21,72;17,32;-21,72;17,32;10,29;5,06;10,29;5,06;0;0;;;1;34900;157;92,62295;-30,65549;50,39808;88;10,1819;73,48415
61;-4,39;15,69;-4,39;15,69;10,34;5,08;10,34;5,08;0;0;;;2;35700;157;92,62295;-30,65549;50,39645;88;10,1819;73,48415
83;-25,25;20,01;-25,25;20,01;9,66;5,01;9,66;5,01;0;0;
104;-10,13;5,16;-10,13;5,16;10,11;5,2;10,11;5,2;0;0;
121;-24,68;19,71;-24,68;19,71;9,19;5,12;9,19;5,12;0;0;
139;-14,51;6,05;-14,51;6,05;10,45;5,17;10,45;5,17;0;0;
158;-16,22;15,31;-16,22;15,31;10,19;5,21;10,19;5,21;0;0;
174;-37,55;-0,46;-37,55;-0,46;10,01;5,37;10,01;5,37;0;0;
198;-21,33;16,22;-21,33;16,22;9,9;5,84;9,9;5,84;0;0;
214;-40,01;13,13;-40,01;13,13;10,16;5,26;10,16;5,26;0;0;
232;-18,36;16,53;-18,36;16,53;10,12;5,81;10,12;5,81;0;0;
250;-40,95;10,32;-40,95;10,32;9,88;5,61;9,88;5,61;0;0;
265;-40,95;10,32;-40,95;10,32;9,35;5,75;9,35;5,75;0;0;
283;-17,92;12,07;-17,92;12,07;9,51;5,64;9,51;5,64;0;0;
300;-43,58;15,07;-43,58;15,07;9,25;5,52;9,25;5,52;0;0;
317;-13,73;12,5;-13,73;12,5;9,39;5,44;9,39;5,44;0;0;
336;-37,78;7,75;-37,78;7,75;9,3;5,1;9,3;5,1;0;0;
352;-28,67;4,3;-28,67;4,3;8,83;4,95;8,83;4,95;0;0;
368;-28,67;4,3;-28,67;4,3;9,27;4,26;9,27;4,26;0;0;
383;-31,79;4,68;-31,79;4,68;9,53;4,6;9,53;4,6;0;0;
400;-16,19;11,17;-16,19;11,17;10,01;3,94;10,01;3,94;0;0;
418;-33,88;8,13;-33,88;8,13;9,49;4,27;9,49;4,27;0;0;
435;-25,62;5,86;-25,62;5,86;10,24;4,03;10,24;4,03;0;0;
454;-34,11;12,04;-34,11;12,04;10,4;4,28;10,4;4,28;0;0;
474;-30,94;4,11;-30,94;4,11;10,33;4,66;10,33;4,66;0;0;
492;-27,27;12,44;-27,27;12,44;9,76;4,76;9,76;4,76;0;0;
508;-27,27;12,44;-27,27;12,44;9,3;5,06;9,3;5,06;0;0;
525;-12,93;14,83;-12,93;14,83;9,58;5,62;9,58;5,62;0;0;
542;-24,58;11,46;-24,58;11,46;9,03;6,2;9,03;6,2;0;0;
561;-6,17;7,87;-6,17;7,87;9,68;5,66;9,68;5,66;0;0;
577;-28,72;17,92;-28,72;17,92;9,38;6,02;9,38;6,02;0;0;
596;-43,52;7,75;-43,52;7,75;9,72;6;9,72;6;0;0;
615;-25,92;11,68;-25,92;11,68;9,86;5,68;9,86;5,68;0;0;
633;-39,01;0,57;-39,01;0,57;10,17;5,14;10,17;5,14;0;0;
649;-16,81;2,86;-16,81;2,86;10,41;5,25;10,41;5,25;0;0;
667;-16,81;2,86;-16,81;2,86;10,07;4,89;10,07;4,89;0;0;
684;-17,18;12,37;-17,18;12,37;10,7;5,19;10,7;5,19;0;0;
701;-17,62;23,17;-17,62;23,17;10,41;5,56;10,41;5,56;0;0;
718;-15,92;4,38;-15,92;4,38;10,7;5,92;10,7;5,92;0;0;
734;-15,83;22,09;-15,83;22,09;10,9;6,15;10,9;6,15;0;0;
753;-33,96;11,45;-33,96;11,45;10,7;6,06;10,7;6,06;0;0;
772;-17,43;10,9;-17,43;10,9;9,8;6,11;9,8;6,11;0;0;
787;-17,43;10,9;-17,43;10,9;8,95;5,82;8,95;5,82;0;0;
805;-17,72;4,92;-17,72;4,92;9,86;5,58;9,86;5,58;0;0;
823;-17,41;20,32;-17,41;20,32;9,15;5,57;9,15;5,57;0;0;
839;-25,82;2,26;-25,82;2,26;8,76;5,83;8,76;5,83;0;0;
854;-25,82;2,26;-25,82;2,26;9,48;5,5;9,48;5,5;0;0;
871;-38,54;17,95;-38,54;17,95;9,92;5,01;9,92;5,01;0;0;
890;-29,4;1,69;-29,4;1,69;10,16;5,01;10,16;5,01;0;0;
909;-10,77;8,95;-10,77;8,95;9,6;5,11;9,6;5,11;0;0;
925;-10,77;8,95;-10,77;8,95;9,81;4,52;9,81;4,52;0;0;
944;-14,88;14,08;-14,88;14,08;10,09;4,56;10,09;4,56;0;0;
962;-33,45;6,54;-33,45;6,54;9,26;4,54;9,26;4,54;0;0;
977;-15,09;14,16;-15,09;14,16;10,05;4,83;10,05;4,83;0;0;
994;-27,64;14,85;-27,64;14,85;9,38;5,05;9,38;5,05;0;0;
1011;-39,64;4,22;-39,64;4,22;9,81;5;9,81;5;0;0;
1030;-11,27;13,63;-11,27;13,63;9,94;5,13;9,94;5,13;0;0;
1047;-11,27;13,63;-11,27;13,63;10,05;5,23;10,05;5,23;0;0;
1062;-14,55;16,86;-14,55;16,86;10,69;5,84;10,69;5,84;0;0;
1079;-27,05;13,74;-27,05;13,74;10,49;5,4;10,49;5,4;0;0;
1097;-9,16;11,59;-9,16;11,59;11,14;5,78;11,14;5,78;0;0;
1115;-25,58;13,63;-25,58;13,63;10,19;5,71;10,19;5,71;0;0;
1131;-41,11;3,33;-41,11;3,33;10,29;5,68;10,29;5,68;0;0;
1148;-41,11;3,33;-41,11;3,33;10,49;5,62;10,49;5,62;0;0;
1165;-37,47;-0,3;-37,47;-0,3;9,74;5,73;9,74;5,73;0;0;
1181;-19,11;7,53;-19,11;7,53;10,47;5,95;10,47;5,95;0;0;
1199;-23,71;10,78;-23,71;10,78;9,97;5,77;9,97;5,77;0;0;
1219;-37,7;8,45;-37,7;8,45;9,92;5,93;9,92;5,93;0;0;
1236;-16,1;19,74;-16,1;19,74;9,04;5,92;9,04;5,92;0;0;
1252;-37,9;2,04;-37,9;2,04;8,82;6,03;8,82;6,03;0;0;
1270;-17,66;5,07;-17,66;5,07;9,6;5,39;9,6;5,39;0;0;
1285;-17,66;5,07;-17,66;5,07;9,53;4,98;9,53;4,98;0;0;
1302;-23,97;5,34;-23,97;5,34;9,52;5,51;9,52;5,51;0;0;
1321;-12,84;17,38;-12,84;17,38;10,3;5,75;10,3;5,75;0;0;
1338;-37,55;10,86;-37,55;10,86;10,42;5,7;10,42;5,7;0;0;
1356;-14,63;23,16;-14,63;23,16;10,45;5,5;10,45;5,5;0;0;
1372;-38,68;14,27;-38,68;14,27;10,41;5,82;10,41;5,82;0;0;
1388;-38,68;14,27;-38,68;14,27;10,38;6,12;10,38;6,12;0;0;
1406;-11,02;18,3;-11,02;18,3;9,49;5,61;9,49;5,61;0;0;
1426;-31,61;3,12;-31,61;3,12;9,23;6,11;9,23;6,11;0;0;
1444;-14,54;16,33;-14,54;16,33;9,61;5,84;9,61;5,84;0;0;
1461;-36,11;10,41;-36,11;10,41;9,23;5,31;9,23;5,31;0;0;
1480;-6,39;21,35;-6,39;21,35;9,49;5,56;9,49;5,56;0;0;
1502;-29,83;9,37;-29,83;9,37;10,07;5,71;10,07;5,71;0;0;
1518;-14,19;12,9;-14,19;12,9;9,98;5,24;9,98;5,24;0;0;
1536;-33,97;13,16;-33,97;13,16;9,5;5,05;9,5;5,05;0;0;
1553;-27,51;3,61;-27,51;3,61;9,68;5,73;9,68;5,73;0;0;
1569;-10,47;9,55;-10,47;9,55;9,76;5,9;9,76;5,9;0;0;
1585;-10,47;9,55;-10,47;9,55;9,02;5,35;9,02;5,35;0;0;
1603;-9,98;10,42;-9,98;10,42;9,89;5,12;9,89;5,12;0;0;
1621;-22,46;11,22;-22,46;11,22;9,68;4,93;9,68;4,93;0;0;
1638;-13,76;2,87;-13,76;2,87;9,83;4,25;9,83;4,25;0;0;
1656;-25,21;23,35;-25,21;23,35;9,42;4,08;9,42;4,08;0;0;
1674;-44,76;5,41;-44,76;5,41;9,42;4,33;9,42;4,33;0;0;
1692;-23,71;5,69;-23,71;5,69;8,86;4,54;8,86;4,54;0;0;
1708;-23,71;5,69;-23,71;5,69;7,91;4,66;7,91;4,66;0;0;
1724;-11,77;11,47;-11,77;11,47;8,95;5,05;8,95;5,05;0;0;
1741;-18,49;25,87;-18,49;25,87;8,51;5,54;8,51;5,54;0;0;
1759;-19,8;8,59;-19,8;8,59;9,03;5,47;9,03;5,47;0;0;
1776;-18,03;16,61;-18,03;16,61;9,11;5,16;9,11;5,16;0;0;
1793;-37,39;11,24;-37,39;11,24;10,17;4,81;10,17;4,81;0;0;
1810;-18,15;4,8;-18,15;4,8;10,77;4,59;10,77;4,59;0;0;
1827;-18,15;4,8;-18,15;4,8;10,37;4,56;10,37;4,56;0;0;
1843;-23,18;4,11;-23,18;4,11;11,17;4,46;11,17;4,46;0;0;
1861;-16,98;23,24;-16,98;23,24;10,29;4,81;10,29;4,81;0;0;
1876;-40,83;8,29;-40,83;8,29;9,58;5,3;9,58;5,3;0;0;
1893;-12,64;22,19;-12,64;22,19;9,9;5,81;9,9;5,81;0;0;
1910;-12,64;22,19;-12,64;22,19;9,42;6,29;9,42;6,29;0;0;
1927;-12,64;22,19;-12,64;22,19;8,8;6,66;8,8;6,66;0;0;
1942;-12,5;11,94;-12,5;11,94;8,4;6,46;8,4;6,46;0;0;
1959;-35,13;13,81;-35,13;13,81;8,04;7,07;8,04;7,07;0;0;
1975;-26,53;12,71;-26,53;12,71;9,1;6,63;9,1;6,63;0;0;
1990;-11;15,37;-11;15,37;8,74;6,47;8,74;6,47;0;0;
2004;-11;15,37;-11;15,37;8,39;6,3;8,39;6,3;0;0;
2021;-16,02;15,89;-16,02;15,89;8,31;6,43;8,31;6,43;0;0;
2040;-31,61;13,22;-31,61;13,22;7,87;6,32;7,87;6,32;0;0;
2055;-30,19;3,4;-30,19;3,4;8,5;5,79;8,5;5,79;0;0;
2071;-33,37;15,41;-33,37;15,41;8,24;5,69;8,24;5,69;0;0;
2090;-32,42;0,32;-32,42;0,32;8,97;5,67;8,97;5,67;0;0;
2107;-32,42;0,32;-32,42;0,32;9,68;5,94;9,68;5,94;0;0;
2126;-38,25;2,04;-38,25;2,04;9,89;5,98;9,89;5,98;0;0;
2144;-14,84;10,08;-14,84;10,08;10,35;5,99;10,35;5,99;0;0;
2162;-23,16;14,24;-23,16;14,24;9,64;5,87;9,64;5,87;0;0;
2179;-37,37;9,6;-37,37;9,6;10,17;5,59;10,17;5,59;0;0;
2196;-21,35;7,95;-21,35;7,95;9,62;6,13;9,62;6,13;0;0;
2212;-36,97;11,05;-36,97;11,05;9,38;5,42;9,38;5,42;0;0;
2230;-11,35;5,63;-11,35;5,63;9,83;5,07;9,83;5,07;0;0;
2247;-11,35;5,63;-11,35;5,63;10,38;4,34;10,38;4,34;0;0;
2264;-16,45;2,96;-16,45;2,96;10,94;5,05;10,94;5,05;0;0;
2281;-18,1;19,72;-18,1;19,72;10,69;5,21;10,69;5,21;0;0;
2299;-20,01;4,43;-20,01;4,43;10,98;4,85;10,98;4,85;0;0;
2316;-11,48;16,11;-11,48;16,11;11,3;5,38;11,3;5,38;0;0;
2332;-40,84;1,85;-40,84;1,85;10,85;5,94;10,85;5,94;0;0;
2349;-23,39;8,12;-23,39;8,12;10,72;6,71;10,72;6,71;0;0;
2365;-23,39;8,12;-23,39;8,12;10,92;6,87;10,92;6,87;0;0;
2381;-20,35;3,32;-20,35;3,32;11,85;6,8;11,85;6,8;0;0;
2396;-13,86;20,78;-13,86;20,78;10,9;7,08;10,9;7,08;0;0;
2412;-43,53;1,99;-43,53;1,99;10,75;7,38;10,75;7,38;0;0;
2429;-25,98;5,09;-25,98;5,09;11,39;6,58;11,39;6,58;0;0;
2446;-25,98;5,09;-25,98;5,09;11,03;5,59;11,03;5,59;0;0;
2463;-38,9;11,92;-38,9;11,92;10,5;5,04;10,5;5,04;0;0;
2480;-16,36;14,67;-16,36;14,67;9,59;5,23;9,59;5,23;0;0;
2499;-32,49;14,89;-32,49;14,89;8,85;5,08;8,85;5,08;0;0;
2516;-10,73;15,11;-10,73;15,11;8,73;4,98;8,73;4,98;0;0;
2532;-29,85;12,38;-29,85;12,38;8,28;5,11;8,28;5,11;0;0;
2549;-31,84;0,56;-31,84;0,56;7,42;6,03;7,42;6,03;0;0;
2565;-31,84;0,56;-31,84;0,56;7,79;6;7,79;6;0;0;
2581;-30,48;5,04;-30,48;5,04;8,08;6,23;8,08;6,23;0;0;
2596;-30,48;5,04;-30,48;5,04;8,69;6,12;8,69;6,12;0;0;
2613;-10,55;9,92;-10,55;9,92;8,56;5,97;8,56;5,97;0;0;
2631;-36,07;-1,01;-36,07;-1,01;9,44;5,89;9,44;5,89;0;0;
2650;-25,87;16,02;-25,87;16,02;9,43;5,29;9,43;5,29;0;0;
2666;-25,87;16,02;-25,87;16,02;9,07;4,82;9,07;4,82;0;0;
2683;-34,65;3,57;-34,65;3,57;9,35;4,98;9,35;4,98;0;0;
2702;-20,59;11,17;-20,59;11,17;9,33;5,08;9,33;5,08;0;0;
2720;-7,84;16,19;-7,84;16,19;9,76;5,69;9,76;5,69;0;0;
2736;-22,7;18,52;-22,7;18,52;9,56;5,55;9,56;5,55;0;0;
2754;-36,8;8,03;-36,8;8,03;9,76;5,73;9,76;5,73;0;0;
2770;-15,93;9,93;-15,93;9,93;10,03;5,62;10,03;5,62;0;0;
2787;-15,93;9,93;-15,93;9,93;10,29;5,42;10,29;5,42;0;0;
2802;-14,98;9,99;-14,98;9,99;10,8;4,89;10,8;4,89;0;0;
2820;-17,36;22,65;-17,36;22,65;9,28;4,2;9,28;4,2;0;0;
2836;-38,4;7,73;-38,4;7,73;9,71;4,43;9,71;4,43;0;0;
2852;-13,39;21,69;-13,39;21,69;10,32;5,23;10,32;5,23;0;0;
2867;-13,39;21,69;-13,39;21,69;10,02;6,19;10,02;6,19;0;0;
2888;-23,91;9,51;-23,91;9,51;10,2;5,97;10,2;5,97;0;0;
2904;-35,71;8,47;-35,71;8,47;10,41;5,99;10,41;5,99;0;0;
2921;-35,71;8,47;-35,71;8,47;10,31;5,55;10,31;5,55;0;0;
2941;-19,97;28,5;-19,97;28,5;9,82;5,64;9,82;5,64;0;0;
2960;-39,4;8,35;-39,4;8,35;9,62;5,28;9,62;5,28;0;0;
2977;-21,19;7,34;-21,19;7,34;10,63;5,17;10,63;5,17;0;0;
2994;-31,82;12,25;-31,82;12,25;9,22;5,03;9,22;5,03;0;0;
3017;-12,82;18,46;-12,82;18,46;9,07;5,41;9,07;5,41;0;0;
3034;-32,91;9,18;-32,91;9,18;9,6;5,36;9,6;5,36;0;0;
3052;-27,47;-0,4;-27,47;-0,4;10,41;5,03;10,41;5,03;0;0;
3069;-18,62;13,85;-18,62;13,85;10,63;4,7;10,63;4,7;0;0;
3086;-18,62;13,85;-18,62;13,85;9,99;4,75;9,99;4,75;0;0;
3104;-10,35;16,55;-10,35;16,55;10,76;5,22;10,76;5,22;0;0;
3120;-29,89;15,35;-29,89;15,35;10,36;4,89;10,36;4,89;0;0;
3138;-9,37;15,73;-9,37;15,73;10,91;4,86;10,91;4,86;0;0;
3156;-27,85;18,17;-27,85;18,17;9,8;4,33;9,8;4,33;0;0;
3171;-37,34;2,01;-37,34;2,01;10,06;4,89;10,06;4,89;0;0;
3187;-37,34;2,01;-37,34;2,01;10,36;5,44;10,36;5,44;0;0;
3202;-23,77;16,59;-23,77;16,59;9,62;5,5;9,62;5,5;0;0;
3220;-11,2;11,45;-11,2;11,45;10,2;5,53;10,2;5,53;0;0;
3236;-28,23;16;-28,23;16;9,5;5,65;9,5;5,65;0;0;
3252;-41,79;-1,49;-41,79;-1,49;9,78;5,84;9,78;5,84;0;0;
3267;-41,79;-1,49;-41,79;-1,49;9,84;5,78;9,84;5,78;0;0;
3284;-40,47;0,52;-40,47;0,52;10,38;5,86;10,38;5,86;0;0;
3301;-16,89;14,75;-16,89;14,75;10,93;5,53;10,93;5,53;0;0;
3318;-18,46;10,23;-18,46;10,23;10,33;5,87;10,33;5,87;0;0;
3334;-35,73;9,7;-35,73;9,7;10,37;5,38;10,37;5,38;0;0;
3353;-19,35;21,44;-19,35;21,44;9,03;5,52;9,03;5,52;0;0;
3370;-35,76;9,75;-35,76;9,75;8,56;5,03;8,56;5,03;0;0;
3385;-35,76;9,75;-35,76;9,75;8,79;4,81;8,79;4,81;0;0;
3401;-17,61;17,57;-17,61;17,57;7,89;5,06;7,89;5,06;0;0;
3421;-43,87;5,3;-43,87;5,3;9;5,58;9;5,58;0;0;
3437;-80,3;6,43;-80,3;6,43;10,63;5,51;10,63;5,51;0;0;
3454;-6,54;25,27;-6,54;25,27;15,13;5,93;15,13;5,93;0;0;
3470;-40,11;4,7;-40,11;4,7;15,87;6,7;15,87;6,7;0;0;
3486;-40,11;4,7;-40,11;4,7;17,44;6,93;17,44;6,93;0;0;
3501;-38,37;8,29;-38,37;8,29;16,62;6,91;16,62;6,91;0;0;
3519;-9,05;7,73;-9,05;7,73;15,77;6,25;15,77;6,25;0;0;
3538;-24,13;8,41;-24,13;8,41;12,57;6,36;12,57;6,36;0;0;
3556;-24,13;8,41;-24,13;8,41;11,14;5,43;11,14;5,43;1;0;
3573;-28,64;13,14;-28,64;13,14;10,36;4,79;10,36;4,79;1;0;
3590;-66,91;3,81;-66,91;3,81;10,68;4,96;10,68;4,96;1;0;
3608;-66,91;3,81;-66,91;3,81;12,45;4,97;12,45;4,97;1;0;
3624;-43,78;1,14;-43,78;1,14;29,79;4,64;29,79;4,64;1;0;
3640;-35,5;17,5;-35,5;17,5;43,02;4,82;43,02;4,82;1;0;
3659;-79,35;12,14;-79,35;12,14;52,82;4,45;52,82;4,45;1;0;
3699;54,49;10,95;54,49;10,95;66,83;4,2;66,83;4,2;0;0;
3747;-24,03;15,21;-24,03;15,21;66,97;4,47;66,97;4,47;0;0;
3799;-10,8;10;-10,8;10;56,77;4,6;56,77;4,6;0;0;
3851;60,22;17,04;60,22;17,04;47,38;4,93;47,38;4,93;0;0;
3908;-37,93;6,57;-37,93;6,57;31,93;5,01;31,93;5,01;0;0;
3958;-47,79;15,82;-47,79;15,82;23,21;5;23,21;5;0;0;
3996;-40,61;15,39;-40,61;15,39;13,4;5,34;13,4;5,34;0;0;
4049;-28,82;-1,49;-28,82;-1,49;13,25;5,21;13,25;5,21;0;0;
4086;-26,29;5,3;-26,29;5,3;12,92;5,25;12,92;5,25;0;0;
4120;-33,83;18;-33,83;18;9,26;5,49;9,26;5,49;0;0;
4151;-34,7;10,27;-34,7;10,27;9,15;5,71;9,15;5,71;0;0;
4179;-29,2;1,91;-29,2;1,91;8,93;5,64;8,93;5,64;0;0;
4244;-29,08;19;-29,08;19;9,32;5,58;9,32;5,58;0;0;
4286;-42,77;1,66;-42,77;1,66;9,62;5,44;9,62;5,44;0;0;
4313;-28,14;16,56;-28,14;16,56;9,15;5,61;9,15;5,61;0;0;
4370;-39,08;2,6;-39,08;2,6;9,5;5,12;9,5;5,12;0;0;
4421;-20,74;4,62;-20,74;4,62;10,66;5,04;10,66;5,04;0;0;
4466;-19,64;12,39;-19,64;12,39;10,59;5,12;10,59;5,12;0;0;
4525;-40,84;7,97;-40,84;7,97;10,88;5,09;10,88;5,09;0;0;
4564;-35,16;16,09;-35,16;16,09;10,81;5,22;10,81;5,22;0;0;
4584;-26,95;3,06;-26,95;3,06;11,54;5,65;11,54;5,65;0;0;
4624;-32,7;-0,55;-32,7;-0,55;10,45;5,77;10,45;5,77;0;0;
4643;-12,15;16,41;-12,15;16,41;11,33;5,91;11,33;5,91;0;0;
4698;-31,45;17,01;-31,45;17,01;10,51;6,25;10,51;6,25;0;0;
4727;-15,22;12,35;-15,22;12,35;10,93;5,59;10,93;5,59;0;0;
4746;-31,28;10,63;-31,28;10,63;11,43;5,36;11,43;5,36;0;0;
4777;-28,47;13,12;-28,47;13,12;10,73;5,24;10,73;5,24;0;0;
4794;-39,28;5,29;-39,28;5,29;10,67;4,73;10,67;4,73;0;0;
4820;-23,44;16,07;-23,44;16,07;9,89;4,52;9,89;4,52;0;0;
4839;-12,21;7,09;-12,21;7,09;10,37;4,93;10,37;4,93;0;0;
4856;-22,58;14,14;-22,58;14,14;9,76;5,21;9,76;5,21;0;0;
4873;-38,78;1,52;-38,78;1,52;10,3;5,15;10,3;5,15;0;0;
4921;-23,29;10,26;-23,29;10,26;10,39;5,08;10,39;5,08;0;0;
4952;-40,92;7,21;-40,92;7,21;10,58;5,22;10,58;5,22;0;0;
4970;-21,39;11,97;-21,39;11,97;10,98;4,87;10,98;4,87;0;0;
4988;-21,39;11,97;-21,39;11,97;10,53;4,22;10,53;4,22;0;0;
5014;-14,43;15,49;-14,43;15,49;9,17;4,37;9,17;4,37;0;0;
5037;-40,09;9,34;-40,09;9,34;9,56;4;9,56;4;0;0;
5064;-41,61;9,91;-41,61;9,91;8,36;4,24;8,36;4,24;0;0;
5081;-22;3,83;-22;3,83;9,47;4,36;9,47;4,36;0;0;
5107;-44,57;10,12;-44,57;10,12;9,4;4,76;9,4;4,76;0;0;
5143;-10,27;16,3;-10,27;16,3;9,3;4,55;9,3;4,55;0;0;
5161;-35,46;7,95;-35,46;7,95;9,72;4,5;9,72;4,5;0;0;
5190;-10,2;7,29;-10,2;7,29;9,85;4,67;9,85;4,67;0;0;
5207;-10,2;7,29;-10,2;7,29;10,59;4,29;10,59;4,29;0;0;
5238;-33,63;8,49;-33,63;8,49;9,18;3,91;9,18;3,91;0;0;
5254;-33,52;3,27;-33,52;3,27;9,48;3,89;9,48;3,89;0;0;
5272;-29,09;3,46;-29,09;3,46;8,65;3,66;8,65;3,66;0;0;
5303;-12,53;16,29;-12,53;16,29;9,2;3,98;9,2;3,98;0;0;
5320;-21,52;9,57;-21,52;9,57;8,92;4,23;8,92;4,23;0;0;
5351;-16,35;17,21;-16,35;17,21;8,36;4,3;8,36;4,3;0;0;
5367;-16,35;17,21;-16,35;17,21;8,6;4,3;8,6;4,3;0;0;
5385;-14,72;9,36;-14,72;9,36;9,38;4,16;9,38;4,16;0;0;
5400;-20,26;17,79;-20,26;17,79;9,56;4,25;9,56;4,25;0;0;
5419;-17,89;10,22;-17,89;10,22;9,38;4,15;9,38;4,15;0;0;
5436;-20,01;10,45;-20,01;10,45;9,14;4,14;9,14;4,14;0;0;
5454;-42,38;8,65;-42,38;8,65;9,87;4,06;9,87;4,06;0;0;
5472;-12,74;19,81;-12,74;19,81;9,67;4,11;9,67;4,11;0;0;
5488;-12,74;19,81;-12,74;19,81;9,17;4,39;9,17;4,39;0;0;
5504;-16,59;-0,23;-16,59;-0,23;10,05;4,39;10,05;4,39;0;0;
5521;-19,49;17;-19,49;17;9,15;4,52;9,15;4,52;0;0;
5539;-25,91;10,93;-25,91;10,93;8,62;4,82;8,62;4,82;0;0;
5598;-13,4;21,43;-13,4;21,43;8,73;4,87;8,73;4,87;0;0;
5615;-34,67;6,66;-34,67;6,66;8,88;4,61;8,88;4,61;0;0;
5634;-12,9;18,81;-12,9;18,81;8,86;4,88;8,86;4,88;0;0;
5652;-33,97;13,72;-33,97;13,72;8,7;4,23;8,7;4,23;0;0;
5670;-5,87;-4,56;-5,87;-4,56;9,06;4,64;9,06;4,64;1;0;
5710;-118,81;7,07;-118,81;7,07;27,48;4,86;27,48;4,86;1;0;
5729;-118,81;7,07;-118,81;7,07;45,93;5,15;45,93;5,15;1;0;
5747;-48,59;2,2;-48,59;2,2;51,73;5,92;51,73;5,92;1;0;
5767;-11,24;21,79;-11,24;21,79;55,42;6,15;55,42;6,15;0;0;
5787;-34,47;7,56;-34,47;7,56;56,33;6,04;56,33;6,04;0;0;
5802;-19,64;15,05;-19,64;15,05;49,57;5,53;49,57;5,53;0;0;
5820;-32,95;18,02;-32,95;18,02;30,59;4,98;30,59;4,98;0;0;
5836;-7,4;11,07;-7,4;11,07;16,12;4,75;16,12;4,75;0;0;
5853;-29,5;14,78;-29,5;14,78;10,68;4,62;10,68;4,62;0;0;
5871;-52,22;0,18;-52,22;0,18;9,24;4,59;9,24;4,59;0;0;
5889;39,32;18,18;39,32;18,18;14,22;5,24;14,22;5,24;0;0;
5906;39,32;18,18;39,32;18,18;18,92;5,88;18,92;5,88;0;0;
5926;-24,72;4,89;-24,72;4,89;21,51;5,92;21,51;5,92;0;0;
5944;-36,97;10,81;-36,97;10,81;20,73;5,53;20,73;5,53;0;0;
5962;-25,63;7,8;-25,63;7,8;21,14;5,61;21,14;5,61;0;0;
5977;-20,09;18,87;-20,09;18,87;17,91;5,62;17,91;5,62;0;0;
5994;-37,06;7,77;-37,06;7,77;13,87;4,97;13,87;4,97;0;0;
6011;-13,86;9,11;-13,86;9,11;10,6;5,24;10,6;5,24;0;0;
6029;-40,7;2,12;-40,7;2,12;11,65;5,2;11,65;5,2;0;0;
6045;-40,7;2,12;-40,7;2,12;14,33;5,54;14,33;5,54;0;0;
6063;-15,96;24,83;-15,96;24,83;14,52;5,68;14,52;5,68;0;0;
6080;-35,28;4,08;-35,28;4,08;14,26;5,44;14,26;5,44;0;0;
6097;-21,5;10,49;-21,5;10,49;13,56;5,23;13,56;5,23;0;0;
6114;-39,97;12,35;-39,97;12,35;11,86;4,6;11,86;4,6;0;0;
6133;-16,6;10,32;-16,6;10,32;9,59;4,49;9,59;4,49;0;0;
6149;-39,44;7,4;-39,44;7,4;8,54;4,11;8,54;4,11;0;0;
6167;-39,44;7,4;-39,44;7,4;7,72;3,83;7,72;3,83;0;0;
6182;-11,6;13;-11,6;13;8,6;3,94;8,6;3,94;0;0;
6198;-37,24;6,99;-37,24;6,99;8,71;4,02;8,71;4,02;0;0;
6215;-12,79;18,27;-12,79;18,27;9,05;4,42;9,05;4,42;0;0;
6232;-38,36;15,21;-38,36;15,21;9,2;4,82;9,2;4,82;0;0;
6249;-28,91;4,77;-28,91;4,77;9,4;5,11;9,4;5,11;0;0;
6266;-28,91;4,77;-28,91;4,77;9,95;5,21;9,95;5,21;0;0;
6286;-34,03;4,77;-34,03;4,77;9,93;5,3;9,93;5,3;0;0;
6302;-14,19;18,78;-14,19;18,78;10,48;5,59;10,48;5,59;0;0;
6320;-31,06;8,45;-31,06;8,45;9,98;5,7;9,98;5,7;0;0;
6336;-28,56;10,32;-28,56;10,32;10,25;4,86;10,25;4,86;0;0;
6353;-34,15;19,85;-34,15;19,85;10,14;5,24;10,14;5,24;0;0;
6369;-33,56;3,7;-33,56;3,7;9,98;5,7;9,98;5,7;0;0;
6385;-33,56;3,7;-33,56;3,7;9,92;6,08;9,92;6,08;0;0;
6402;-28,94;16,07;-28,94;16,07;9,37;5,42;9,37;5,42;0;0;
6419;-17,28;15,71;-17,28;15,71;9,25;5,7;9,25;5,7;0;0;
6435;-17,38;10,02;-17,38;10,02;8,37;5,79;8,37;5,79;0;0;
6453;-38,01;1,28;-38,01;1,28;8,1;4,95;8,1;4,95;0;0;
6468;-38,01;1,28;-38,01;1,28;7,76;4,35;7,76;4,35;0;0;
6487;-39,4;6,05;-39,4;6,05;8;4,44;8;4,44;0;0;
6504;-22,02;14,8;-22,02;14,8;8,53;4,54;8,53;4,54;0;0;
6522;-21,19;25,94;-21,19;25,94;8,13;4,14;8,13;4,14;0;0;
6540;-26,39;7,76;-26,39;7,76;8,71;5,09;8,71;5,09;0;0;
6559;-18,93;15,69;-18,93;15,69;8,39;5,44;8,39;5,44;0;0;
6576;-38,68;6,65;-38,68;6,65;9,16;5,23;9,16;5,23;0;0;
6593;-14,53;19,28;-14,53;19,28;9,08;5,71;9,08;5,71;0;0;
6609;-42,13;11,07;-42,13;11,07;9,74;5,94;9,74;5,94;0;0;
6627;-42,13;11,07;-42,13;11,07;10,47;5,85;10,47;5,85;0;0;
6649;-45,14;22,21;-45,14;22,21;11,04;4,93;11,04;4,93;0;0;
6666;-24,34;0,2;-24,34;0,2;10,77;5,91;10,77;5,91;0;0;
6685;-15,15;14,18;-15,15;14,18;11,15;6,57;11,15;6,57;0;0;
6703;-29,42;8,63;-29,42;8,63;11,04;5,94;11,04;5,94;0;0;
6722;-11,76;17,74;-11,76;17,74;10,14;5,79;10,14;5,79;0;0;
6739;-28,27;13,73;-28,27;13,73;10,11;6,09;10,11;6,09;0;0;
6758;-17,53;14,88;-17,53;14,88;9,72;5,39;9,72;5,39;0;0;
6774;-33,96;6,5;-33,96;6,5;9,01;5,05;9,01;5,05;0;0;
6790;-30,07;1,63;-30,07;1,63;9,49;4,69;9,49;4,69;0;0;
6805;-30,07;1,63;-30,07;1,63;9,99;4,7;9,99;4,7;0;0;
6823;-32,71;0,62;-32,71;0,62;10,35;5,04;10,35;5,04;0;0;
6841;-13,78;18,5;-13,78;18,5;10,18;5,74;10,18;5,74;0;0;
6857;-27,97;16,35;-27,97;16,35;10,28;5,75;10,28;5,75;0;0;
6875;-32,57;3,14;-32,57;3,14;10,62;5,61;10,62;5,61;0;0;
6892;-21,95;13,62;-21,95;13,62;9,34;6,18;9,34;6,18;0;0;
6908;-21,95;13,62;-21,95;13,62;8,06;6,48;8,06;6,48;0;0;
6923;-14,35;15,87;-14,35;15,87;8,33;6,37;8,33;6,37;0;0;
6942;-28,51;15,21;-28,51;15,21;7,81;5,96;7,81;5,96;0;0;
6967;-18,63;9,74;-18,63;9,74;8,71;6,16;8,71;6,16;0;0;
6994;-36,68;5,12;-36,68;5,12;9,23;5,52;9,23;5,52;0;0;
7018;-26,82;15,71;-26,82;15,71;9,27;5,21;9,27;5,21;0;0;
7034;-34,42;9,08;-34,42;9,08;8,99;5,36;8,99;5,36;0;0;
7055;-15,47;2,25;-15,47;2,25;9,32;4,98;9,32;4,98;0;0;
7075;-36,62;-0,06;-36,62;-0,06;9,91;4,92;9,91;4,92;0;0;
7094;-17,02;17,77;-17,02;17,77;8,33;5,4;8,33;5,4;0;0;
7133;-20,53;16,81;-20,53;16,81;9,38;4,89;9,38;4,89;0;0;
7154;-41,93;14,07;-41,93;14,07;9,5;5,17;9,5;5,17;0;0;
7174;-12,26;15,61;-12,26;15,61;10,57;5;10,57;5;0;0;
7194;-41,97;7,89;-41,97;7,89;9,61;4,93;9,61;4,93;0;0;
7215;-23,62;11,84;-23,62;11,84;10,43;4,8;10,43;4,8;0;0;
7234;-37,9;11,73;-37,9;11,73;10,53;4,23;10,53;4,23;0;0;
7251;-16,82;17,42;-16,82;17,42;9,38;5,24;9,38;5,24;0;0;
7267;-16,82;17,42;-16,82;17,42;9,75;5,86;9,75;5,86;0;0;
7285;-32,19;3,06;-32,19;3,06;8,95;6,41;8,95;6,41;0;0;
7299;-14,75;22,44;-14,75;22,44;9,18;6,57;9,18;6,57;0;0;
7317;-32,52;1,77;-32,52;1,77;8,57;7,06;8,57;7,06;0;0;
7332;-37,34;3,73;-37,34;3,73;9,17;7,02;9,17;7,02;0;0;
7351;-30,3;9,24;-30,3;9,24;9,21;6,39;9,21;6,39;0;0;
7369;-38,38;14,81;-38,38;14,81;10;5,68;10;5,68;0;0;
7385;-38,38;14,81;-38,38;14,81;10,55;5,09;10,55;5,09;0;0;
7400;-30,61;14,92;-30,61;14,92;9,97;4,81;9,97;4,81;0;0;
7420;-9,48;8,95;-9,48;8,95;10,36;4,15;10,36;4,15;0;0;
7438;-22,01;11,26;-22,01;11,26;9,83;3,99;9,83;3,99;0;0;
7454;-38,92;7,28;-38,92;7,28;9,79;3,88;9,79;3,88;0;0;
7473;-18,23;17,51;-18,23;17,51;9,05;4,12;9,05;4,12;0;0;
7491;-37,04;3,63;-37,04;3,63;9,21;4,43;9,21;4,43;0;0;
7509;-16,3;12,04;-16,3;12,04;9,95;4,81;9,95;4,81;0;0;
7525;-16,3;12,04;-16,3;12,04;10,07;5,42;10,07;5,42;0;0;
7542;-17,59;3,49;-17,59;3,49;10,55;5,45;10,55;5,45;0;0;
7561;-13,86;16,93;-13,86;16,93;10,47;5,31;10,47;5,31;0;0;
7581;-21,21;5,3;-21,21;5,3;10,52;5,26;10,52;5,26;0;0;
7599;-8,32;15,98;-8,32;15,98;11,27;5,37;11,27;5,37;1;0;
7615;-16,1;12;-16,1;12;11,63;4,63;11,63;4,63;1;0;
7632;-159,48;17,05;-159,48;17,05;25,92;5,05;25,92;5,05;1;0;
7647;-159,48;17,05;-159,48;17,05;40,46;5,48;40,46;5,48;1;0;
7665;19,26;3,32;19,26;3,32;56,83;5,78;56,83;5,78;1;0;
7687;-29,32;13,37;-29,32;13,37;61,67;5,38;61,67;5,38;0;0;
7707;0,86;6,86;0,86;6,86;69,47;5,76;69,47;5,76;0;0;
7723;-16,54;23,42;-16,54;23,42;68,01;5,94;68,01;5,94;0;0;
7740;-30,22;7,95;-30,22;7,95;53,44;5,38;53,44;5,38;0;0;
7758;-19,11;15,42;-19,11;15,42;40,26;5,15;40,26;5,15;0;0;
7773;-39,76;4,05;-39,76;4,05;27,42;4,98;27,42;4,98;0;0;
7791;-14,15;21,44;-14,15;21,44;21,34;5,79;21,34;5,79;0;0;
7810;-37,58;9,46;-37,58;9,46;10,92;5,32;10,92;5,32;0;0;
7831;-29,35;3,23;-29,35;3,23;9,38;4,75;9,38;4,75;0;0;
7849;-22,05;11,61;-22,05;11,61;12,76;5,15;12,76;5,15;0;0;
7864;-22,05;11,61;-22,05;11,61;16,34;5,68;16,34;5,68;0;0;
7882;-17,77;14,72;-17,77;14,72;17,16;5,34;17,16;5,34;0;0;
7900;-21;6,6;-21;6,6;16,48;5,16;16,48;5,16;0;0;
7916;-14,66;18,18;-14,66;18,18;17,19;6,14;17,19;6,14;0;0;
7932;-25,85;11,75;-25,85;11,75;14,82;6,21;14,82;6,21;0;0;
7949;-34,53;10,06;-34,53;10,06;11,66;5,78;11,66;5,78;0;0;
7966;-34,53;10,06;-34,53;10,06;9,66;5,56;9,66;5,56;0;0;
7983;-41,3;-2,23;-41,3;-2,23;10,01;5,81;10,01;5,81;0;0;
8001;-13,85;18,01;-13,85;18,01;9,98;5,45;9,98;5,45;0;0;
8017;-22,52;12,34;-22,52;12,34;9,79;4,52;9,79;4,52;0;0;
8033;-42,05;5,28;-42,05;5,28;10,31;4,67;10,31;4,67;0;0;
8050;-16,72;8,96;-16,72;8,96;10,46;4,51;10,46;4,51;0;0;
8066;-16,72;8,96;-16,72;8,96;10,48;4,26;10,48;4,26;0;0;
8083;-22,63;6,1;-22,63;6,1;11,58;3,44;11,58;3,44;0;0;
8100;-18,07;22,62;-18,07;22,62;11,12;3,67;11,12;3,67;0;0;
8116;-37,38;11,68;-37,38;11,68;11,51;4,12;11,51;4,12;0;0;
8131;-21,45;18,49;-21,45;18,49;10,68;4,27;10,68;4,27;0;0;
8153;-43,23;6,07;-43,23;6,07;10,6;4,83;10,6;4,83;0;0;
8168;-43,23;6,07;-43,23;6,07;10,36;5,58;10,36;5,58;0;0;
8185;-40,08;11,14;-40,08;11,14;10,47;5,66;10,47;5,66;0;0;
8200;-25,44;0,28;-25,44;0,28;10,11;6,26;10,11;6,26;0;0;
8217;-13,68;19,73;-13,68;19,73;9,89;6,2;9,89;6,2;0;0;
8234;-42,64;3,62;-42,64;3,62;10,44;6,48;10,44;6,48;0;0;
8252;-16,43;18,42;-16,43;18,42;9,84;6,27;9,84;6,27;0;0;
8270;-33,85;10,25;-33,85;10,25;9,1;5,67;9,1;5,67;0;0;
8287;-33,85;10,25;-33,85;10,25;9,46;4,89;9,46;4,89;0;0;
8304;-36,48;11,21;-36,48;11,21;9,66;3,93;9,66;3,93;0;0;
8321;-29,73;2,26;-29,73;2,26;9,64;3,79;9,64;3,79;0;0;
8337;-11,16;24,17;-11,16;24,17;9,88;4,34;9,88;4,34;0;0;
8353;-33,11;15,09;-33,11;15,09;9,73;4,8;9,73;4,8;0;0;
8371;-31,34;8,51;-31,34;8,51;9,9;4,79;9,9;4,79;0;0;
8387;-31,34;8,51;-31,34;8,51;9,91;4,73;9,91;4,73;0;0;
8403;-116,07;13,85;-116,07;13,85;12,36;5,39;12,36;5,39;0;0;
8419;-27,3;15,56;-27,3;15,56;24,5;4,99;24,5;4,99;0;0;
8435;-4,58;12,3;-4,58;12,3;30,77;4,16;30,77;4,16;0;0;
8452;-22,88;-1,72;-22,88;-1,72;36,87;4,16;36,87;4,16;0;0;
8468;-22,88;-1,72;-22,88;-1,72;42,68;4,75;42,68;4,75;0;0;
8485;-52,2;7,27;-52,2;7,27;51,06;4,38;51,06;4,38;0;0;
8504;29;15,78;29;15,78;54,26;4,61;54,26;4,61;0;0;
8520;-77,96;17,99;-77,96;17,99;53,29;4,9;53,29;4,9;0;0;
8537;-26,4;11,6;-26,4;11,6;49,84;5,49;49,84;5,49;1;0;
8557;-23,55;14,07;-23,55;14,07;42,84;5,16;42,84;5,16;1;0;
8574;-38,14;5,88;-38,14;5,88;32,3;4,63;32,3;4,63;1;0;
8594;-8,89;15,05;-8,89;15,05;27,7;4,99;27,7;4,99;1;0;
8609;-34,61;8,31;-34,61;8,31;18,02;4,65;18,02;4,65;1;0;
8626;-34,61;8,31;-34,61;8,31;12,17;4,52;12,17;4,52;1;0;
8644;-19,95;15,31;-19,95;15,31;12,65;3,96;12,65;3,96;1;0;
8660;-25,27;10,81;-25,27;10,81;11,98;3,83;11,98;3,83;1;0;
8676;-19,78;15,85;-19,78;15,85;11,15;3,69;11,15;3,69;1;0;
8693;-45,47;3,73;-45,47;3,73;9,03;4,26;9,03;4,26;1;0;
8713;-20,51;18,36;-20,51;18,36;7,58;4,34;7,58;4,34;1;0;
8729;-38,47;8,42;-38,47;8,42;7,68;3,93;7,68;3,93;1;0;
8744;-38,47;8,42;-38,47;8,42;7,9;3,73;7,9;3,73;1;0;
8762;-8,69;2,37;-8,69;2,37;7,7;3,88;7,7;3,88;1;0;
8778;-46,63;8,71;-46,63;8,71;7,83;4,01;7,83;4,01;1;0;
8796;-10,56;22,69;-10,56;22,69;8,06;3,7;8,06;3,7;1;0;
8811;-37,32;7,84;-37,32;7,84;8,61;4,39;8,61;4,39;1;0;
8830;-24,79;6,93;-24,79;6,93;9,01;4,82;9,01;4,82;1;0;
8845;-24,79;6,93;-24,79;6,93;9,91;5,02;9,91;5,02;1;0;
8876;-31,58;6,99;-31,58;6,99;9,32;4,9;9,32;4,9;0;0;
8893;-32,04;13,37;-32,04;13,37;9,66;4,61;9,66;4,61;0;0;
8910;-26,81;-0,92;-26,81;-0,92;9,49;4,43;9,49;4,43;0;0;
8925;-26,81;-0,92;-26,81;-0,92;10,38;4,06;10,38;4,06;0;0;
8945;-27,54;7,05;-27,54;7,05;9,97;4,37;9,97;4,37;0;0;
8963;-9,85;15,89;-9,85;15,89;9,79;5,05;9,79;5,05;0;0;
8982;-36,74;1,62;-36,74;1,62;9,76;5,5;9,76;5,5;0;0;
8999;-14,91;15,72;-14,91;15,72;10,59;6,11;10,59;6,11;0;0;
9015;-25,92;12,61;-25,92;12,61;9,71;5,73;9,71;5,73;0;0;
9035;-36,48;-3,39;-36,48;-3,39;9,67;5,86;9,67;5,86;0;0;
9056;-25,08;16,8;-25,08;16,8;9,58;5,17;9,58;5,17;0;0;
9073;-38,8;15,93;-38,8;15,93;9,28;4,59;9,28;4,59;0;0;
9090;-16,72;12,94;-16,72;12,94;8,99;4,77;8,99;4,77;0;0;
9109;-34,49;7,27;-34,49;7,27;8,59;4,55;8,59;4,55;0;0;
9126;-34,49;7,27;-34,49;7,27;8,48;4,27;8,48;4,27;0;0;
9144;-17,24;20,69;-17,24;20,69;8,1;4,69;8,1;4,69;0;0;
9161;-17,67;10,61;-17,67;10,61;7,98;5,12;7,98;5,12;0;0;
9178;-14,9;28,68;-14,9;28,68;7,91;5,43;7,91;5,43;0;0;
9199;-24,31;5,04;-24,31;5,04;7,97;5,35;7,97;5,35;0;0;
9217;-19,91;15,63;-19,91;15,63;7,42;5,88;7,42;5,88;0;0;
9235;-37,89;9,54;-37,89;9,54;8,58;5,49;8,58;5,49;0;0;
9251;-12,29;14,75;-12,29;14,75;8,49;5,19;8,49;5,19;0;0;
9267;-12,29;14,75;-12,29;14,75;7,78;5,03;7,78;5,03;0;0;
9285;-22,42;5,29;-22,42;5,29;8,93;4,62;8,93;4,62;0;0;
9302;-8,51;11,67;-8,51;11,67;8,64;4,44;8,64;4,44;0;0;
9318;-25,7;12,17;-25,7;12,17;8,93;4,48;8,93;4,48;0;0;
9334;-15,06;14,71;-15,06;14,71;9,28;4,47;9,28;4,47;0;0;
9351;-37,81;3,54;-37,81;3,54;9,72;5,14;9,72;5,14;0;0;
9368;-37,81;3,54;-37,81;3,54;9,72;5,87;9,72;5,87;0;0;
9386;-33,38;14,24;-33,38;14,24;9,59;5,62;9,59;5,62;0;0;
9403;-29,06;3,41;-29,06;3,41;9,68;5,69;9,68;5,69;0;0;
9421;-9,85;12,93;-9,85;12,93;9,33;5,91;9,33;5,91;0;0;
9438;-30,46;7,03;-30,46;7,03;9,21;6,34;9,21;6,34;0;0;
9454;-30,46;7,03;-30,46;7,03;9,3;5,91;9,3;5,91;0;0;
9471;-23,42;1,24;-23,42;1,24;8,89;5,72;8,89;5,72;0;0;
9489;-28,83;4,83;-28,83;4,83;9,23;5,52;9,23;5,52;0;0;
9506;-28,83;4,83;-28,83;4,83;9,67;5,41;9,67;5,41;0;0;
9522;-36,97;1,54;-36,97;1,54;9,93;5,41;9,93;5,41;0;0;
9539;-6,23;16,83;-6,23;16,83;10,01;5,05;10,01;5,05;0;0;
9555;-22,11;12,66;-22,11;12,66;9,51;5,39;9,51;5,39;0;0;
9572;-38,41;2,78;-38,41;2,78;9,57;5,05;9,57;5,05;0;0;
9589;-8,99;16;-8,99;16;9,91;5,66;9,91;5,66;0;0;
9606;-8,99;16;-8,99;16;10,17;6,26;10,17;6,26;0;0;
9627;-16,22;12,03;-16,22;12,03;10,71;5,91;10,71;5,91;0;0;
9644;-21,15;15,45;-21,15;15,45;9,73;5,81;9,73;5,81;0;0;
9661;-14,47;10,48;-14,47;10,48;10,41;5,35;10,41;5,35;0;0;
9677;-22,67;13,88;-22,67;13,88;10,62;4,97;10,62;4,97;0;0;
9695;-37,4;16;-37,4;16;10,17;3,86;10,17;3,86;0;0;
9711;-19,36;5,59;-19,36;5,59;9,81;3,63;9,81;3,63;0;0;
9728;-19,36;5,59;-19,36;5,59;9,84;4,11;9,84;4,11;0;0;
9744;-21,36;12,01;-21,36;12,01;10,6;4,17;10,6;4,17;0;0;
9762;-16,38;16,61;-16,38;16,61;9,3;4,1;9,3;4,1;0;0;
9779;-39,7;6,28;-39,7;6,28;9,17;5,28;9,17;5,28;0;0;
9798;-14,78;9,93;-14,78;9,93;9,08;4,82;9,08;4,82;0;0;
9818;-34,46;3,6;-34,46;3,6;8,97;5,15;8,97;5,15;0;0;
9836;-14,45;11,97;-14,45;11,97;8,12;5,6;8,12;5,6;0;0;
9852;-40,47;9,1;-40,47;9,1;8,19;5,7;8,19;5,7;0;0;
9867;-40,47;9,1;-40,47;9,1;7,99;5,94;7,99;5,94;0;0;
9886;-37,2;7,62;-37,2;7,62;8,44;5,29;8,44;5,29;0;0;
9904;-31,34;-6,79;-31,34;-6,79;9,28;5,67;9,28;5,67;0;0;
9923;-28,63;17,98;-28,63;17,98;8,74;4,97;8,74;4,97;0;0;
9939;-30,36;-2,02;-30,36;-2,02;8,81;5,93;8,81;5,93;0;0;
9958;-10,13;13,9;-10,13;13,9;8,84;5,85;8,84;5,85;0;0;
9975;-44,49;12,33;-44,49;12,33;9,25;5,69;9,25;5,69;0;0;
9992;-33,5;-0,69;-33,5;-0,69;9,82;5,34;9,82;5,34;0;0;
10008;-33,5;-0,69;-33,5;-0,69;9,54;5,4;9,54;5,4;0;0;
10028;-31,52;7,91;-31,52;7,91;8,99;4,47;8,99;4,47;0;0;
10044;-17,09;11,72;-17,09;11,72;8,77;4,5;8,77;4,5;0;0;
10059;-27,62;5,44;-27,62;5,44;8,2;5,01;8,2;5,01;0;0;
10076;-33,77;10,81;-33,77;10,81;8,02;4,82;8,02;4,82;0;0;
10094;-26,69;20,47;-26,69;20,47;7,47;4,74;7,47;4,74;0;0;
10113;-33,67;6,04;-33,67;6,04;7,81;5,09;7,81;5,09;0;0;
10128;-33,67;6,04;-33,67;6,04;7,97;5,53;7,97;5,53;0;0;
10144;-22,02;16,45;-22,02;16,45;7,39;5,35;7,39;5,35;0;0;
10162;-18,06;13,41;-18,06;13,41;7,8;5,36;7,8;5,36;0;0;
10178;-24,4;18,82;-24,4;18,82;7,31;5,9;7,31;5,9;0;0;
10197;-38,81;7,97;-38,81;7,97;7,74;5,46;7,74;5,46;0;0;
10214;-19,79;18,39;-19,79;18,39;7,48;5,06;7,48;5,06;0;0;
10232;-36,72;-0,75;-36,72;-0,75;7,8;5,38;7,8;5,38;0;0;
10249;-16,22;5,66;-16,22;5,66;8,95;5,46;8,95;5,46;0;0;
10266;-16,22;5,66;-16,22;5,66;9,4;4,62;9,4;4,62;0;0;
10284;-21,98;8,26;-21,98;8,26;10,16;4,25;10,16;4,25;0;0;
10302;-16,41;9,89;-16,41;9,89;10,57;4,52;10,57;4,52;0;0;
10319;-24,84;10,95;-24,84;10,95;10,88;4,31;10,88;4,31;0;0;
10336;-14,08;17,35;-14,08;17,35;11,14;3,87;11,14;3,87;0;0;
10353;-40,62;14,46;-40,62;14,46;10,52;3,84;10,52;3,84;0;0;
10369;-21,66;9,55;-21,66;9,55;10,09;4,11;10,09;4,11;0;0;
10385;-21,66;9,55;-21,66;9,55;9,63;4,11;9,63;4,11;0;0;
10403;-24,31;9,32;-24,31;9,32;10,15;4,4;10,15;4,4;0;0;
10421;-13,45;23,05;-13,45;23,05;9,93;4,62;9,93;4,62;0;0;
10439;-29,28;6,82;-29,28;6,82;9,92;4,68;9,92;4,68;0;0;
10457;-13,29;25,61;-13,29;25,61;10,1;5,27;10,1;5,27;0;0;
10473;-30,45;9,02;-30,45;9,02;9,68;5,42;9,68;5,42;0;0;
10491;-34,15;3,78;-34,15;3,78;8,96;5,21;8,96;5,21;0;0;
10508;-34,15;3,78;-34,15;3,78;8,41;5,38;8,41;5,38;0;0;
10525;-28,73;7,29;-28,73;7,29;8,38;5,29;8,38;5,29;0;0;
10541;-18,96;15,64;-18,96;15,64;8,53;5,6;8,53;5,6;0;0;
10561;-30,92;5,62;-30,92;5,62;8,34;5,49;8,34;5,49;0;0;
10577;-30,92;5,62;-30,92;5,62;8,85;5,65;8,85;5,65;0;0;
10593;-27,92;18,3;-27,92;18,3;8,46;5,46;8,46;5,46;0;0;
10609;-36,9;6,05;-36,9;6,05;9,31;5,48;9,31;5,48;0;0;
10629;-11,94;6,16;-11,94;6,16;9,83;5,55;9,83;5,55;0;0;
10644;-11,94;6,16;-11,94;6,16;9,83;4,9;9,83;4,9;0;0;
10661;-13;10,46;-13;10,46;9,98;4,26;9,98;4,26;0;0;
10678;-24,66;16,87;-24,66;16,87;9,74;4,34;9,74;4,34;0;0;
10696;-35,37;8,74;-35,37;8,74;9,45;4,57;9,45;4,57;0;0;
10712;-17,85;8,74;-17,85;8,74;9,65;3,95;9,65;3,95;0;0;
10728;-17,85;8,74;-17,85;8,74;9,72;3,38;9,72;3,38;0;0;
10745;-16,44;8,98;-16,44;8,98;9,89;3,39;9,89;3,39;0;0;
10761;-22,96;17,6;-22,96;17,6;9,01;3,63;9,01;3,63;0;0;
10778;-38,22;17,77;-38,22;17,77;8,9;3,25;8,9;3,25;0;0;
10794;-20,56;12,84;-20,56;12,84;9;3,98;9;3,98;0;0;
10812;-36,55;11;-36,55;11;8,82;4,66;8,82;4,66;0;0;
10832;-17,66;19,15;-17,66;19,15;8,07;5,64;8,07;5,64;0;0;
10848;-17,66;19,15;-17,66;19,15;7,05;6,6;7,05;6,6;0;0;
10863;-26,66;6,9;-26,66;6,9;7,31;6,55;7,31;6,55;0;0;
10879;-12,31;14,95;-12,31;14,95;7,35;6,01;7,35;6,01;0;0;
10895;-37,16;12,99;-37,16;12,99;6,88;5,84;6,88;5,84;0;0;
10915;-12,86;16,87;-12,86;16,87;7,11;5,45;7,11;5,45;0;0;
10930;-33,67;4,7;-33,67;4,7;7,59;4,67;7,59;4,67;0;0;
10946;-33,67;4,7;-33,67;4,7;8,03;4,46;8,03;4,46;0;0;
10962;-15,79;13,03;-15,79;13,03;8,32;4,47;8,32;4,47;0;0;
10978;-32,92;13,17;-32,92;13,17;7,63;4,5;7,63;4,5;0;0;
10993;-10,73;13,32;-10,73;13,32;8,31;4,47;8,31;4,47;0;0;
11010;-34,85;12,8;-34,85;12,8;7,71;4,58;7,71;4,58;0;0;
11028;-34,85;12,8;-34,85;12,8;7,64;4,84;7,64;4,84;0;0;
11043;-13,75;18,15;-13,75;18,15;7,89;5,21;7,89;5,21;0;0;
11065;-27,72;2,17;-27,72;2,17;8,21;5,59;8,21;5,59;0;0;
11081;-20,21;12,27;-20,21;12,27;8,7;5,42;8,7;5,42;0;0;
11097;-27,15;12,51;-27,15;12,51;8,14;4,7;8,14;4,7;0;0;
11113;-36,09;2,04;-36,09;2,04;8,53;4,55;8,53;4,55;0;0;
11131;-24,8;13,84;-24,8;13,84;8,77;5,06;8,77;5,06;0;0;
11148;-24,8;13,84;-24,8;13,84;8,05;5,38;8,05;5,38;0;0;
11163;-17,64;14;-17,64;14;8,41;5,5;8,41;5,5;0;0;
11179;-42,36;6,31;-42,36;6,31;8,64;6,3;8,64;6,3;0;0;
11195;-42,36;6,31;-42,36;6,31;8,73;6,74;8,73;6,74;0;0;
11212;-16,4;11,57;-16,4;11,57;9,48;6,2;9,48;6,2;0;0;
11230;-41,28;-0,76;-41,28;-0,76;10,26;5,76;10,26;5,76;0;0;
11245;-41,28;-0,76;-41,28;-0,76;11,12;5,65;11,12;5,65;0;0;
11260;-16,69;20,67;-16,69;20,67;9,57;5,84;9,57;5,84;0;0;
11276;-38,73;12,99;-38,73;12,99;9,69;5,49;9,69;5,49;0;0;
11293;-15,92;9,51;-15,92;9,51;9,86;5,42;9,86;5,42;0;0;
11311;-41,56;3,66;-41,56;3,66;8,85;5,62;8,85;5,62;0;0;
11327;-41,56;3,66;-41,56;3,66;8,63;5,77;8,63;5,77;0;0;
11342;-14,44;12,7;-14,44;12,7;8,55;5,06;8,55;5,06;0;0;
11359;-22,81;-1,46;-22,81;-1,46;8,2;4,67;8,2;4,67;0;0;
11375;-19,4;15,22;-19,4;15,22;7,94;4,32;7,94;4,32;0;0;
11393;-38,39;9,59;-38,39;9,59;7,39;4,52;7,39;4,52;0;0;
11410;-23,74;7,18;-23,74;7,18;7,73;4,17;7,73;4,17;0;0;
11428;-23,74;7,18;-23,74;7,18;8,97;3,87;8,97;3,87;0;0;
11445;-22,89;6,64;-22,89;6,64;9,99;4,77;9,99;4,77;0;0;
11459;-16,99;17,2;-16,99;17,2;9,48;4,91;9,48;4,91;0;0;
11475;-34,28;7,86;-34,28;7,86;9,27;5,24;9,27;5,24;0;0;
11491;-13,34;19,97;-13,34;19,97;9,54;5,4;9,54;5,4;0;0;
11506;-13,34;19,97;-13,34;19,97;8,71;5,89;8,71;5,89;0;0;
11524;-27,44;-5,7;-27,44;-5,7;8,21;6,33;8,21;6,33;0;0;
11539;-12,01;13,59;-12,01;13,59;8,14;5,83;8,14;5,83;0;0;
11556;-28,56;16,28;-28,56;16,28;7,57;5,76;7,57;5,76;0;0;
11572;-14,75;9,16;-14,75;9,16;8,42;6,08;8,42;6,08;0;0;
11589;-28,05;14,49;-28,05;14,49;8,56;5,84;8,56;5,84;0;0;
11604;-28,05;14,49;-28,05;14,49;8,47;5,6;8,47;5,6;0;0;
11622;-10,33;22,65;-10,33;22,65;8,68;5,67;8,68;5,67;0;0;
11638;-34;11,67;-34;11,67;8,39;5,46;8,39;5,46;0;0;
11654;-31,7;4,76;-31,7;4,76;9,43;4,98;9,43;4,98;0;0;
11671;-18,68;9,59;-18,68;9,59;8,84;5,28;8,84;5,28;0;0;
11688;-18,68;9,59;-18,68;9,59;8,72;5,57;8,72;5,57;0;0;
11705;-15,03;14,19;-15,03;14,19;9,2;5,79;9,2;5,79;0;0;
11721;-21,8;14,98;-21,8;14,98;8,34;5,48;8,34;5,48;0;0;
11738;-37,69;-1,25;-37,69;-1,25;8,51;5,99;8,51;5,99;0;0;
11755;-21,94;18,28;-21,94;18,28;8,49;6,17;8,49;6,17;0;0;
11771;-34,66;3,88;-34,66;3,88;8,34;5,94;8,34;5,94;0;0;
11790;-15,2;10,13;-15,2;10,13;9,07;5,48;9,07;5,48;0;0;
11806;-15,2;10,13;-15,2;10,13;9,28;4,92;9,28;4,92;0;0;
11823;-25,77;4,32;-25,77;4,32;9,34;5,06;9,34;5,06;0;0;
11838;-15,05;12,31;-15,05;12,31;9,34;5,15;9,34;5,15;0;0;
11854;-35,75;4,44;-35,75;4,44;9,61;5,18;9,61;5,18;0;0;
11870;-24,88;6,14;-24,88;6,14;10,47;5,62;10,47;5,62;0;0;
11888;-24,88;6,14;-24,88;6,14;10,28;6,13;10,28;6,13;0;0;
11903;-28,16;7,87;-28,16;7,87;10,26;5,86;10,26;5,86;0;0;
11920;-10,51;10,64;-10,51;10,64;9,96;5,37;9,96;5,37;0;0;
11935;-43,88;13,37;-43,88;13,37;9,53;4,82;9,53;4,82;0;0;
11954;-12,61;19,94;-12,61;19,94;9,87;5,02;9,87;5,02;0;0;
11970;-35,48;11,83;-35,48;11,83;9,68;4,36;9,68;4,36;0;0;
11986;-35,48;11,83;-35,48;11,83;9,33;3,89;9,33;3,89;0;0;
12002;-9,79;16,67;-9,79;16,67;9,42;4,24;9,42;4,24;0;0;
12021;-30,38;-4,79;-30,38;-4,79;9,06;4,73;9,06;4,73;0;0;
12036;-17,07;7;-17,07;7;9,66;4,53;9,66;4,53;0;0;
12053;-32,42;22,78;-32,42;22,78;9,62;4,26;9,62;4,26;0;0;
12068;-32,42;22,78;-32,42;22,78;10;4,31;10;4,31;0;0;
12087;-30,8;13,12;-30,8;13,12;10,25;3,88;10,25;3,88;0;0;
12103;-31,99;5,06;-31,99;5,06;10,08;3,9;10,08;3,9;0;0;
12119;-16,08;9,33;-16,08;9,33;9,43;3,62;9,43;3,62;0;0;
12135;-33,03;12,7;-33,03;12,7;8,55;3,82;8,55;3,82;0;0;
12153;-36,75;2,84;-36,75;2,84;8,36;3,71;8,36;3,71;0;0;
12168;-36,75;2,84;-36,75;2,84;8,28;3,51;8,28;3,51;0;0;
12184;-35,27;2,01;-35,27;2,01;8,55;4,12;8,55;4,12;0;0;
12201;-10,94;15,23;-10,94;15,23;9,49;4,17;9,49;4,17;0;0;
12217;-21,9;16,61;-21,9;16,61;9,07;4,23;9,07;4,23;0;0;
12235;-36,71;13,56;-36,71;13,56;9,43;4,37;9,43;4,37;0;0;
12253;-23,54;10,73;-23,54;10,73;8,84;5,13;8,84;5,13;0;0;
12271;-39,29;7,4;-39,29;7,4;8,85;4,96;8,85;4,96;0;0;
12287;-39,29;7,4;-39,29;7,4;9,35;4,23;9,35;4,23;0;0;
12303;-19,75;17,52;-19,75;17,52;8,64;4,33;8,64;4,33;0;0;
12321;-19,77;7,71;-19,77;7,71;8,33;4,43;8,33;4,43;0;0;
12338;-22,33;16;-22,33;16;8,14;4,38;8,14;4,38;0;0;
12355;-35,37;9,96;-35,37;9,96;8,02;4,72;8,02;4,72;0;0;
12372;-19,46;11,82;-19,46;11,82;7,35;5,41;7,35;5,41;0;0;
12388;-19,46;11,82;-19,46;11,82;7,21;5,79;7,21;5,79;0;0;
12404;-22,53;4,72;-22,53;4,72;8,25;5,74;8,25;5,74;0;0;
12421;-14,74;11,53;-14,74;11,53;8;5,22;8;5,22;0;0;
12438;-25,01;0,39;-25,01;0,39;8,42;5,31;8,42;5,31;0;0;
12456;-16,7;21,55;-16,7;21,55;8,8;5,11;8,8;5,11;0;0;
12472;-35,22;5,16;-35,22;5,16;9,23;4,63;9,23;4,63;0;0;
12495;-15,61;20,09;-15,61;20,09;9,31;4,63;9,31;4,63;0;0;
12510;-31,09;0,71;-31,09;0,71;8,56;4,56;8,56;4,56;0;0;
12527;-31,09;0,71;-31,09;0,71;8,09;4,43;8,09;4,43;0;0;
12544;-15,13;19,76;-15,13;19,76;7,73;4,08;7,73;4,08;0;0;
12563;-28,12;7,22;-28,12;7,22;7,82;3,86;7,82;3,86;1;0;
12578;-7,95;8,13;-7,95;8,13;8,53;3,46;8,53;3,46;1;0;
12594;-72,91;13,15;-72,91;13,15;10,61;3,39;10,61;3,39;1;0;
12610;-81,49;6,04;-81,49;6,04;15,13;3,69;15,13;3,69;1;0;
12627;-81,49;6,04;-81,49;6,04;19,63;4;19,63;4;1;0;
12645;-64,44;12,9;-64,44;12,9;31,12;3,78;31,12;3,78;1;0;
12661;-8,03;20,34;-8,03;20,34;32,66;4,76;32,66;4,76;1;0;
12678;-21,11;14,33;-21,11;14,33;32,54;5,01;32,54;5,01;1;0;
12696;-13,25;4,12;-13,25;4,12;30,32;5,32;30,32;5,32;1;0;
12712;213,3;17,52;213,3;17,52;36,56;5,38;36,56;5,38;1;0;
12728;213,3;17,52;213,3;17,52;39,32;5,53;39,32;5,53;1;0;
12745;63,39;3,94;63,39;3,94;48,46;5,49;48,46;5,49;1;0;
12762;15,2;17,95;15,2;17,95;56,15;5,38;56,15;5,38;1;0;
12780;-43,85;4,6;-43,85;4,6;58,5;5,43;58,5;5,43;0;0;
12803;-37,19;9,11;-37,19;9,11;58,28;4,74;58,28;4,74;0;0;
12821;-18,14;12,33;-18,14;12,33;47,64;4,81;47,64;4,81;0;0;
12839;-17,45;15,62;-17,45;15,62;26,09;4,39;26,09;4,39;0;0;
12857;-20,84;13,25;-20,84;13,25;16,65;4,33;16,65;4,33;0;0;
12875;-13,43;17,39;-13,43;17,39;9,29;4,38;9,29;4,38;0;0;
12892;-23,36;9,13;-23,36;9,13;8,92;4,63;8,92;4,63;0;0;
12909;27,33;4,15;27,33;4,15;10,98;5,3;10,98;5,3;0;0;
12924;27,33;4,15;27,33;4,15;12,52;5,36;12,52;5,36;0;0;
12940;-24,19;9,12;-24,19;9,12;13,49;5,37;13,49;5,37;0;0;
12958;-11,58;17,75;-11,58;17,75;12,73;5,25;12,73;5,25;0;0;
12974;-38,36;15,17;-38,36;15,17;13,19;5,19;13,19;5,19;0;0;
12990;-25,27;0,16;-25,27;0,16;12,76;5,29;12,76;5,29;0;0;
13006;-25,27;0,16;-25,27;0,16;11,48;5,28;11,48;5,28;0;0;
13022;-29,35;0,62;-29,35;0,62;10,45;5,11;10,45;5,11;0;0;
13041;-15,46;18,51;-15,46;18,51;9,61;5,28;9,61;5,28;0;0;
13058;-29,81;7,14;-29,81;7,14;9,17;5,28;9,17;5,28;0;0;
13074;-14,22;10,8;-14,22;10,8;9,32;4,7;9,32;4,7;0;0;
13091;-30,65;8,78;-30,65;8,78;8,8;4,48;8,8;4,48;0;0;
13106;-30,65;8,78;-30,65;8,78;7,98;4,52;7,98;4,52;0;0;
13122;-16,4;17,65;-16,4;17,65;8,12;4,38;8,12;4,38;0;0;
13138;-32,37;17,23;-32,37;17,23;8,2;4,42;8,2;4,42;0;0;
13156;-14,24;16,89;-14,24;16,89;8,03;4,84;8,03;4,84;0;0;
13172;-29,57;16,65;-29,57;16,65;7,4;5,47;7,4;5,47;0;0;
13191;-14,91;17,07;-14,91;17,07;7,64;5,74;7,64;5,74;0;0;
13206;-14,91;17,07;-14,91;17,07;8,04;5,97;8,04;5,97;0;0;
13224;-37,42;9,87;-37,42;9,87;8,3;6,3;8,3;6,3;0;0;
13240;-13,63;13,84;-13,63;13,84;9,02;5,8;9,02;5,8;0;0;
13259;-39,91;0,55;-39,91;0,55;9,8;5,51;9,8;5,51;0;0;
13275;-39,91;0,55;-39,91;0,55;10,92;5,26;10,92;5,26;0;0;
13292;-20,8;13,97;-20,8;13,97;10,59;4,79;10,59;4,79;0;0;
13310;-38,8;8,8;-38,8;8,8;10,2;4,11;10,2;4,11;1;0;
13326;-38,8;8,8;-38,8;8,8;10,34;3,8;10,34;3,8;1;0;
13344;-20,03;15,49;-20,03;15,49;8,95;3,7;8,95;3,7;1;0;
13361;-23,09;12,39;-23,09;12,39;8,7;3,98;8,7;3,98;1;0;
13377;-26,19;10,09;-26,19;10,09;8,13;4,43;8,13;4,43;1;0;
13394;-21,75;7,04;-21,75;7,04;9,2;4,52;9,2;4,52;1;0;
13412;29,11;20,23;29,11;20,23;26,65;5,2;26,65;5,2;1;0;
13429;97;3,48;97;3,48;39,11;5,44;39,11;5,44;1;0;
13447;97;3,48;97;3,48;51,54;5,95;51,54;5,95;1;0;
13465;-195,69;6,94;-195,69;6,94;62,61;5,67;62,61;5,67;0;0;
13484;-73,73;3,06;-73,73;3,06;73,01;5,97;73,01;5,97;0;0;
13502;-51,21;23,65;-51,21;23,65;71,93;6,16;71,93;6,16;0;0;
13520;-28,64;2,66;-28,64;2,66;55,55;5,72;55,55;5,72;0;0;
13537;-6,98;15;-6,98;15;43,36;5,58;43,36;5,58;0;0;
13555;-40,43;2,28;-40,43;2,28;33,24;5,53;33,24;5,53;0;0;
13571;-16,73;17,87;-16,73;17,87;16,39;5,25;16,39;5,25;0;0;
13589;-45,83;12,7;-45,83;12,7;11,17;5,29;11,17;5,29;0;0;
13605;-45,83;12,7;-45,83;12,7;8,11;5,23;8,11;5,23;0;0;
13622;-16,9;12,85;-16,9;12,85;11,67;5,49;11,67;5,49;0;0;
13640;-30,04;2,39;-30,04;2,39;10,42;5,41;10,42;5,41;0;0;
13659;-10,65;14,01;-10,65;14,01;11;5,16;11;5,16;0;0;
13673;-25,9;15,24;-25,9;15,24;10,98;4,97;10,98;4,97;0;0;
13690;-16,17;15,42;-16,17;15,42;10,85;5,34;10,85;5,34;0;0;
13708;-16,17;15,42;-16,17;15,42;10,62;5,6;10,62;5,6;0;0;
13725;-50,74;4,3;-50,74;4,3;9,62;5,3;9,62;5,3;0;0;
13742;-35,98;11,62;-35,98;11,62;12;5,17;12;5,17;0;0;
13760;-2,46;10,54;-2,46;10,54;13,7;5,78;13,7;5,78;0;0;
13777;-47,28;15,81;-47,28;15,81;15,33;5,53;15,33;5,53;0;0;
13795;-24,68;10,59;-24,68;10,59;14,85;5,63;14,85;5,63;0;0;
13813;-37,52;3,48;-37,52;3,48;14,87;5,52;14,87;5,52;0;0;
13829;-13,96;12,84;-13,96;12,84;11,82;6;11,82;6;0;0;
13845;-13,96;12,84;-13,96;12,84;10,99;6,55;10,99;6,55;0;0;
13861;-35,17;8,11;-35,17;8,11;9,8;6,38;9,8;6,38;0;0;
13877;-19,64;12,76;-19,64;12,76;9,55;5,91;9,55;5,91;0;0;
13893;-35,02;10,22;-35,02;10,22;9,6;5,94;9,6;5,94;0;0;
13908;-35,02;10,22;-35,02;10,22;10,14;5,83;10,14;5,83;0;0;
13932;-39,2;7,2;-39,2;7,2;9,97;4,9;9,97;4,9;0;0;
13948;-39,2;7,2;-39,2;7,2;7,89;4,93;7,89;4,93;0;0;
13964;-33,26;13,38;-33,26;13,38;7,75;4,83;7,75;4,83;0;0;
13980;-21,33;3,38;-21,33;3,38;8,69;4,6;8,69;4,6;0;0;
13997;-17,54;14,65;-17,54;14,65;7,7;5,26;7,7;5,26;0;0;
14015;-37,84;8,63;-37,84;8,63;8,51;5,47;8,51;5,47;0;0;
14033;-14,1;14,58;-14,1;14,58;7,99;5,57;7,99;5,57;0;0;
14049;-39,62;8,18;-39,62;8,18;7,97;5,69;7,97;5,69;0;0;
14065;-39,62;8,18;-39,62;8,18;8,64;5,42;8,64;5,42;0;0;
14081;-14,71;18,64;-14,71;18,64;8,14;4,34;8,14;4,34;0;0;
14097;-26,93;-0,67;-26,93;-0,67;8,16;4,33;8,16;4,33;0;0;
14114;-10,36;16,65;-10,36;16,65;8,59;4,49;8,59;4,49;0;0;
14130;-28,21;8,45;-28,21;8,45;8,44;4,36;8,44;4,36;0;0;
14149;-28,21;8,45;-28,21;8,45;8,61;4,13;8,61;4,13;0;0;
14165;-25,77;10,34;-25,77;10,34;9,14;4,19;9,14;4,19;0;0;
14181;-36,52;4,92;-36,52;4,92;9,25;4,03;9,25;4,03;0;0;
14196;-16,08;13,7;-16,08;13,7;8,87;4,12;8,87;4,12;0;0;
14213;-24,78;13,94;-24,78;13,94;8,1;4,24;8,1;4,24;0;0;
14236;-15,17;16,55;-15,17;16,55;7,66;5;7,66;5;0;0;
14259;-32,97;0,91;-32,97;0,91;7,5;5,29;7,5;5,29;0;0;
14278;-12,53;15,36;-12,53;15,36;7,5;5,71;7,5;5,71;0;0;
14300;-28,45;5,01;-28,45;5,01;7,97;5,79;7,97;5,79;0;0;
14321;-15,43;14,02;-15,43;14,02;8,39;5,85;8,39;5,85;0;0;
14340;-23,15;8,53;-23,15;8,53;8,72;5,08;8,72;5,08;0;0;
14362;-20,81;16,57;-20,81;16,57;8,96;4,58;8,96;4,58;0;0;
14383;-20,18;13,29;-20,18;13,29;7,76;4,5;7,76;4,5;0;0;
14405;-15,91;14,99;-15,91;14,99;9,02;4,63;9,02;4,63;0;0;
14426;-36,98;11,63;-36,98;11,63;8,46;4,06;8,46;4,06;0;0;
14445;-18,5;9,49;-18,5;9,49;8,16;4,17;8,16;4,17;0;0;
14466;-40,05;12,65;-40,05;12,65;9,1;4,34;9,1;4,34;0;0;
14484;-15,73;8,69;-15,73;8,69;10,28;4,25;10,28;4,25;0;0;
14500;-18,62;13,36;-18,62;13,36;10,62;4,72;10,62;4,72;0;0;
14515;-39,97;14,86;-39,97;14,86;9,94;4,66;9,94;4,66;0;0;
14531;-16,34;19,3;-16,34;19,3;10,34;5,29;10,34;5,29;0;0;
14546;-16,34;19,3;-16,34;19,3;8,97;5,77;8,97;5,77;0;0;
14565;-23,65;12,46;-23,65;12,46;9,93;5,7;9,93;5,7;0;0;
14582;-11,53;21,37;-11,53;21,37;8,8;5,34;8,8;5,34;0;0;
14597;-28,07;10,07;-28,07;10,07;8,45;5,23;8,45;5,23;0;0;
14613;-9,65;12,92;-9,65;12,92;8,76;4,62;8,76;4,62;0;0;
14631;-40,38;7,62;-40,38;7,62;9,28;3,97;9,28;3,97;0;0;
14649;-27,34;5,91;-27,34;5,91;9,8;4,12;9,8;4,12;0;0;
14664;-27,34;5,91;-27,34;5,91;9,72;4,4;9,72;4,4;0;0;
14679;-28,82;10,82;-28,82;10,82;9,98;4,32;9,98;4,32;0;0;
14696;-12,37;18;-12,37;18;9,78;4,42;9,78;4,42;0;0;
14713;-26,16;11,07;-26,16;11,07;9,48;5,04;9,48;5,04;0;0;
14729;-33,06;3,34;-33,06;3,34;9,82;5,62;9,82;5,62;0;0;
14745;-33,06;3,34;-33,06;3,34;9,58;5,96;9,58;5,96;0;0;
14763;-31,66;0,22;-31,66;0,22;9,26;5,81;9,26;5,81;0;0;
14779;-13,03;11,23;-13,03;11,23;9,59;6,04;9,59;6,04;0;0;
14796;-24,53;16,36;-24,53;16,36;9,38;5,37;9,38;5,37;0;0;
14813;-11,68;15,29;-11,68;15,29;9,82;5,13;9,82;5,13;0;0;
14830;-19,34;23,47;-19,34;23,47;9,23;4,57;9,23;4,57;0;0;
14845;-19,34;23,47;-19,34;23,47;8,57;4,3;8,57;4,3;0;0;
14863;-22,37;18,61;-22,37;18,61;8,65;4,09;8,65;4,09;0;0;
14882;-40,88;8,85;-40,88;8,85;8,59;4,53;8,59;4,53;0;0;
14898;-13,48;9,4;-13,48;9,4;9,49;4,19;9,49;4,19;0;0;
14913;-18,07;8,86;-18,07;8,86;9,11;4,15;9,11;4,15;0;0;
14929;-40,54;10,83;-40,54;10,83;9,56;4,32;9,56;4,32;0;0;
14946;-40,54;10,83;-40,54;10,83;10,05;4,45;10,05;4,45;0;0;
14963;-19,67;20,17;-19,67;20,17;8,4;4,47;8,4;4,47;0;0;
14980;-19,26;11,51;-19,26;11,51;8,62;4,48;8,62;4,48;0;0;
14996;-23,18;17,61;-23,18;17,61;7,35;4,41;7,35;4,41;0;0;
15013;-31,93;6,9;-31,93;6,9;7,04;4,69;7,04;4,69;0;0;
15030;-18,72;21,95;-18,72;21,95;6,56;5,16;6,56;5,16;0;0;
15046;-18,72;21,95;-18,72;21,95;6,8;5,47;6,8;5,47;0;0;
15063;-25,35;-2,05;-25,35;-2,05;7,77;5,41;7,77;5,41;0;0;
15080;-16,92;24,14;-16,92;24,14;7,36;5,77;7,36;5,77;0;0;
15098;-22,89;9,77;-22,89;9,77;7,55;6,45;7,55;6,45;0;0;
15113;-11,74;10,34;-11,74;10,34;8,11;5,95;8,11;5,95;0;0;
15130;-38,66;11,78;-38,66;11,78;8,65;5,14;8,65;5,14;0;0;
15147;-38,66;11,78;-38,66;11,78;9,14;4,76;9,14;4,76;0;0;
15164;-34,08;9,8;-34,08;9,8;9,22;4,32;9,22;4,32;0;0;
15180;-28,65;4,33;-28,65;4,33;9,57;3,79;9,57;3,79;0;0;
15199;-16,26;14,46;-16,26;14,46;9,1;3,08;9,1;3,08;0;0;
15215;-34,96;5,17;-34,96;5,17;8,38;3,37;8,38;3,37;0;0;
15231;-17,43;11,87;-17,43;11,87;7,8;4,07;7,8;4,07;0;0;
15248;-17,43;11,87;-17,43;11,87;7,2;4,76;7,2;4,76;0;0;
15264;-34,75;7,76;-34,75;7,76;7,34;5,38;7,34;5,38;0;0;
15280;-9,52;14,3;-9,52;14,3;7,86;5,4;7,86;5,4;0;0;
15297;-28,79;17,34;-28,79;17,34;7,84;5,7;7,84;5,7;0;0;
15314;-33,53;4,73;-33,53;4,73;8,35;5,38;8,35;5,38;0;0;
15330;-22,71;16,44;-22,71;16,44;8,85;4,52;8,85;4,52;0;0;
15345;-22,71;16,44;-22,71;16,44;9,03;3,86;9,03;3,86;0;0;
15363;-15,21;17,12;-15,21;17,12;9,58;4,24;9,58;4,24;0;0;
15378;-28,72;20,57;-28,72;20,57;8,37;4,18;8,37;4,18;0;0;
15398;-19,06;1,13;-19,06;1,13;8,83;4,01;8,83;4,01;0;0;
15416;-27,14;13,04;-27,14;13,04;8,05;4,57;8,05;4,57;0;0;
15432;-36,64;1,61;-36,64;1,61;7,89;5,2;7,89;5,2;0;0;
15447;-36,64;1,61;-36,64;1,61;8,11;5,54;8,11;5,54;0;0;
15463;-23,45;16,91;-23,45;16,91;7,27;5,02;7,27;5,02;0;0;
15479;-37,41;4,56;-37,41;4,56;7,77;5,55;7,77;5,55;0;0;
15496;-22,26;16,31;-22,26;16,31;6,67;5,38;6,67;5,38;0;0;
15512;-37,42;7,98;-37,42;7,98;6,93;5,32;6,93;5,32;0;0;
15528;-37,42;7,98;-37,42;7,98;7,07;4,92;7,07;4,92;0;0;
15544;-18,25;16,74;-18,25;16,74;6,85;4,84;6,85;4,84;0;0;
15560;-22,29;2,94;-22,29;2,94;7,43;4,91;7,43;4,91;0;0;
15576;-20,62;18,28;-20,62;18,28;7,78;4,5;7,78;4,5;0;0;
15593;-40;14,12;-40;14,12;7,88;4,32;7,88;4,32;0;0;
15610;-24,47;6,11;-24,47;6,11;8,17;4,19;8,17;4,19;0;0;
15628;-24,47;6,11;-24,47;6,11;9,37;3,77;9,37;3,77;0;0;
15644;-26,66;9,67;-26,66;9,67;9,86;3,94;9,86;3,94;1;0;
15662;-6,35;17,74;-6,35;17,74;9,45;3,88;9,45;3,88;1;0;
15680;-29,88;5,34;-29,88;5,34;9,36;4;9,36;4;1;0;
15696;-12,99;17,24;-12,99;17,24;9,46;4,18;9,46;4,18;1;0;
15713;-35,04;16,5;-35,04;16,5;9,11;4,45;9,11;4,45;1;0;
15730;-14,04;9,83;-14,04;9,83;8,82;4,9;8,82;4,9;1;0;
15747;-14,04;9,83;-14,04;9,83;8,74;5,11;8,74;5,11;1;0;
15764;21,38;1,22;21,38;1,22;21,46;5,3;21,46;5,3;1;0;
15781;-36,08;13,18;-36,08;13,18;30,6;5,44;30,6;5,44;1;0;
15797;-215,63;3,43;-215,63;3,43;40,23;5,4;40,23;5,4;1;0;
15814;45,9;8,1;45,9;8,1;55,14;5,1;55,14;5,1;1;0;
15834;-44,26;16,16;-44,26;16,16;60,74;4,88;60,74;4,88;0;0;
15856;-25,99;8,07;-25,99;8,07;61,71;4,6;61,71;4,6;0;0;
15874;5,51;13,11;5,51;13,11;53,22;4,29;53,22;4,29;0;0;
15892;-14,58;12,97;-14,58;12,97;42,26;4,23;42,26;4,23;0;0;
15908;-14,58;12,97;-14,58;12,97;31,19;4,28;31,19;4,28;0;0;
15923;-39,19;9,11;-39,19;9,11;22,34;4;22,34;4;0;0;
15939;-11,87;19,23;-11,87;19,23;16,12;4,3;16,12;4,3;0;0;
15956;-24,39;11,92;-24,39;11,92;12,14;4,23;12,14;4,23;0;0;
15973;-64,23;3,95;-64,23;3,95;10,51;3,91;10,51;3,91;0;0;
15990;-78,71;17,7;-78,71;17,7;15,83;4,12;15,83;4,12;0;0;
16007;-78,71;17,7;-78,71;17,7;20,54;4,25;20,54;4,25;0;0;
16024;-26,76;13,66;-26,76;13,66;21,12;4,41;21,12;4,41;0;0;
16042;-15,59;8,83;-15,59;8,83;20,06;3,93;20,06;3,93;0;0;
16059;-24,18;8,74;-24,18;8,74;20,67;4,22;20,67;4,22;0;0;
16075;-24,39;21,21;-24,39;21,21;17,65;4,43;17,65;4,43;0;0;
16093;-31,81;7,04;-31,81;7,04;11,69;4,71;11,69;4,71;0;0;
16108;-31,81;7,04;-31,81;7,04;7,79;5,18;7,79;5,18;0;0;
16126;-52,54;11,67;-52,54;11,67;10,91;5,01;10,91;5,01;0;0;
16144;-25,83;6,47;-25,83;6,47;10,8;5,21;10,8;5,21;0;0;
16161;-7,51;14,36;-7,51;14,36;10,54;5,1;10,54;5,1;0;0;
16178;-41,83;8,47;-41,83;8,47;11,11;5,23;11,11;5,23;0;0;
16196;-15,19;15,47;-15,19;15,47;10,97;4,51;10,97;4,51;0;0;
16213;-33,77;14,51;-33,77;14,51;10,51;4,79;10,51;4,79;0;0;
16231;-5,58;18,8;-5,58;18,8;9,01;4,74;9,01;4,74;0;0;
16247;-5,58;18,8;-5,58;18,8;9,11;4,55;9,11;4,55;0;0;
16263;-30,04;5,75;-30,04;5,75;8,77;4,77;8,77;4,77;0;0;
16280;-14,1;11,21;-14,1;11,21;8,91;4,41;8,91;4,41;0;0;
16300;-29,37;7,37;-29,37;7,37;8,98;4,64;8,98;4,64;0;0;
16317;-11,56;11,03;-11,56;11,03;9,66;4,32;9,66;4,32;0;0;
16336;-27,74;12,74;-27,74;12,74;9,78;4,69;9,78;4,69;0;0;
16353;-15,14;16,23;-15,14;16,23;9,64;4,43;9,64;4,43;0;0;
16371;-29,98;15,28;-29,98;15,28;9,26;4,4;9,26;4,4;0;0;
16387;-29,98;15,28;-29,98;15,28;8,76;3,98;8,76;3,98;0;0;
16406;-28,61;6,5;-28,61;6,5;8,26;3,79;8,26;3,79;0;0;
16422;-40,36;8,27;-40,36;8,27;7,76;3,94;7,76;3,94;0;0;
16440;-12,9;12,69;-12,9;12,69;8,47;3,58;8,47;3,58;0;0;
16457;-21,19;14,84;-21,19;14,84;7,65;3,98;7,65;3,98;0;0;
16477;-17,88;17,26;-17,88;17,26;8,11;4,16;8,11;4,16;0;0;
16494;-26,13;12,72;-26,13;12,72;7,71;4,3;7,71;4,3;0;0;
16511;-39,18;5,96;-39,18;5,96;7,91;4,23;7,91;4,23;0;0;
16527;-39,18;5,96;-39,18;5,96;8,48;4;8,48;4;0;0;
16543;-24,52;13,16;-24,52;13,16;7,29;3,8;7,29;3,8;0;0;
16561;-21,09;12,11;-21,09;12,11;7,96;4,03;7,96;4,03;0;0;
16578;-17,96;10,77;-17,96;10,77;7,29;4,13;7,29;4,13;0;0;
16594;-42,14;8,23;-42,14;8,23;8,21;4,31;8,21;4,31;0;0;
16610;-18,83;15,27;-18,83;15,27;8,01;4,19;8,01;4,19;0;0;
16628;-18,83;15,27;-18,83;15,27;8,38;3,9;8,38;3,9;0;0;
16644;-24,55;12,36;-24,55;12,36;9,85;4,35;9,85;4,35;0;0;
16662;-12,77;5,88;-12,77;5,88;9,79;3,76;9,79;3,76;0;0;
16679;-36,28;13,36;-36,28;13,36;9,26;3,91;9,26;3,91;0;0;
16695;-8,48;16,79;-8,48;16,79;9,25;3,86;9,25;3,86;0;0;
16713;-34,77;9,57;-34,77;9,57;9,48;4,02;9,48;4,02;0;0;
16730;-30,98;0,47;-30,98;0,47;9,46;3,91;9,46;3,91;0;0;
16746;-30,98;0,47;-30,98;0,47;8,82;3,73;8,82;3,73;0;0;
16762;-28,11;1;-28,11;1;8,11;3,86;8,11;3,86;0;0;
16802;-31,63;-1,25;-31,63;-1,25;8,97;4,25;8,97;4,25;0;0;
16821;-16,54;17,22;-16,54;17,22;8,36;4,92;8,36;4,92;0;0;
16839;-31,93;8,09;-31,93;8,09;8,96;5,15;8,96;5,15;0;0;
16856;-13,28;12,7;-13,28;12,7;9,1;5,28;9,1;5,28;0;0;
16879;-30,66;7;-30,66;7;8,86;5,24;8,86;5,24;0;0;
16898;-19,14;9,76;-19,14;9,76;8,8;5,6;8,8;5,6;0;0;
16916;-24,95;7,37;-24,95;7,37;8,53;4,93;8,53;4,93;0;0;
16932;-17,28;8,63;-17,28;8,63;8;4,91;8;4,91;0;0;
16950;-21,73;12,37;-21,73;12,37;7,89;4,97;7,89;4,97;0;0;
16969;-35,33;2,27;-35,33;2,27;7,77;4,96;7,77;4,96;0;0;
16985;-35,33;2,27;-35,33;2,27;8,73;4,7;8,73;4,7;0;0;
16999;-24,47;11,49;-24,47;11,49;8,29;4,03;8,29;4,03;0;0;
17017;-21,44;14,04;-21,44;14,04;9,36;4,03;9,36;4,03;0;0;
17032;-22,28;17;-22,28;17;8,86;3,94;8,86;3,94;0;0;
17049;-31,73;-1,75;-31,73;-1,75;8,65;4,11;8,65;4,11;0;0;
17067;-31,73;-1,75;-31,73;-1,75;8,32;4,34;8,32;4,34;0;0;
17087;-40,34;11,51;-40,34;11,51;8,53;4,12;8,53;4,12;0;0;
17104;-27,28;-0,52;-27,28;-0,52;8,91;4,39;8,91;4,39;0;0;
17120;-13,79;7,5;-13,79;7,5;8,13;4,64;8,13;4,64;0;0;
17135;-34,27;6,9;-34,27;6,9;8,27;4,29;8,27;4,29;0;0;
17152;-20,64;20,99;-20,64;20,99;7,44;4,24;7,44;4,24;0;0;
17170;-38,93;9,22;-38,93;9,22;7,39;4,52;7,39;4,52;0;0;
17185;-38,93;9,22;-38,93;9,22;7,8;5,01;7,8;5,01;0;0;
17201;-15,89;18,82;-15,89;18,82;7,24;5,23;7,24;5,23;0;0;
17218;-34,32;7,05;-34,32;7,05;6,85;5,5;6,85;5,5;0;0;
17234;-10,93;12,44;-10,93;12,44;7,5;5,45;7,5;5,45;0;0;
17251;-37,47;20,09;-37,47;20,09;7,6;5,21;7,6;5,21;0;0;
17268;-37,47;20,09;-37,47;20,09;7,67;4,84;7,67;4,84;0;0;
17284;-32,02;5,59;-32,02;5,59;8,26;4,07;8,26;4,07;0;0;
17299;-34,03;-1,5;-34,03;-1,5;8,52;4,11;8,52;4,11;0;0;
17317;-10,21;14,16;-10,21;14,16;8,32;4,13;8,32;4,13;0;0;
17333;-33,51;13,47;-33,51;13,47;7,82;4,08;7,82;4,08;0;0;
17349;-32,67;9,46;-32,67;9,46;8,06;4,34;8,06;4,34;0;0;
17365;-32,67;9,46;-32,67;9,46;8,21;4,7;8,21;4,7;0;0;
17383;-34,74;1,55;-34,74;1,55;8,77;4,94;8,77;4,94;0;0;
17398;-10,33;11,16;-10,33;11,16;9,01;4,36;9,01;4,36;0;0;
17415;-23,82;12,26;-23,82;12,26;8,54;4,39;8,54;4,39;0;0;
17432;-12,28;13,37;-12,28;13,37;9,18;4,62;9,18;4,62;0;0;
17448;-24,45;13,24;-24,45;13,24;8,55;4,48;8,55;4,48;0;0;
17465;-24,45;13,24;-24,45;13,24;7,68;4,58;7,68;4,58;0;0;
17482;-11,76;9,54;-11,76;9,54;8,19;4,86;8,19;4,86;0;0;
17498;-34,15;13,34;-34,15;13,34;8,23;4,85;8,23;4,85;0;0;
17516;-23,92;2,82;-23,92;2,82;8,91;5,19;8,91;5,19;0;0;
17532;-22,77;16,76;-22,77;16,76;7,75;5,32;7,75;5,32;0;0;
17550;-37,13;9,26;-37,13;9,26;8,31;5,34;8,31;5,34;0;0;
17564;-37,13;9,26;-37,13;9,26;8,77;5,63;8,77;5,63;0;0;
17580;-37,93;11,29;-37,93;11,29;7,91;5,4;7,91;5,4;1;0;
17597;-26,42;8,3;-26,42;8,3;8,85;5,28;8,85;5,28;1;0;
17614;-18,24;11,24;-18,24;11,24;8,36;4,12;8,36;4,12;1;0;
17631;-36,91;10,77;-36,91;10,77;8,68;4,04;8,68;4,04;1;0;
17647;-36,91;10,77;-36,91;10,77;8,82;4,08;8,82;4,08;1;0;
17663;-52,22;12,64;-52,22;12,64;9,53;4,27;9,53;4,27;1;0;
17680;36,2;5,92;36,2;5,92;15,47;4,32;15,47;4,32;1;0;
17698;-126,01;13,82;-126,01;13,82;33,18;4,38;33,18;4,38;1;0;
17715;-0,55;12,11;-0,55;12,11;50,22;4,63;50,22;4,63;1;0;
17733;4,1;15,97;4,1;15,97;62,39;4,44;62,39;4,44;1;0;
17755;-116,98;12,75;-116,98;12,75;69,18;4,16;69,18;4,16;0;0;
17775;20,73;16,03;20,73;16,03;68,22;4,45;68,22;4,45;0;0;
17794;13;4,59;13;4,59;62,83;4,7;62,83;4,7;0;0;
17809;-39,86;13,39;-39,86;13,39;42,63;4,77;42,63;4,77;0;0;
17827;-39,86;13,39;-39,86;13,39;31,07;4,47;31,07;4,47;0;0;
17843;-29,11;5,42;-29,11;5,42;20,92;4,38;20,92;4,38;0;0;
17861;-19,13;15,19;-19,13;15,19;17,32;3,94;17,32;3,94;0;0;
17877;-31,34;7,91;-31,34;7,91;14,16;3,76;14,16;3,76;0;0;
17898;-19,77;21,8;-19,77;21,8;14,72;4,23;14,72;4,23;0;0;
17917;-37,41;6,52;-37,41;6,52;13,86;4,24;13,86;4,24;0;0;
17934;-9,92;7,39;-9,92;7,39;13,84;4,47;13,84;4,47;0;0;
17950;-29,21;15,09;-29,21;15,09;13,75;4,32;13,75;4,32;0;0;
17966;-29,21;15,09;-29,21;15,09;13,82;4,17;13,82;4,17;0;0;
17984;-13,59;13,37;-13,59;13,37;11,92;4,43;11,92;4,43;0;0;
18001;57,88;9,62;57,88;9,62;13,19;3,94;13,19;3,94;0;0;
18021;-41,62;11,06;-41,62;11,06;15,33;3,73;15,33;3,73;0;0;
18038;-41,03;3,68;-41,03;3,68;14,53;3,61;14,53;3,61;0;0;
18054;-15,17;9,55;-15,17;9,55;14,86;4,41;14,86;4,41;0;0;
18072;-18,92;15,7;-18,92;15,7;14,66;3,97;14,66;3,97;0;0;
18089;-33,31;8,7;-33,31;8,7;14,27;3,74;14,27;3,74;0;0;
18106;-33,31;8,7;-33,31;8,7;10,25;4,04;10,25;4,04;0;0;
18124;-18,32;-1,93;-18,32;-1,93;13,49;5,03;13,49;5,03;0;0;
18139;-32,65;11,1;-32,65;11,1;14,81;5,36;14,81;5,36;0;0;
18158;-14,66;12,09;-14,66;12,09;14,05;5,59;14,05;5,59;0;0;
18175;-38;8,82;-38;8,82;13,9;5,61;13,9;5,61;0;0;
18192;-23,98;14,36;-23,98;14,36;13,37;5,54;13,37;5,54;0;0;
18206;-23,98;14,36;-23,98;14,36;8,84;5,4;8,84;5,4;0;0;
18224;-23,29;3,94;-23,29;3,94;8,62;4,77;8,62;4,77;0;0;
18239;-16,7;22,16;-16,7;22,16;7,53;4,56;7,53;4,56;0;0;
18257;-40,04;6,97;-40,04;6,97;7,11;4,81;7,11;4,81;0;0;
18272;-16,43;16,12;-16,43;16,12;7,61;4,71;7,61;4,71;0;0;
18289;-16,43;16,12;-16,43;16,12;7,99;4,76;7,99;4,76;0;0;
18310;-28,73;5,31;-28,73;5,31;8,77;5,02;8,77;5,02;0;0;
18326;-28,73;5,31;-28,73;5,31;8,58;4,87;8,58;4,87;0;0;
18342;-30,15;14,11;-30,15;14,11;8,47;4,46;8,47;4,46;0;0;
18360;-12,1;20,46;-12,1;20,46;8,67;4,11;8,67;4,11;0;0;
18376;-30;14,88;-30;14,88;8,76;4,02;8,76;4,02;0;0;
18395;-15,88;17,67;-15,88;17,67;9,17;4,33;9,17;4,33;0;0;
18411;-26,64;12,66;-26,64;12,66;8,62;4,49;8,62;4,49;0;0;
18426;-26,64;12,66;-26,64;12,66;7,91;4,77;7,91;4,77;0;0;
18443;-11,89;10,46;-11,89;10,46;8,07;5,09;8,07;5,09;0;0;
18459;-32,32;3,2;-32,32;3,2;8,22;5,13;8,22;5,13;0;0;
18475;-16,03;11,53;-16,03;11,53;8,58;4,9;8,58;4,9;0;0;
18492;-23,71;12,06;-23,71;12,06;7,55;4,46;7,55;4,46;0;0;
18509;-35,02;0,38;-35,02;0,38;8,26;4,4;8,26;4,4;0;0;
18527;-35,02;0,38;-35,02;0,38;9,2;4,5;9,2;4,5;0;0;
18542;-36,02;6,27;-36,02;6,27;8,66;4,32;8,66;4,32;0;0;
18560;-16,08;9,83;-16,08;9,83;9,27;4,26;9,27;4,26;0;0;
18575;-23,96;19,3;-23,96;19,3;9,09;4,47;9,09;4,47;0;0;
18591;-17,09;7,34;-17,09;7,34;9,42;4,79;9,42;4,79;0;0;
18606;-17,09;7,34;-17,09;7,34;9,53;4,68;9,53;4,68;0;0;
18623;-33,42;6,32;-33,42;6,32;9,52;4,71;9,52;4,71;0;0;
18640;-20,64;5,41;-20,64;5,41;10,28;4,44;10,28;4,44;0;0;
18657;-19,61;17,79;-19,61;17,79;9,88;4,23;9,88;4,23;0;0;
18675;-36,92;6,57;-36,92;6,57;10,44;4,41;10,44;4,41;0;0;
18693;-15,1;16,84;-15,1;16,84;9,94;4,53;9,94;4,53;0;0;
18712;-39,37;5,61;-39,37;5,61;8,81;4,09;8,81;4,09;0;0;
18729;-24,72;5,54;-24,72;5,54;9,5;4,12;9,5;4,12;0;0;
18745;-24,72;5,54;-24,72;5,54;8,95;4,22;8,95;4,22;0;0;
18762;-24,68;4,67;-24,68;4,67;8,74;4,15;8,74;4,15;0;0;
18778;-13,2;20,7;-13,2;20,7;9,15;4,13;9,15;4,13;0;0;
18795;-41,89;10,45;-41,89;10,45;8,73;4,21;8,73;4,21;0;0;
18813;-27,37;2,75;-27,37;2,75;9,44;4,32;9,44;4,32;0;0;
18830;-36,2;13,55;-36,2;13,55;9,24;4,08;9,24;4,08;0;0;
18845;-36,2;13,55;-36,2;13,55;9,09;3,81;9,09;3,81;0;0;
18861;-11,57;15,65;-11,57;15,65;8,8;3,45;8,8;3,45;0;0;
18878;-34,71;17,53;-34,71;17,53;8,21;3,44;8,21;3,44;0;0;
18897;-16,91;15,38;-16,91;15,38;8,75;3,52;8,75;3,52;0;0;
18913;-32,25;7,35;-32,25;7,35;8,11;3,7;8,11;3,7;0;0;
18928;-32,25;7,35;-32,25;7,35;8,05;3,98;8,05;3,98;0;0;
18943;-13,72;13,33;-13,72;13,33;8,46;4,14;8,46;4,14;0;0;
18960;-32,22;8,14;-32,22;8,14;8,2;4,34;8,2;4,34;0;0;
18976;-8,13;10,89;-8,13;10,89;9,05;4,05;9,05;4,05;0;0;
18991;-27,17;17,68;-27,17;17,68;8,76;4,1;8,76;4,1;0;0;
19007;-27,17;17,68;-27,17;17,68;8,73;4,2;8,73;4,2;0;0;
19024;-21,91;13,04;-21,91;13,04;8,57;4,2;8,57;4,2;0;0;
19040;-38,67;11,53;-38,67;11,53;8,64;3,85;8,64;3,85;0;0;
19060;-19,82;13,26;-19,82;13,26;8,82;4,23;8,82;4,23;0;0;
19077;-19,21;14,63;-19,21;14,63;7,28;4,32;7,28;4,32;0;0;
19093;-15,13;11,4;-15,13;11,4;7,83;4,35;7,83;4,35;0;0;
19110;-24,51;11,71;-24,51;11,71;7,38;4,33;7,38;4,33;0;0;
19126;-24,51;11,71;-24,51;11,71;6,75;4,56;6,75;4,56;0;0;
19145;-16,56;10,89;-16,56;10,89;7,74;4,77;7,74;4,77;0;0;
19162;-22,41;19,16;-22,41;19,16;7,66;4,28;7,66;4,28;0;0;
19178;-39,37;7,57;-39,37;7,57;8,53;5,04;8,53;5,04;0;0;
19194;-28,05;4,06;-28,05;4,06;7,48;4,52;7,48;4,52;0;0;
19213;-19,46;8,46;-19,46;8,46;8,65;4,29;8,65;4,29;0;0;
19230;-19,46;8,46;-19,46;8,46;9,63;4,08;9,63;4,08;0;0;
19248;-19,46;8,46;-19,46;8,46;9,3;4,01;9,3;4,01;0;0;
19266;-28,89;15,95;-28,89;15,95;8,58;3,58;8,58;3,58;0;0;
19283;-42,62;12,81;-42,62;12,81;9,76;3,39;9,76;3,39;0;0;
19299;-53,82;13,85;-53,82;13,85;10,83;3,22;10,83;3,22;0;0;
19313;94,57;25,36;94,57;25,36;19,75;4,09;19,75;4,09;0;0;
19330;-13,88;10,09;-13,88;10,09;30,11;4,59;30,11;4,59;1;0;
19345;-13,88;10,09;-13,88;10,09;40,66;5,01;40,66;5,01;1;0;
19364;55,73;16,6;55,73;16,6;52,28;5,12;52,28;5,12;1;0;
19384;-150,12;5,27;-150,12;5,27;61,73;5,41;61,73;5,41;0;0;
19405;-114,46;5,28;-114,46;5,28;67,17;5,4;67,17;5,4;0;0;
19422;27,37;8,52;27,37;8,52;61,19;4,78;61,19;4,78;0;0;
19437;32,19;20,26;32,19;20,26;64,19;4,53;64,19;4,53;0;0;
19455;-68,68;13,58;-68,68;13,58;60,93;4,37;60,93;4,37;0;0;
19475;-22,53;19,6;-22,53;19,6;47,09;4,68;47,09;4,68;0;0;
19494;-19,27;8,86;-19,27;8,86;36,76;5,12;36,76;5,12;0;0;
19510;-40,14;11,54;-40,14;11,54;31,36;5,31;31,36;5,31;0;0;
19526;-40,14;11,54;-40,14;11,54;25,76;5,56;25,76;5,56;0;0;
19541;-45,56;9,61;-45,56;9,61;15,71;5,06;15,71;5,06;0;0;
19557;-56,56;9,47;-56,56;9,47;15,3;4,55;15,3;4,55;0;0;
19575;-21,46;19,77;-21,46;19,77;18,38;4,05;18,38;4,05;0;0;
19591;-41,15;8,83;-41,15;8,83;19,32;3,71;19,32;3,71;0;0;
19606;-41,15;8,83;-41,15;8,83;19,94;3,2;19,94;3,2;0;0;
19624;-31,68;5,18;-31,68;5,18;16,75;3,09;16,75;3,09;0;0;
19640;-19;14,16;-19;14,16;14,67;3,31;14,67;3,31;0;0;
19658;-27,72;8,37;-27,72;8,37;12,09;3,62;12,09;3,62;0;0;
19675;8,05;1,35;8,05;1,35;13,33;3,74;13,33;3,74;0;0;
19691;-26,87;28,88;-26,87;28,88;12,87;5,1;12,87;5,1;0;0;
19707;-26,87;28,88;-26,87;28,88;12,33;6,4;12,33;6,4;0;0;
19723;-33,68;15,88;-33,68;15,88;15,06;6,29;15,06;6,29;0;0;
19743;-18,89;14,2;-18,89;14,2;14,27;6,11;14,27;6,11;0;0;
19761;-23,71;13,14;-23,71;13,14;13,85;6,44;13,85;6,44;0;0;
19777;-15,28;17,02;-15,28;17,02;10,86;6,01;10,86;6,01;0;0;
19792;-40,69;14,04;-40,69;14,04;10,54;4,83;10,54;4,83;0;0;
19811;-22,06;2,35;-22,06;2,35;11,22;4,17;11,22;4,17;0;0;
19828;-22,06;2,35;-22,06;2,35;10,02;3,9;10,02;3,9;0;0;
19846;-24,58;4,64;-24,58;4,64;10,07;3,57;10,07;3,57;0;0;
19864;-39,14;12,1;-39,14;12,1;10,3;3,01;10,3;3,01;0;0;
19883;-28,04;6,48;-28,04;6,48;9,89;3,05;9,89;3,05;0;0;
19902;-13,73;10,5;-13,73;10,5;10,06;3;10,06;3;0;0;
19919;-28,47;3,9;-28,47;3,9;9,34;3,5;9,34;3,5;0;0;
19938;-9,49;7,2;-9,49;7,2;8,84;4,08;8,84;4,08;0;0;
19957;-26,45;11,47;-26,45;11,47;8,04;4,36;8,04;4,36;0;0;
19977;-12,4;18,04;-12,4;18,04;8,53;4,47;8,53;4,47;0;0;
19993;-28,9;6,65;-28,9;6,65;8,15;4,72;8,15;4,72;0;0;
20009;-30,04;7,19;-30,04;7,19;8,04;4,61;8,04;4,61;0;0;
20025;-30,04;7,19;-30,04;7,19;8,01;3,69;8,01;3,69;0;0;
20041;-39,38;2,35;-39,38;2,35;7,74;4,17;7,74;4,17;0;0;
20057;-11,23;14,34;-11,23;14,34;8,18;4,53;8,18;4,53;0;0;
20072;-29,38;11,1;-29,38;11,1;7,83;4,34;7,83;4,34;0;0;
20090;-15,45;7,27;-15,45;7,27;8,43;4,18;8,43;4,18;0;0;
20107;-15,45;7,27;-15,45;7,27;8,78;4,44;8,78;4,44;0;0;
20124;-37,8;13,34;-37,8;13,34;8,59;4,27;8,59;4,27;0;0;
20139;-13,93;8,76;-13,93;8,76;9,77;3,25;9,77;3,25;0;0;
20156;-21,78;18,4;-21,78;18,4;8,72;3,73;8,72;3,73;0;0;
20172;-17,77;6,51;-17,77;6,51;9,25;3,59;9,25;3,59;0;0;
20188;-17,77;6,51;-17,77;6,51;9,21;3,51;9,21;3,51;0;0;
20203;-34,02;5,21;-34,02;5,21;8,6;3,48;8,6;3,48;0;0;
20223;-21,1;1,59;-21,1;1,59;8,98;3,8;8,98;3,8;0;0;
20237;-13,81;18,99;-13,81;18,99;7,72;3,89;7,72;3,89;0;0;
20255;-36,85;6,54;-36,85;6,54;8,55;4,35;8,55;4,35;0;0;
20270;-19,67;15,41;-19,67;15,41;8,19;4,67;8,19;4,67;0;0;
20290;-37,2;0,72;-37,2;0,72;7,45;5,03;7,45;5,03;0;0;
20305;-37,2;0,72;-37,2;0,72;8,05;5,41;8,05;5,41;0;0;
20321;-17,53;15,34;-17,53;15,34;8,07;5,05;8,07;5,05;0;0;
20338;-37,54;16,06;-37,54;16,06;7,55;4,91;7,55;4,91;0;0;
20356;-13,97;12,89;-13,97;12,89;7,92;4,37;7,92;4,37;0;0;
20375;-37,93;7,56;-37,93;7,56;7,53;4,3;7,53;4,3;0;0;
20392;-14,4;16,66;-14,4;16,66;7,34;3,99;7,34;3,99;0;0;
20408;-14,4;16,66;-14,4;16,66;7,83;3,5;7,83;3,5;0;0;
20424;-29,15;0,66;-29,15;0,66;7,32;3,85;7,32;3,85;0;0;
20439;-7,55;23,01;-7,55;23,01;7,74;5,03;7,74;5,03;0;0;
20455;-31,18;5,35;-31,18;5,35;7,69;5,53;7,69;5,53;0;0;
20472;-13,33;17,45;-13,33;17,45;7,69;5,35;7,69;5,35;0;0;
20489;-31,01;11,12;-31,01;11,12;7,8;5,74;7,8;5,74;0;0;
20504;-31,01;11,12;-31,01;11,12;8,13;5,93;8,13;5,93;0;0;
20521;-14,37;10,44;-14,37;10,44;8,1;5,27;8,1;5,27;0;0;
20541;-34,77;7,03;-34,77;7,03;7,81;4,44;7,81;4,44;0;0;
20560;-18,81;13,32;-18,81;13,32;8,45;4,32;8,45;4,32;0;0;
20575;-31,28;11,17;-31,28;11,17;7,78;4,61;7,78;4,61;0;0;
20591;-10,96;12,65;-10,96;12,65;7,85;4,41;7,85;4,41;0;0;
20608;-10,96;12,65;-10,96;12,65;8,49;4,12;8,49;4,12;0;0;
20626;-34,95;3,87;-34,95;3,87;8,45;4,74;8,45;4,74;0;0;
20642;-14,64;7,41;-14,64;7,41;8,77;5,18;8,77;5,18;0;0;
20660;-44,2;12,45;-44,2;12,45;9,16;5,17;9,16;5,17;0;0;
20676;-13,58;17,44;-13,58;17,44;9,96;4,75;9,96;4,75;0;0;
20695;-16,5;14,37;-16,5;14,37;9,59;4,69;9,59;4,69;0;0;
20711;-33,01;8,5;-33,01;8,5;8,65;4,69;8,65;4,69;0;0;
20729;-18,08;13,86;-18,08;13,86;8,31;4,58;8,31;4,58;0;0;
20748;-18,08;13,86;-18,08;13,86;6,55;4,51;6,55;4,51;0;0;
20764;-19,58;10,6;-19,58;10,6;7,11;4,55;7,11;4,55;0;0;
20780;-34,33;6,07;-34,33;6,07;7,54;4,62;7,54;4,62;0;0;
20796;-34,33;6,07;-34,33;6,07;8,2;4,53;8,2;4,53;0;0;
20813;-22,97;11,24;-22,97;11,24;9,22;3,96;9,22;3,96;0;0;
20832;-38,75;6,45;-38,75;6,45;10,03;3,74;10,03;3,74;0;0;
20849;-16,54;18,09;-16,54;18,09;10,41;3,92;10,41;3,92;0;0;
20866;-16,54;18,09;-16,54;18,09;8,99;3,87;8,99;3,87;0;0;
20884;-23,07;9,92;-23,07;9,92;8,94;3,91;8,94;3,91;0;0;
20900;-14,96;12,66;-14,96;12,66;8,89;3,83;8,89;3,83;0;0;
20916;-28,91;12,76;-28,91;12,76;8,22;4,13;8,22;4,13;0;0;
20932;-12,3;12,13;-12,3;12,13;8,66;3,87;8,66;3,87;0;0;
20949;-37,22;11,11;-37,22;11,11;8,98;3,63;8,98;3,63;0;0;
20964;-37,22;11,11;-37,22;11,11;9,12;3,69;9,12;3,69;0;0;
20979;-34,86;3,52;-34,86;3,52;8,99;3,94;8,99;3,94;0;0;
20996;-30,55;7,61;-30,55;7,61;9,18;3,92;9,18;3,92;0;0;
21014;-30,55;7,61;-30,55;7,61;9,28;3,72;9,28;3,72;0;0;
21033;-28,91;11,74;-28,91;11,74;8,28;3,79;8,28;3,79;0;0;
21048;-28,91;11,74;-28,91;11,74;7,72;3,89;7,72;3,89;0;0;
21064;-14,61;14,04;-14,61;14,04;7,98;4,37;7,98;4,37;0;0;
21079;-26,77;16,51;-26,77;16,51;7,92;4,84;7,92;4,84;0;0;
21097;-17,62;19,24;-17,62;19,24;7,89;5,31;7,89;5,31;0;0;
21114;-22,95;10,04;-22,95;10,04;7,11;5,1;7,11;5,1;0;0;
21133;-19,72;6,72;-19,72;6,72;7,68;5,13;7,68;5,13;0;0;
21149;-33,05;20,06;-33,05;20,06;8,47;4,92;8,47;4,92;0;0;
21165;-33,05;20,06;-33,05;20,06;8,25;4,21;8,25;4,21;0;0;
21187;-80,38;22,23;-80,38;22,23;15,64;4,15;15,64;4,15;0;0;
21204;-84,43;7,42;-84,43;7,42;23,27;4;23,27;4;1;0;
21222;-76,99;13,63;-76,99;13,63;31,98;4,66;31,98;4,66;1;0;
21237;2,79;18,7;2,79;18,7;37,29;5,11;37,29;5,11;1;0;
21254;-68,77;12,1;-68,77;12,1;55,9;5,23;55,9;5,23;1;0;
21272;-17,76;13,2;-17,76;13,2;72,58;4,85;72,58;4,85;0;0;
21292;-51,08;4,6;-51,08;4,6;73,31;4,69;73,31;4,69;0;0;
21308;-51,08;4,6;-51,08;4,6;73,05;4,78;73,05;4,78;0;0;
21324;-36,81;2,92;-36,81;2,92;65,99;4,97;65,99;4,97;0;0;
21340;-18,31;10,55;-18,31;10,55;57,27;5,07;57,27;5,07;0;0;
21363;-30,8;13,89;-30,8;13,89;31;5,16;31;5,16;0;0;
21379;-24,92;16,24;-24,92;16,24;20,58;5,39;20,58;5,39;0;0;
21397;-13,02;14,27;-13,02;14,27;13,03;5,25;13,03;5,25;0;0;
21414;-42,06;11,63;-42,06;11,63;12,2;4,98;12,2;4,98;0;0;
21433;-27,91;17,8;-27,91;17,8;21,85;4,99;21,85;4,99;0;0;
21449;-33,41;12,12;-33,41;12,12;24,19;4,49;24,19;4,49;0;0;
21465;-33,41;12,12;-33,41;12,12;27,73;4,4;27,73;4,4;0;0;
21480;-38,58;11,1;-38,58;11,1;27,84;4,33;27,84;4,33;0;0;
21497;-38,58;11,1;-38,58;11,1;27,93;4,17;27,93;4,17;0;0;
21514;-13,73;11,16;-13,73;11,16;21,02;3,87;21,02;3,87;0;0;
21531;-1,8;6,17;-1,8;6,17;15,85;3,57;15,85;3,57;0;0;
21547;-1,8;6,17;-1,8;6,17;13,61;3,52;13,61;3,52;0;0;
21565;-35,88;8,32;-35,88;8,32;12,26;3,61;12,26;3,61;0;0;
21581;-36,99;6,65;-36,99;6,65;13,4;3,33;13,4;3,33;0;0;
21598;-11,38;17,38;-11,38;17,38;14,35;3,25;14,35;3,25;0;0;
21614;-23,76;9,62;-23,76;9,62;14,17;3,61;14,17;3,61;0;0;
21634;38,52;18,31;38,52;18,31;14,86;3,92;14,86;3,92;0;0;
21650;-24,45;11,33;-24,45;11,33;16,6;3,75;16,6;3,75;0;0;
21665;-24,45;11,33;-24,45;11,33;17,33;3,42;17,33;3,42;0;0;
21681;-14,03;17,6;-14,03;17,6;17;3,79;17;3,79;0;0;
21697;-34,06;2,19;-34,06;2,19;16,98;3,43;16,98;3,43;0;0;
21715;-14,95;11,6;-14,95;11,6;17,37;3,46;17,37;3,46;0;0;
21732;-25,22;12,24;-25,22;12,24;13,37;3,61;13,37;3,61;0;0;
21751;-17,67;12,79;-17,67;12,79;10,5;4,2;10,5;4,2;0;0;
21767;-17,67;12,79;-17,67;12,79;9,23;4,71;9,23;4,71;0;0;
21785;-39,49;-1,57;-39,49;-1,57;9,04;4,92;9,04;4,92;0;0;
21800;-21,15;11,1;-21,15;11,1;9,93;5,1;9,93;5,1;0;0;
21817;-31,96;-1,93;-31,96;-1,93;9,36;5,25;9,36;5,25;0;0;
21834;-23,47;6,97;-23,47;6,97;10,12;5,19;10,12;5,19;0;0;
21850;-14,7;17,99;-14,7;17,99;9,39;5,34;9,39;5,34;0;0;
21866;-14,7;17,99;-14,7;17,99;7,92;5,62;7,92;5,62;0;0;
21882;-22,21;8,73;-22,21;8,73;8,69;5,46;8,69;5,46;0;0;
21898;-14,68;16,3;-14,68;16,3;7,33;5,17;7,33;5,17;0;0;
21915;-26,59;3,08;-26,59;3,08;8,67;4,87;8,67;4,87;0;0;
21931;-16,16;13,63;-16,16;13,63;8,02;5,36;8,02;5,36;0;0;
21946;-16,16;13,63;-16,16;13,63;8,1;5,15;8,1;5,15;0;0;
21962;-28,05;6,03;-28,05;6,03;8,56;4,08;8,56;4,08;0;0;
21979;-35,49;9,6;-35,49;9,6;8,56;4,02;8,56;4,02;0;0;
21997;-33,32;9,72;-33,32;9,72;8,91;3,82;8,91;3,82;0;0;
22013;-12,52;15,37;-12,52;15,37;8,55;3,49;8,55;3,49;0;0;
22032;-31,09;14,93;-31,09;14,93;8,48;3;8,48;3;0;0;
22050;-15,05;14,92;-15,05;14,92;8,68;3,47;8,68;3,47;0;0;
22065;-15,05;14,92;-15,05;14,92;7,91;3,8;7,91;3,8;0;0;
22081;-30,03;-4,72;-30,03;-4,72;8,63;4,62;8,63;4,62;0;0;
22098;-12,14;13,63;-12,14;13,63;8,58;5,03;8,58;5,03;0;0;
22114;-32,54;11,07;-32,54;11,07;8,01;5,23;8,01;5,23;0;0;
22130;-13,18;2,48;-13,18;2,48;8,76;4,99;8,76;4,99;0;0;
22146;-13,18;2,48;-13,18;2,48;8,85;4,58;8,85;4,58;0;0;
22164;-36,47;5,55;-36,47;5,55;8,7;4,27;8,7;4,27;0;0;
22180;-18,91;17,12;-18,91;17,12;8,78;3,85;8,78;3,85;0;0;
22196;-25,88;11,4;-25,88;11,4;8,14;4,07;8,14;4,07;0;0;
22213;-14,82;12,99;-14,82;12,99;8,9;3,92;8,9;3,92;0;0;
22230;-22,57;10,9;-22,57;10,9;8,42;3,95;8,42;3,95;0;0;
22246;-22,57;10,9;-22,57;10,9;7,14;3,95;7,14;3,95;0;0;
22262;-17,55;16,4;-17,55;16,4;8,03;3,9;8,03;3,9;0;0;
22278;-24,95;18,17;-24,95;18,17;7,33;3,54;7,33;3,54;0;0;
22294;-16,3;13,01;-16,3;13,01;7,98;4,16;7,98;4,16;0;0;
22309;-19,96;11,54;-19,96;11,54;7,43;4,12;7,43;4,12;0;0;
22326;-19,96;11,54;-19,96;11,54;7,37;4,17;7,37;4,17;0;0;
22342;-22,18;10,27;-22,18;10,27;7,92;4,86;7,92;4,86;0;0;
22360;-21,56;14,31;-21,56;14,31;6,68;5,07;6,68;5,07;0;0;
22376;-20,95;9,34;-20,95;9,34;7,84;5,04;7,84;5,04;0;0;
22391;-18,16;17,8;-18,16;17,8;7,14;4,48;7,14;4,48;0;0;
22407;-18,16;17,8;-18,16;17,8;6,99;4,67;6,99;4,67;0;0;
22423;-24,83;3,08;-24,83;3,08;7,98;4,88;7,98;4,88;0;0;
22438;-19,46;16,09;-19,46;16,09;7,65;4,64;7,65;4,64;0;0;
22456;-32,55;1,19;-32,55;1,19;8,07;4,93;8,07;4,93;0;0;
22471;-14,22;18,44;-14,22;18,44;7,83;5,07;7,83;5,07;0;0;
22488;-14,22;18,44;-14,22;18,44;8,25;5,11;8,25;5,11;0;0;
22503;-26,91;4,33;-26,91;4,33;8,75;5,3;8,75;5,3;0;0;
22519;-15,96;10,83;-15,96;10,83;7,91;4,91;7,91;4,91;0;0;
22536;-33,87;3,88;-33,87;3,88;7,33;4,98;7,33;4,98;0;0;
22553;-15,19;19,54;-15,19;19,54;7,99;5,24;7,99;5,24;0;0;
22569;-31,82;10,06;-31,82;10,06;8,2;5,09;8,2;5,09;0;0;
22586;-31,82;10,06;-31,82;10,06;8,33;4,86;8,33;4,86;0;0;
22602;-15,46;17,84;-15,46;17,84;8,19;4,75;8,19;4,75;0;0;
22622;-32,46;9,68;-32,46;9,68;8,6;5,27;8,6;5,27;0;0;
22640;-20,05;10,88;-20,05;10,88;9,1;4,63;9,1;4,63;0;0;
22654;-21,79;17,29;-21,79;17,29;8,14;4,12;8,14;4,12;0;0;
22670;-32,24;-1,4;-32,24;-1,4;8,59;4,39;8,59;4,39;0;0;
22686;-32,24;-1,4;-32,24;-1,4;9,58;4,64;9,58;4,64;0;0;
22702;-37,65;3,69;-37,65;3,69;9,17;4,47;9,17;4,47;0;0;
22720;-7;16,87;-7;16,87;9,14;5,1;9,14;5,1;0;0;
22734;-22,75;14,94;-22,75;14,94;9,17;5,08;9,17;5,08;0;0;
22752;-21,53;12,33;-21,53;12,33;9,02;5,44;9,02;5,44;0;0;
22769;-18,06;19,34;-18,06;19,34;7,83;5,34;7,83;5,34;0;0;
22785;-18,06;19,34;-18,06;19,34;7;5,11;7;5,11;0;0;
22801;-15,91;10,64;-15,91;10,64;7,51;4,48;7,51;4,48;0;0;
22817;-24,07;16,63;-24,07;16,63;6,47;4,18;6,47;4,18;0;0;
22832;-21,28;11,36;-21,28;11,36;7,15;4,16;7,15;4,16;0;0;
22847;-21,28;11,36;-21,28;11,36;7,53;3,62;7,53;3,62;0;0;
22863;-49,02;11,23;-49,02;11,23;8,99;3,81;8,99;3,81;0;0;
22880;-27,5;12,87;-27,5;12,87;10,84;4,26;10,84;4,26;0;0;
22897;-27,19;16,89;-27,19;16,89;11,21;4,71;11,21;4,71;0;0;
22914;-21,76;12,01;-21,76;12,01;12,01;5,08;12,01;5,08;0;0;
22932;-13,59;14,14;-13,59;14,14;11,38;5,01;11,38;5,01;1;0;
22951;-35,95;9,9;-35,95;9,9;10,15;4,84;10,15;4,84;1;0;
22968;-35,95;9,9;-35,95;9,9;8,99;4,53;8,99;4,53;1;0;
22983;-39,81;8,01;-39,81;8,01;8,11;4,01;8,11;4,01;1;0;
23000;-24,86;3,86;-24,86;3,86;8,64;4,35;8,64;4,35;1;0;
23016;-15,94;11,01;-15,94;11,01;7,88;4,27;7,88;4,27;1;0;
23032;-56,42;4,32;-56,42;4,32;7,97;4,09;7,97;4,09;1;0;
23051;165,81;14,49;165,81;14,49;18,78;4,65;18,78;4,65;1;0;
23066;165,81;14,49;165,81;14,49;29,74;5,1;29,74;5,1;1;0;
23083;-120,44;6,16;-120,44;6,16;48,7;4,69;48,7;4,69;1;0;
23101;94,23;19,6;94,23;19,6;63,62;4,81;63,62;4,81;1;0;
23118;-32,6;2,41;-32,6;2,41;63,67;5,48;63,67;5,48;0;0;
23138;-28,02;20,61;-28,02;20,61;60,41;5,84;60,41;5,84;0;0;
23155;66,22;7,64;66,22;7,64;54,65;5,4;54,65;5,4;0;0;
23173;-21,04;13,36;-21,04;13,36;38,98;5,87;38,98;5,87;0;0;
23189;-26,05;20,06;-26,05;20,06;22,74;6,04;22,74;6,04;0;0;
23206;-26,05;20,06;-26,05;20,06;15,91;5,56;15,91;5,56;0;0;
23224;-27,02;6,43;-27,02;6,43;15,57;5,37;15,57;5,37;0;0;
23244;-37,85;8,88;-37,85;8,88;14,36;4,7;14,36;4,7;0;0;
23263;-23,74;12,63;-23,74;12,63;8,34;4,72;8,34;4,72;0;0;
23278;-23,74;12,63;-23,74;12,63;7,44;4,96;7,44;4,96;0;0;
23295;1,15;12,61;1,15;12,61;10,87;5,24;10,87;5,24;0;0;
23316;-34,72;13,61;-34,72;13,61;14,3;5,03;14,3;5,03;0;0;
23334;-22,3;2,46;-22,3;2,46;14,74;4,95;14,74;4,95;0;0;
23353;-19,25;15,08;-19,25;15,08;14,51;5,3;14,51;5,3;0;0;
23368;-38,55;10,23;-38,55;10,23;15,15;4,73;15,15;4,73;0;0;
23385;-38,55;10,23;-38,55;10,23;14,46;4,24;14,46;4,24;0;0;
23401;-45,39;10,62;-45,39;10,62;13,52;3,76;13,52;3,76;0;0;
23418;16,8;7,01;16,8;7,01;16,02;3,8;16,02;3,8;0;0;
23436;-34,75;22,78;-34,75;22,78;17,37;3,4;17,37;3,4;0;0;
23453;-56,45;3,41;-56,45;3,41;17,48;3,38;17,48;3,38;0;0;
23469;-26,36;4,03;-26,36;4,03;18,42;3,24;18,42;3,24;0;0;
23486;-26,36;4,03;-26,36;4,03;19,42;3,42;19,42;3,42;0;0;
23503;-23,99;12,66;-23,99;12,66;18,52;3,85;18,52;3,85;0;0;
23520;-15,79;16,06;-15,79;16,06;16,85;3,67;16,85;3,67;0;0;
23537;-46,22;3,65;-46,22;3,65;11,52;3,81;11,52;3,81;0;0;
23554;-3,85;16,32;-3,85;16,32;12,5;3,83;12,5;3,83;0;0;
23569;-40,88;13,03;-40,88;13,03;12,3;3,76;12,3;3,76;0;0;
23585;-40,88;13,03;-40,88;13,03;12,74;3,44;12,74;3,44;0;0;
23601;-12,51;10,05;-12,51;10,05;12,74;4;12,74;4;0;0;
23620;-32,72;5,1;-32,72;5,1;13,12;3,78;13,12;3,78;0;0;
23637;-14,45;11,56;-14,45;11,56;12,74;3,86;12,74;3,86;0;0;
23653;-32,38;7,53;-32,38;7,53;9,21;4,06;9,21;4,06;0;0;
23668;-30,29;1,29;-30,29;1,29;8,11;4,47;8,11;4,47;0;0;
23685;-30,29;1,29;-30,29;1,29;8,42;4,67;8,42;4,67;0;0;
23701;-31,78;6,43;-31,78;6,43;8,06;4,61;8,06;4,61;0;0;
23719;-14,18;11,39;-14,18;11,39;7,93;4,57;7,93;4,57;0;0;
23735;-21,58;8,86;-21,58;8,86;7,04;4,88;7,04;4,88;0;0;
23752;-11,42;14,85;-11,42;14,85;7,67;4,91;7,67;4,91;0;0;
23768;-30,39;14,58;-30,39;14,58;7,24;4,33;7,24;4,33;0;0;
23783;-30,39;14,58;-30,39;14,58;6,48;3,74;6,48;3,74;0;0;
23799;-10,61;6,59;-10,61;6,59;7,11;3,89;7,11;3,89;0;0;
23815;-20,19;11,93;-20,19;11,93;6,5;4,34;6,5;4,34;0;0;
23832;-18,24;7,81;-18,24;7,81;7,43;3,62;7,43;3,62;0;0;
23847;-18,24;7,81;-18,24;7,81;7,4;3,5;7,4;3,5;0;0;
23865;-35,28;5,81;-35,28;5,81;7,94;3,76;7,94;3,76;0;0;
23880;-19,49;2,78;-19,49;2,78;8,98;3,75;8,98;3,75;0;0;
23896;-37,96;8,67;-37,96;8,67;8,72;4,01;8,72;4,01;0;0;
23913;-14,2;15,09;-14,2;15,09;9,72;4,08;9,72;4,08;0;0;
23928;-21,91;8,1;-21,91;8,1;9,09;4,09;9,09;4,09;0;0;
23947;-21,91;8,1;-21,91;8,1;7,9;3,93;7,9;3,93;0;0;
23964;-25,69;15,77;-25,69;15,77;8,85;4,18;8,85;4,18;0;0;
23980;-37,31;8,47;-37,31;8,47;7,78;3,52;7,78;3,52;0;0;
23996;-23,35;11,7;-23,35;11,7;8,91;3,08;8,91;3,08;0;0;
24013;-20,98;20,87;-20,98;20,87;7,6;3,66;7,6;3,66;0;0;
24029;-40,06;6,31;-40,06;6,31;8,48;4,62;8,48;4,62;0;0;
24050;-15,82;21,97;-15,82;21,97;8,48;5,06;8,48;5,06;0;0;
24067;-15,82;21,97;-15,82;21,97;7,16;5,46;7,16;5,46;0;0;
24081;-20,2;6,04;-20,2;6,04;8,26;5,62;8,26;5,62;0;0;
24098;-15,78;15,13;-15,78;15,13;7,88;5,64;7,88;5,64;0;0;
24116;-32,06;11,38;-32,06;11,38;8,04;5,05;8,04;5,05;0;0;
24133;-14,82;9,29;-14,82;9,29;8,67;4,17;8,67;4,17;0;0;
24150;-36,43;16,17;-36,43;16,17;9,19;3,87;9,19;3,87;0;0;
24165;-36,43;16,17;-36,43;16,17;9,65;3,89;9,65;3,89;0;0;
24183;-12,35;12,9;-12,35;12,9;9,22;3,9;9,22;3,9;0;0;
24199;-31,1;8,49;-31,1;8,49;9,24;3,83;9,24;3,83;0;0;
24217;-13,15;11,38;-13,15;11,38;9,07;4,51;9,07;4,51;0;0;
24232;-28,47;13,15;-28,47;13,15;8,42;5,19;8,42;5,19;0;0;
24248;-28,47;13,15;-28,47;13,15;8,18;5,53;8,18;5,53;0;0;
24263;-23,9;5,52;-23,9;5,52;8,21;5,8;8,21;5,8;0;0;
24278;-23,9;5,52;-23,9;5,52;7,74;6;7,74;6;0;0;
24294;-12,26;11,05;-12,26;11,05;8,29;6,28;8,29;6,28;0;0;
24311;-26,27;12,14;-26,27;12,14;7,15;5,45;7,15;5,45;0;0;
24328;-26,27;12,14;-26,27;12,14;6,7;5,16;6,7;5,16;0;0;
24344;-19,02;10,51;-19,02;10,51;7,19;5,08;7,19;5,08;0;0;
24361;-35,24;5,29;-35,24;5,29;7,64;4,54;7,64;4,54;0;0;
24376;-18,78;11,72;-18,78;11,72;8,54;4,54;8,54;4,54;0;0;
24391;-25,4;12,76;-25,4;12,76;7,24;4,22;7,24;4,22;0;0;
24407;-25,4;12,76;-25,4;12,76;6,96;3,9;6,96;3,9;0;0;
24426;-16,2;17,86;-16,2;17,86;6,97;3,72;6,97;3,72;0;0;
24443;-37,31;11,06;-37,31;11,06;6,7;3,92;6,7;3,92;0;0;
24458;-20,34;10,9;-20,34;10,9;7,53;3,85;7,53;3,85;0;0;
24473;-17,26;12,17;-17,26;12,17;7,17;4,38;7,17;4,38;0;0;
24487;-17,26;12,17;-17,26;12,17;7,76;5;7,76;5;0;0;
24502;-15,29;17,65;-15,29;17,65;7,66;4,96;7,66;4,96;0;0;
24520;-31,37;3,64;-31,37;3,64;6,91;4,55;6,91;4,55;0;0;
24537;-26,55;5,71;-26,55;5,71;7,14;4,81;7,14;4,81;0;0;
24554;-18,76;7,22;-18,76;7,22;6,39;4,49;6,39;4,49;0;0;
24571;-27,39;8,18;-27,39;8,18;6,95;4,23;6,95;4,23;0;0;
24590;-8,94;12,77;-8,94;12,77;7,37;4,04;7,37;4,04;0;0;
24608;-8,94;12,77;-8,94;12,77;7,19;4,09;7,19;4,09;0;0;
24626;-30,75;4,59;-30,75;4,59;8,29;3,72;8,29;3,72;0;0;
24640;-16,8;21,36;-16,8;21,36;8,14;4,49;8,14;4,49;0;0;
24657;-35,34;5,01;-35,34;5,01;7,86;4,64;7,86;4,64;0;0;
24672;-15,02;13,7;-15,02;13,7;8,07;4,71;8,07;4,71;0;0;
24687;-15,02;13,7;-15,02;13,7;8,27;4,76;8,27;4,76;0;0;
24702;-30,8;4,72;-30,8;4,72;8,49;4,99;8,49;4,99;0;0;
24718;-12,4;16,42;-12,4;16,42;8,46;4,68;8,46;4,68;0;0;
24734;-26,05;5,35;-26,05;5,35;8,1;4,25;8,1;4,25;1;0;
24752;-5,64;8,59;-5,64;8,59;10,68;4,24;10,68;4,24;1;0;
24769;49,06;3,2;49,06;3,2;13,79;4,16;13,79;4,16;1;0;
24784;49,06;3,2;49,06;3,2;16,58;3,71;16,58;3,71;1;0;
24800;80,89;10,5;80,89;10,5;23,05;3,4;23,05;3,4;1;0;
24818;-125,96;9,94;-125,96;9,94;36,54;3,09;36,54;3,09;1;0;
24835;-63,12;6,68;-63,12;6,68;51,42;2,72;51,42;2,72;1;0;
24854;-111,09;12,76;-111,09;12,76;62,48;2,87;62,48;2,87;0;0;
24873;-40,92;9,89;-40,92;9,89;62,78;3,35;62,78;3,35;0;0;
24890;-27,42;11,76;-27,42;11,76;63,64;3,55;63,64;3,55;0;0;
24905;-27,42;11,76;-27,42;11,76;62,84;3,67;62,84;3,67;0;0;
24921;-16,2;6,14;-16,2;6,14;47,05;4,15;47,05;4,15;0;0;
24938;-37,22;9,63;-37,22;9,63;34,33;4,24;34,33;4,24;0;0;
24956;-21,06;14,4;-21,06;14,4;27,15;4,35;27,15;4,35;0;0;
24973;-22,83;16,02;-22,83;16,02;20,96;3,79;20,96;3,79;0;0;
24993;-21,47;6,25;-21,47;6,25;14,03;3,8;14,03;3,8;0;0;
25011;16,59;22,54;16,59;22,54;20;3,74;20;3,74;0;0;
25027;16,59;22,54;16,59;22,54;26,73;3,55;26,73;3,55;0;0;
25043;-28,46;1,5;-28,46;1,5;32,36;4,13;32,36;4,13;0;0;
25059;-39,99;4,09;-39,99;4,09;33,46;4,66;33,46;4,66;0;0;
25079;-20,7;14,25;-20,7;14,25;34,59;4,77;34,59;4,77;0;0;
25096;-13,22;17,78;-13,22;17,78;33,08;4,76;33,08;4,76;0;0;
25113;-27,17;3,28;-27,17;3,28;24,29;4,92;24,29;4,92;0;0;
25131;-77,9;17,41;-77,9;17,41;13,46;5,23;13,46;5,23;0;0;
25147;-77,9;17,41;-77,9;17,41;9,76;5,52;9,76;5,52;0;0;
25165;-45,94;11,96;-45,94;11,96;15,9;4,74;15,9;4,74;0;0;
25180;-38,23;8,57;-38,23;8,57;15,18;4,92;15,18;4,92;0;0;
25199;-23,76;2,36;-23,76;2,36;15,15;4,76;15,15;4,76;0;0;
25217;-17,4;14,1;-17,4;14,1;14,55;4,04;14,55;4,04;0;0;
25235;-32;12,25;-32;12,25;14,38;3,77;14,38;3,77;0;0;
25251;-60,46;13,25;-60,46;13,25;14,31;3,86;14,31;3,86;0;0;
25266;-60,46;13,25;-60,46;13,25;12,24;4,09;12,24;4,09;0;0;
25284;-35,98;3,27;-35,98;3,27;12,66;4,12;12,66;4,12;0;0;
25300;-6,44;12,36;-6,44;12,36;13,06;3,86;13,06;3,86;0;0;
25319;-32,36;4,43;-32,36;4,43;12,82;4,12;12,82;4,12;0;0;
25334;-17,17;14,09;-17,17;14,09;12,7;4,24;12,7;4,24;0;0;
25352;-23,74;11,64;-23,74;11,64;9,99;4,45;9,99;4,45;0;0;
25370;-37,75;13,22;-37,75;13,22;8,76;4,33;8,76;4,33;0;0;
25387;-37,75;13,22;-37,75;13,22;9,13;4,24;9,13;4,24;0;0;
25405;-37,6;-0,09;-37,6;-0,09;9,44;4,96;9,44;4,96;0;0;
25422;-20,07;5,76;-20,07;5,76;9,93;5,05;9,93;5,05;0;0;
25438;-39,04;3,45;-39,04;3,45;9,7;4,76;9,7;4,76;0;0;
25455;-19,9;9,08;-19,9;9,08;9,84;5,1;9,84;5,1;0;0;
25475;-15,15;12,76;-15,15;12,76;9,12;5,52;9,12;5,52;0;0;
25494;-22,83;11,77;-22,83;11,77;8,94;5,03;8,94;5,03;0;0;
25510;-23,11;14,81;-23,11;14,81;8,55;4,95;8,55;4,95;0;0;
25527;-23,11;14,81;-23,11;14,81;6,95;5,48;6,95;5,48;0;0;
25542;-24,82;5,24;-24,82;5,24;7,55;5,03;7,55;5,03;0;0;
25560;-36,2;6,6;-36,2;6,6;7,33;4,02;7,33;4,02;0;0;
25575;-24,71;10,69;-24,71;10,69;7,85;3,9;7,85;3,9;0;0;
25592;-15,87;13,68;-15,87;13,68;6,89;3,51;6,89;3,51;0;0;
25608;-15,87;13,68;-15,87;13,68;6,86;3,01;6,86;3,01;0;0;
25626;-24,14;9,12;-24,14;9,12;7,85;3,01;7,85;3,01;0;0;
25644;-17,05;14,56;-17,05;14,56;6,7;3,2;6,7;3,2;0;0;
25699;-24,59;3,01;-24,59;3,01;7,26;3,24;7,26;3,24;0;0;
25714;-12,66;15,71;-12,66;15,71;7,42;3,31;7,42;3,31;0;0;
25730;-32,71;5,88;-32,71;5,88;7,59;3,14;7,59;3,14;0;0;
25745;-32,71;5,88;-32,71;5,88;7,58;2,89;7,58;2,89;0;0;
25763;-12,36;13,88;-12,36;13,88;7,06;3,02;7,06;3,02;0;0;
25778;-31,43;1,29;-31,43;1,29;6,67;3,31;6,67;3,31;0;0;
25794;-17,27;11,88;-17,27;11,88;6,44;3,69;6,44;3,69;0;0;
25810;-22,22;11,74;-22,22;11,74;5,63;3,6;5,63;3,6;0;0;
25827;-22,22;11,74;-22,22;11,74;5,42;3,6;5,42;3,6;0;0;
25844;-16,38;13,84;-16,38;13,84;6,77;3,68;6,77;3,68;0;0;
25863;-32,05;0,9;-32,05;0,9;7,07;4,37;7,07;4,37;0;0;
25880;-13,45;16,79;-13,45;16,79;8,19;4,48;8,19;4,48;0;0;
25896;-22,69;5,28;-22,69;5,28;7,97;4,41;7,97;4,41;0;0;
25911;-35,01;10,58;-35,01;10,58;8,52;4,65;8,52;4,65;0;0;
25926;-35,01;10,58;-35,01;10,58;8,8;4,51;8,8;4,51;0;0;
25942;-38,68;16,31;-38,68;16,31;8,55;4,22;8,55;4,22;0;0;
25960;-17,05;13,71;-17,05;13,71;9,16;3,56;9,16;3,56;0;0;
25975;-21,06;10,9;-21,06;10,9;8,32;3,24;8,32;3,24;0;0;
25990;-24,03;13,11;-24,03;13,11;8,52;2,81;8,52;2,81;0;0;
26006;-24,03;13,11;-24,03;13,11;8,75;2,77;8,75;2,77;0;0;
26024;-38,49;7,28;-38,49;7,28;8,68;3,67;8,68;3,67;0;0;
26042;-22,85;12,26;-22,85;12,26;9,41;3,89;9,41;3,89;0;0;
26058;-39,04;4,44;-39,04;4,44;9,34;4,05;9,34;4,05;0;0;
26076;-19,99;5,56;-19,99;5,56;10,41;4,52;10,41;4,52;0;0;
26092;-18,55;18,48;-18,55;18,48;9,56;4,71;9,56;4,71;0;0;
26109;-37,3;4,32;-37,3;4,32;8,67;4,71;8,67;4,71;0;0;
26126;-37,3;4,32;-37,3;4,32;8,95;4,45;8,95;4,45;0;0;
26142;-30,43;-0,07;-30,43;-0,07;7,73;4,79;7,73;4,79;0;0;
26159;-24,85;6,56;-24,85;6,56;8,52;4,76;8,52;4,76;0;0;
26174;-18,16;18,26;-18,16;18,26;7,99;4,94;7,99;4,94;0;0;
26191;-40,77;10,99;-40,77;10,99;7,91;4,97;7,91;4,97;0;0;
26207;-40,77;10,99;-40,77;10,99;7,83;4,96;7,83;4,96;0;0;
26225;-35,5;1,31;-35,5;1,31;8,16;5,05;8,16;5,05;0;0;
26242;-29,56;5,53;-29,56;5,53;8,79;4,96;8,79;4,96;0;0;
26258;-15,69;11,04;-15,69;11,04;8,07;4,41;8,07;4,41;0;0;
26273;-31,81;17,41;-31,81;17,41;7,9;4,24;7,9;4,24;0;0;
26290;-12,53;18,54;-12,53;18,54;7,99;4,13;7,99;4,13;0;0;
26306;-12,53;18,54;-12,53;18,54;7,81;4,18;7,81;4,18;0;0;
26323;-31,22;4,95;-31,22;4,95;8,27;3,56;8,27;3,56;0;0;
26340;-14,83;19,45;-14,83;19,45;8,16;3,69;8,16;3,69;0;0;
26357;-24,57;8,89;-24,57;8,89;7,28;4,24;7,28;4,24;0;0;
26373;-17,91;17,53;-17,91;17,53;7,58;3,85;7,58;3,85;0;0;
26390;-26,88;7,4;-26,88;7,4;7,15;3,45;7,15;3,45;0;0;
26406;-26,88;7,4;-26,88;7,4;6,41;3,33;6,41;3,33;0;0;
26424;-15,57;13;-15,57;13;7,58;3,44;7,58;3,44;0;0;
26441;-37,59;7,02;-37,59;7,02;7,76;3,85;7,76;3,85;0;0;
26459;-15,89;18,19;-15,89;18,19;8,35;3,86;8,35;3,86;0;0;
26477;-22,27;10,19;-22,27;10,19;8,01;3,73;8,01;3,73;0;0;
26495;-16,68;8,1;-16,68;8,1;9;3,8;9;3,8;1;0;
26513;-22,18;11,91;-22,18;11,91;9,02;4,5;9,02;4,5;1;0;
26530;-28,86;8,17;-28,86;8,17;7,63;3,9;7,63;3,9;1;0;
26548;-28,86;8,17;-28,86;8,17;8,32;3,82;8,32;3,82;1;0;
26566;-178,18;8,31;-178,18;8,31;18,01;3,54;18,01;3,54;1;0;
26585;-139,88;14,74;-139,88;14,74;30,95;4,16;30,95;4,16;1;0;
26600;-156,74;3,66;-156,74;3,66;41,15;3,78;41,15;3,78;1;0;
26617;121,25;11,41;121,25;11,41;50,64;3,53;50,64;3,53;1;0;
26636;-57,16;11,45;-57,16;11,45;59,07;3,41;59,07;3,41;0;0;
26654;24,02;4,09;24,02;4,09;72,68;3,43;72,68;3,43;0;0;
26670;-30,24;13,75;-30,24;13,75;63,02;3,48;63,02;3,48;0;0;
26686;-30,24;13,75;-30,24;13,75;59,57;3,78;59,57;3,78;0;0;
26704;-24,09;7,52;-24,09;7,52;48,66;3,46;48,66;3,46;0;0;
26722;-32,97;16,62;-32,97;16,62;38,35;3,53;38,35;3,53;0;0;
26740;-25,82;0,9;-25,82;0,9;30,51;4,13;30,51;4,13;0;0;
26757;-6,12;10,51;-6,12;10,51;19,02;3,88;19,02;3,88;0;0;
26774;-28,45;10,84;-28,45;10,84;13,02;3,47;13,02;3,47;0;0;
26790;-34,83;17,43;-34,83;17,43;12,43;3,5;12,43;3,5;0;0;
26805;-34,83;17,43;-34,83;17,43;15,03;3,77;15,03;3,77;0;0;
26822;-27,1;4,42;-27,1;4,42;16,32;3,87;16,32;3,87;0;0;
26840;-14,54;9,69;-14,54;9,69;16,4;3,69;16,4;3,69;0;0;
26856;-26,81;8,43;-26,81;8,43;15,8;4,22;15,8;4,22;0;0;
26871;-23,28;21,37;-23,28;21,37;11,88;4,38;11,88;4,38;0;0;
26889;-23,28;21,37;-23,28;21,37;8,33;4,34;8,33;4,34;0;0;
26905;-50,2;10,29;-50,2;10,29;15,05;4,28;15,05;4,28;0;0;
26927;-29,1;10,35;-29,1;10,35;20,14;3,93;20,14;3,93;0;0;
26945;-34,37;4,6;-34,37;4,6;19,46;4,11;19,46;4,11;0;0;
26961;-18,52;9,97;-18,52;9,97;20,3;3,86;20,3;3,86;0;0;
26976;-18,76;9,71;-18,76;9,71;19,91;3,84;19,91;3,84;0;0;
26991;-28,98;16,81;-28,98;16,81;19,1;4,33;19,1;4,33;0;0;
27010;-60,08;8,38;-60,08;8,38;11,69;4,55;11,69;4,55;0;0;
27025;-60,08;8,38;-60,08;8,38;11,46;4,59;11,46;4,59;0;0;
27041;-25,32;12,43;-25,32;12,43;15,06;4,74;15,06;4,74;0;0;
27061;-30,63;10,69;-30,63;10,69;15,37;4,66;15,37;4,66;0;0;
27079;-29,66;11,56;-29,66;11,56;15,35;4,32;15,35;4,32;0;0;
27098;-35,67;8,97;-35,67;8,97;14,49;3,95;14,49;3,95;0;0;
27112;-4,93;12,36;-4,93;12,36;13,9;3,57;13,9;3,57;0;0;
27128;-4,93;12,36;-4,93;12,36;12,46;3,31;12,46;3,31;0;0;
27144;-46,99;10,03;-46,99;10,03;12,83;2,89;12,83;2,89;0;0;
27160;-30,03;5,62;-30,03;5,62;13,49;3,36;13,49;3,36;0;0;
27179;-15,05;12,94;-15,05;12,94;12,19;3,64;12,19;3,64;0;0;
27193;-20,56;2,51;-20,56;2,51;13,33;4,19;13,33;4,19;0;0;
27210;-10,3;19,91;-10,3;19,91;12,09;4,96;12,09;4,96;0;0;
27227;-10,3;19,91;-10,3;19,91;9,01;5,72;9,01;5,72;0;0;
27243;-23,7;9,28;-23,7;9,28;7,81;5,47;7,81;5,47;0;0;
27260;-15,97;15,09;-15,97;15,09;7,13;4,68;7,13;4,68;0;0;
27276;-33,44;7,89;-33,44;7,89;7,19;4,33;7,19;4,33;0;0;
27296;-14,84;12,85;-14,84;12,85;6,9;4,09;6,9;4,09;0;0;
27313;-30,77;7,15;-30,77;7,15;7,88;3,51;7,88;3,51;0;0;
27328;-30,77;7,15;-30,77;7,15;8,45;3,12;8,45;3,12;0;0;
27344;-12,13;17,41;-12,13;17,41;8,4;3,44;8,4;3,44;0;0;
27361;-29,45;4,07;-29,45;4,07;8,61;3,84;8,61;3,84;0;0;
27375;-11,78;11,09;-11,78;11,09;9,29;3,45;9,29;3,45;0;0;
27394;-22,5;11,8;-22,5;11,8;8,84;3,51;8,84;3,51;0;0;
27410;-34,5;1,36;-34,5;1,36;8,7;3,93;8,7;3,93;0;0;
27426;-34,5;1,36;-34,5;1,36;8,87;4,36;8,87;4,36;0;0;
27442;-35,61;5,42;-35,61;5,42;9,05;4,51;9,05;4,51;0;0;
27459;-12,44;18,76;-12,44;18,76;9,53;4,35;9,53;4,35;0;0;
27475;-24,29;14,97;-24,29;14,97;8,68;4,76;8,68;4,76;0;0;
27493;-13,11;10,73;-13,11;10,73;9,34;4,56;9,34;4,56;0;0;
27510;-26,46;17,11;-26,46;17,11;8,37;4,22;8,37;4,22;0;0;
27526;-26,46;17,11;-26,46;17,11;7,28;3,94;7,28;3,94;0;0;
27541;-15,15;9,3;-15,15;9,3;7,77;3,97;7,77;3,97;0;0;
27559;-34,17;2,52;-34,17;2,52;7,41;3,99;7,41;3,99;0;0;
27578;-19,51;9,94;-19,51;9,94;8,27;3,8;8,27;3,8;0;0;
27593;-16,4;17,78;-16,4;17,78;7,45;3,92;7,45;3,92;0;0;
27613;-17,53;3,43;-17,53;3,43;8,84;3,9;8,84;3,9;0;0;
27631;-19,56;19,71;-19,56;19,71;9,2;4,67;9,2;4,67;0;0;
27647;-19,56;19,71;-19,56;19,71;7,64;5,41;7,64;5,41;0;0;
27662;-26,1;5,57;-26,1;5,57;8,62;5,14;8,62;5,14;0;0;
27677;-13,29;15,71;-13,29;15,71;7,97;5,2;7,97;5,2;0;0;
27696;-23,56;12,27;-23,56;12,27;8,79;5,04;8,79;5,04;0;0;
27711;-19,11;15,28;-19,11;15,28;7,54;4,66;7,54;4,66;0;0;
27732;-26,69;4,29;-26,69;4,29;8,36;4,29;8,36;4,29;0;0;
27748;-26,69;4,29;-26,69;4,29;9,32;4,11;9,32;4,11;0;0;
27765;-30,89;2,22;-30,89;2,22;9,25;4,52;9,25;4,52;0;0;
27782;-26,75;7,84;-26,75;7,84;9,56;4,74;9,56;4,74;0;0;
27797;-16,16;5,75;-16,16;5,75;8,98;4,72;8,98;4,72;0;0;
27814;-26,43;0,62;-26,43;0,62;9,74;4,68;9,74;4,68;0;0;
27830;-14,13;15,13;-14,13;15,13;8,95;4,65;8,95;4,65;0;0;
27847;-14,13;15,13;-14,13;15,13;7,64;4,57;7,64;4,57;0;0;
27862;-33,43;-3,87;-33,43;-3,87;8,18;4,33;8,18;4,33;0;0;
27878;-10,95;16,38;-10,95;16,38;8,13;4,85;8,13;4,85;0;0;
27893;-30,38;13,37;-30,38;13,37;8,01;4,74;8,01;4,74;0;0;
27909;-31,73;-2,19;-31,73;-2,19;7,96;4,89;7,96;4,89;0;0;
27925;-31,73;-2,19;-31,73;-2,19;8,39;5,21;8,39;5,21;0;0;
27941;-31,87;3,1;-31,87;3,1;8,71;5,66;8,71;5,66;0;0;
27958;-14,68;13,24;-14,68;13,24;9,34;5,4;9,34;5,4;0;0;
27974;-28,34;11,74;-28,34;11,74;8,64;5,61;8,64;5,61;0;0;
27991;-16,42;5,73;-16,42;5,73;8,89;5,81;8,89;5,81;0;0;
28006;-16,42;5,73;-16,42;5,73;8,87;5,63;8,87;5,63;0;0;
28024;-33,65;4,36;-33,65;4,36;8,94;5,07;8,94;5,07;0;0;
28040;-17,25;10,38;-17,25;10,38;9,12;4,96;9,12;4,96;0;0;
28057;-40,6;4,69;-40,6;4,69;9,1;4,13;9,1;4,13;0;0;
28075;-16,81;11,18;-16,81;11,18;9,76;4,15;9,76;4,15;0;0;
28092;-15,76;13,72;-15,76;13,72;9,33;3,79;9,33;3,79;0;0;
28107;-15,76;13,72;-15,76;13,72;8,38;3,52;8,38;3,52;0;0;
28124;-21,2;21,06;-21,2;21,06;9,14;4,07;9,14;4,07;0;0;
28141;-36,74;9,55;-36,74;9,55;8,46;4,46;8,46;4,46;0;0;
28160;-22,58;5,34;-22,58;5,34;8,97;4,47;8,97;4,47;0;0;
28175;-14,43;14,22;-14,43;14,22;8,17;4,66;8,17;4,66;0;0;
28192;-20,62;10,97;-20,62;10,97;9,03;4,3;9,03;4,3;0;0;
28209;-17,63;18,01;-17,63;18,01;9,06;4,48;9,06;4,48;0;0;
28226;-17,63;18,01;-17,63;18,01;7,77;3,89;7,77;3,89;0;0;
28240;-24,86;0,87;-24,86;0,87;8,84;3,76;8,84;3,76;0;0;
28258;-37,64;4,59;-37,64;4,59;8,72;3,68;8,72;3,68;0;0;
28275;-29;5,22;-29;5,22;8,92;4,02;8,92;4,02;1;0;
28291;-44,38;17,3;-44,38;17,3;7,79;4,65;7,79;4,65;1;0;
28307;-44,38;17,3;-44,38;17,3;7,47;5,02;7,47;5,02;1;0;
28324;-40,28;10,78;-40,28;10,78;13,09;4,88;13,09;4,88;1;0;
28343;-40,52;16,01;-40,52;16,01;15,47;4,93;15,47;4,93;1;0;
28361;-32,57;10,33;-32,57;10,33;16,84;4,56;16,84;4,56;1;0;
28377;-21,79;12,85;-21,79;12,85;16,31;4,37;16,31;4,37;1;0;
28393;-22,88;8,99;-22,88;8,99;16,8;3,95;16,8;3,95;1;0;
28409;-53,84;6,77;-53,84;6,77;13,87;3,66;13,87;3,66;1;0;
28429;-16,23;10,32;-16,23;10,32;17,19;3,62;17,19;3,62;1;0;
28444;-16,23;10,32;-16,23;10,32;20,26;3,62;20,26;3,62;1;0;
28460;-18,68;8,98;-18,68;8,98;43,61;3,62;43,61;3,62;1;0;
28479;-49,03;15,67;-49,03;15,67;60,17;3,29;60,17;3,29;1;0;
28498;118,56;7,25;118,56;7,25;72,76;3,17;72,76;3,17;0;0;
28518;182,13;10,22;182,13;10,22;85,31;3,38;85,31;3,38;0;0;
28533;-72,55;15,46;-72,55;15,46;91,51;3,49;91,51;3,49;0;0;
28551;-116,58;15,4;-116,58;15,4;81,99;3,64;81,99;3,64;0;0;
28567;-116,58;15,4;-116,58;15,4;63,64;3,97;63,64;3,97;0;0;
28587;-17,25;17,92;-17,25;17,92;50,38;4,37;50,38;4,37;0;0;
28603;-60,22;3,09;-60,22;3,09;40,43;4,97;40,43;4,97;0;0;
28620;-21,42;7,8;-21,42;7,8;33,27;5,58;33,27;5,58;0;0;
28638;-45,24;1,84;-45,24;1,84;33,22;5,53;33,22;5,53;0;0;
28655;-21,48;15,61;-21,48;15,61;36,42;5,5;36,42;5,5;0;0;
28671;-55,52;12,09;-55,52;12,09;37,31;5,27;37,31;5,27;0;0;
28689;-39,63;4,39;-39,63;4,39;37,09;4,86;37,09;4,86;0;0;
28704;-39,63;4,39;-39,63;4,39;32,2;4,56;32,2;4,56;0;0;
28720;-30,31;7,84;-30,31;7,84;20,9;4,34;20,9;4,34;0;0;
28737;-29,38;13,97;-29,38;13,97;16,19;3,8;16,19;3,8;0;0;
28754;-19,62;25,14;-19,62;25,14;11,25;3,54;11,25;3,54;0;0;
28769;-50,41;10,48;-50,41;10,48;10,64;3,84;10,64;3,84;0;0;
28786;-50,41;10,48;-50,41;10,48;11,65;3,78;11,65;3,78;0;0;
28800;-30,94;8,48;-30,94;8,48;11,11;3,57;11,11;3,57;0;0;
28817;-18,75;4,26;-18,75;4,26;12,35;3,69;12,35;3,69;0;0;
28835;-24,08;11,42;-24,08;11,42;11,31;4,01;11,31;4,01;0;0;
28853;-60,89;5,75;-60,89;5,75;10,67;3,76;10,67;3,76;0;0;
28868;-60,89;5,75;-60,89;5,75;10,43;3,69;10,43;3,69;0;0;
28887;-68,25;5,72;-68,25;5,72;15,16;3,5;15,16;3,5;0;0;
28905;-37,74;7,91;-37,74;7,91;16,8;3,75;16,8;3,75;0;0;
28920;-13,55;18,15;-13,55;18,15;16,87;3,99;16,87;3,99;0;0;
28935;-33,77;17,07;-33,77;17,07;16,85;4;16,85;4;0;0;
28952;-16,24;15,07;-16,24;15,07;15,87;4,05;15,87;4,05;0;0;
28967;-16,24;15,07;-16,24;15,07;14,6;4,13;14,6;4,13;0;0;
28982;-22,74;6,18;-22,74;6,18;10,22;3,86;10,22;3,86;0;0;
28997;-26,22;12,61;-26,22;12,61;12,29;4,02;12,29;4,02;0;0;
29014;-36,84;-1,52;-36,84;-1,52;12,22;4,26;12,22;4,26;0;0;
29033;-16,43;14,42;-16,43;14,42;12,81;4,29;12,81;4,29;0;0;
29050;-22,28;10,05;-22,28;10,05;12,49;4,12;12,49;4,12;0;0;
29065;-22,28;10,05;-22,28;10,05;11,43;4,21;11,43;4,21;0;0;
29080;-15,87;6,95;-15,87;6,95;10,33;4,01;10,33;4,01;0;0;
29099;-39,15;5,88;-39,15;5,88;8,1;4,21;8,1;4,21;0;0;
29116;-16,89;10,3;-16,89;10,3;9,43;3,89;9,43;3,89;0;0;
29134;-23,75;19,93;-23,75;19,93;9,01;4,05;9,01;4,05;0;0;
29150;-31,88;9,95;-31,88;9,95;10,02;4,52;10,02;4,52;0;0;
29167;-31,88;9,95;-31,88;9,95;11,41;4,87;11,41;4,87;0;0;
29182;-33,58;9,72;-33,58;9,72;10,28;4,7;10,28;4,7;0;0;
29198;-22,99;6,24;-22,99;6,24;10,92;4,62;10,92;4,62;0;0;
29214;-18,9;13,83;-18,9;13,83;9,25;4,99;9,25;4,99;0;0;
29231;-39,42;7,05;-39,42;7,05;8,71;4,63;8,71;4,63;0;0;
29246;-39,42;7,05;-39,42;7,05;8,16;4,3;8,16;4,3;0;0;
29261;-36,78;5,06;-36,78;5,06;7,82;4,21;7,82;4,21;0;0;
29277;-28,13;11,46;-28,13;11,46;8,54;4,37;8,54;4,37;0;0;
29293;-17,31;15,46;-17,31;15,46;8,06;4,1;8,06;4,1;0;0;
29313;-20,25;4,67;-20,25;4,67;8,51;3,78;8,51;3,78;0;0;
29328;-20,25;4,67;-20,25;4,67;9,13;3,59;9,13;3,59;0;0;
29343;-38,02;10,5;-38,02;10,5;8,96;3,45;8,96;3,45;0;0;
29361;-32,04;10,78;-32,04;10,78;9,54;3,31;9,54;3,31;0;0;
29377;-13,74;19,68;-13,74;19,68;9,45;3,33;9,45;3,33;0;0;
29393;-32,7;5,6;-32,7;5,6;9,66;3,47;9,66;3,47;0;0;
29410;-14,24;18,84;-14,24;18,84;9,01;3,89;9,01;3,89;0;0;
29427;-14,24;18,84;-14,24;18,84;8,08;4,29;8,08;4,29;0;0;
29444;-28,55;9,01;-28,55;9,01;9,21;4,16;9,21;4,16;0;0;
29460;-16,89;11,9;-16,89;11,9;8,83;4,24;8,83;4,24;0;0;
29476;-31,07;6,28;-31,07;6,28;8,56;4,24;8,56;4,24;0;0;
29492;-20,57;13,39;-20,57;13,39;8,14;4,07;8,14;4,07;0;0;
29510;-33,51;11,12;-33,51;11,12;7,7;3,99;7,7;3,99;0;0;
29530;-8,91;6,63;-8,91;6,63;7,65;3,57;7,65;3,57;0;0;
29545;-8,91;6,63;-8,91;6,63;7,49;3,44;7,49;3,44;0;0;
29561;-34,28;9,62;-34,28;9,62;7,57;3,25;7,57;3,25;0;0;
29577;-12,66;5,23;-12,66;5,23;8,23;3,09;8,23;3,09;0;0;
29594;-27,6;10,69;-27,6;10,69;7,99;3,2;7,99;3,2;0;0;
29614;-15,58;8,97;-15,58;8,97;8,46;3,35;8,46;3,35;0;0;
29631;-22;9,93;-22;9,93;7,81;3,67;7,81;3,67;0;0;
29646;-22;9,93;-22;9,93;6,86;3,81;6,86;3,81;0;0;
29663;-23,66;14,15;-23,66;14,15;7,26;4,22;7,26;4,22;0;0;
29680;-32,48;1,58;-32,48;1,58;6,79;4,36;6,79;4,36;0;0;
29699;-21,96;18,18;-21,96;18,18;7,8;5,04;7,8;5,04;0;0;
29715;-21,54;14,01;-21,54;14,01;7;4,58;7;4,58;0;0;
29733;-17,53;8,22;-17,53;8,22;8,03;4,24;8,03;4,24;0;0;
29751;-18,05;13,26;-18,05;13,26;8,29;4;8,29;4;0;0;
29766;-18,05;13,26;-18,05;13,26;7,4;3,74;7,4;3,74;0;0;
29786;-15,79;10,59;-15,79;10,59;7,31;3,61;7,31;3,61;0;0;
29801;-32,69;12,06;-32,69;12,06;6,64;3,43;6,64;3,43;0;0;
29819;-23,2;12,02;-23,2;12,02;7,47;4,04;7,47;4,04;0;0;
29836;-38,74;8,03;-38,74;8,03;7,61;4,32;7,61;4,32;0;0;
29852;-25,63;11,88;-25,63;11,88;8,01;4,86;8,01;4,86;0;0;
29867;-25,63;11,88;-25,63;11,88;8,39;5,29;8,39;5,29;0;0;
29883;-34,99;7,51;-34,99;7,51;8,52;5,43;8,52;5,43;0;0;
29901;-27,34;13,63;-27,34;13,63;9,55;5,31;9,55;5,31;0;0;
29918;-41,46;14,48;-41,46;14,48;8,33;4,38;8,33;4,38;0;0;
29933;-31,29;2,15;-31,29;2,15;9,08;4,38;9,08;4,38;0;0;
29949;-17,21;10,05;-17,21;10,05;8,63;4,45;8,63;4,45;0;0;
29965;-17,21;10,05;-17,21;10,05;7,57;4,57;7,57;4,57;0;0;
29983;-32,34;9,31;-32,34;9,31;8,67;4,48;8,67;4,48;0;0;
29999;-17,16;16,98;-17,16;16,98;7,89;4,7;7,89;4,7;0;0;
30016;-52,44;4,7;-52,44;4,7;8,11;5,33;8,11;5,33;0;0;
30032;6,92;12,47;6,92;12,47;8,94;4,64;8,94;4,64;0;0;
30047;6,92;12,47;6,92;12,47;10,22;4,07;10,22;4,07;0;0;
30062;-118,3;6,34;-118,3;6,34;17,03;4,22;17,03;4,22;0;0;
30078;63,66;16,35;63,66;16,35;34,54;4,58;34,54;4,58;1;0;
30095;63,66;16,35;63,66;16,35;52,19;4,18;52,19;4,18;1;0;
30113;-38,08;13,07;-38,08;13,07;56,17;4,45;56,17;4,45;0;0;
30133;27,92;5,33;27,92;5,33;63,02;4,49;63,02;4,49;0;0;
30151;-27,82;5,97;-27,82;5,97;70,56;4,5;70,56;4,5;0;0;
30168;-27,82;5,97;-27,82;5,97;70,53;4,72;70,53;4,72;0;0;
30187;-138,94;2,27;-138,94;2,27;60,62;4,76;60,62;4,76;0;0;
30203;-61,78;14,88;-61,78;14,88;60,77;4,93;60,77;4,93;0;0;
30221;-33,28;12,35;-33,28;12,35;55,63;4,27;55,63;4,27;0;0;
30237;-22,52;11,77;-22,52;11,77;41,84;3,94;41,84;3,94;0;0;
30253;-23,46;8,45;-23,46;8,45;29,9;3,63;29,9;3,63;0;0;
30268;-23,46;8,45;-23,46;8,45;21,85;3,48;21,85;3,48;0;0;
30284;-42,48;16,25;-42,48;16,25;16,91;3,24;16,91;3,24;0;0;
30301;-41,39;9,49;-41,39;9,49;13,11;3,18;13,11;3,18;0;0;
30318;-29,42;8,51;-29,42;8,51;16,18;3,13;16,18;3,13;0;0;
30333;-16,86;15,97;-16,86;15,97;17,54;3,33;17,54;3,33;0;0;
30349;-21,26;8,23;-21,26;8,23;18,4;3,68;18,4;3,68;0;0;
30365;-21,26;8,23;-21,26;8,23;16,38;3,96;16,38;3,96;0;0;
30381;-60,11;3,83;-60,11;3,83;17,43;3,91;17,43;3,91;0;0;
30397;-67,49;4,22;-67,49;4,22;20,9;3,96;20,9;3,96;0;0;
30415;-3,03;27,82;-3,03;27,82;26,39;4,5;26,39;4,5;0;0;
30430;-31,21;15,83;-31,21;15,83;26,59;4,27;26,59;4,27;0;0;
30445;-31,21;15,83;-31,21;15,83;26,38;4,09;26,38;4,09;0;0;
30463;-10,71;9,76;-10,71;9,76;26,81;3,7;26,81;3,7;0;0;
30479;-29,95;4,73;-29,95;4,73;21,42;3,89;21,42;3,89;0;0;
30497;-27,96;14,53;-27,96;14,53;17,05;3,7;17,05;3,7;0;0;
30513;-16,96;10,48;-16,96;10,48;14,03;3,58;14,03;3,58;0;0;
30531;-16,96;10,48;-16,96;10,48;17,67;3,74;17,67;3,74;0;0;
30545;-16,96;10,48;-16,96;10,48;21,45;4,1;21,45;4,1;0;0;
30562;-35,1;4,33;-35,1;4,33;20,13;4,21;20,13;4,21;0;0;
30577;-14,5;13,71;-14,5;13,71;20,49;4,13;20,49;4,13;0;0;
30594;-34,12;4,63;-34,12;4,63;18,12;4,22;18,12;4,22;0;0;
30610;-33,56;9,66;-33,56;9,66;14,21;3,93;14,21;3,93;0;0;
30627;-33,56;9,66;-33,56;9,66;10,29;3,64;10,29;3,64;0;0;
30642;-42,61;-1,78;-42,61;-1,78;10,75;3,81;10,75;3,81;0;0;
30659;-24,23;19,58;-24,23;19,58;14,88;4,39;14,88;4,39;0;0;
30674;-28,93;13,37;-28,93;13,37;13,94;4,24;13,94;4,24;0;0;
30693;-19,35;15,5;-19,35;15,5;14,37;4,63;14,37;4,63;0;0;
30709;-23,75;10,99;-23,75;10,99;13,87;4,87;13,87;4,87;0;0;
30725;-23,75;10,99;-23,75;10,99;11,88;5,13;11,88;5,13;0;0;
30741;-15,97;14,88;-15,97;14,88;8,69;4,71;8,69;4,71;0;0;
30757;-31,67;-1,5;-31,67;-1,5;7,65;4,81;7,65;4,81;0;0;
30774;-33,68;15,64;-33,68;15,64;8,51;4,99;8,51;4,99;0;0;
30791;-18,75;12,76;-18,75;12,76;7,42;5,25;7,42;5,25;0;0;
30805;-18,75;12,76;-18,75;12,76;7,22;5,4;7,22;5,4;0;0;
30822;-25,2;13,18;-25,2;13,18;7,43;5;7,43;5;0;0;
30838;-39,85;8,5;-39,85;8,5;7,08;4,73;7,08;4,73;0;0;
30854;-24,3;8,18;-24,3;8,18;7,82;4,25;7,82;4,25;0;0;
30869;-14,46;14,21;-14,46;14,21;7,41;3,62;7,41;3,62;0;0;
30886;-14,46;14,21;-14,46;14,21;7,81;3,45;7,81;3,45;0;0;
30903;-27,68;3,43;-27,68;3,43;9;3,62;9;3,62;0;0;
30919;-42,19;6,94;-42,19;6,94;8,61;3,71;8,61;3,71;0;0;
30936;-28,53;6,65;-28,53;6,65;9,3;3,63;9,3;3,63;0;0;
30953;-14,46;10,22;-14,46;10,22;8,65;3,56;8,65;3,56;0;0;
30971;-37,57;13,95;-37,57;13,95;8,76;3,48;8,76;3,48;0;0;
30988;-37,57;13,95;-37,57;13,95;8,57;3,4;8,57;3,4;0;0;
31003;-33,16;9,19;-33,16;9,19;7,26;3,41;7,26;3,41;0;0;
31020;-28,77;3,44;-28,77;3,44;7,6;3,63;7,6;3,63;0;0;
31035;-13,41;13;-13,41;13;7,66;3,8;7,66;3,8;0;0;
31053;-33,19;11,99;-33,19;11,99;7,67;3,77;7,67;3,77;0;0;
31069;-35,42;5,28;-35,42;5,28;8,05;3,75;8,05;3,75;0;0;
31085;-35,42;5,28;-35,42;5,28;8,53;3,81;8,53;3,81;0;0;
31100;-29,41;4,4;-29,41;4,4;8,79;3,35;8,79;3,35;0;0;
31118;-17,24;11,3;-17,24;11,3;8,52;3,28;8,52;3,28;0;0;
31134;-30,82;9,11;-30,82;9,11;7,73;3,39;7,73;3,39;0;0;
31149;-16,83;10,14;-16,83;10,14;7,62;3,66;7,62;3,66;0;0;
31166;-16,83;10,14;-16,83;10,14;7,4;3,77;7,4;3,77;0;0;
31189;-15,23;7,73;-15,23;7,73;7,87;4,18;7,87;4,18;0;0;
31205;-15,23;7,73;-15,23;7,73;8,81;4,46;8,81;4,46;0;0;
31222;-34,58;0,17;-34,58;0,17;9,25;5,04;9,25;5,04;0;0;
31238;-20,74;9,52;-20,74;9,52;9,84;5,3;9,84;5,3;0;0;
31255;-27,77;14,36;-27,77;14,36;9,09;5,13;9,09;5,13;0;0;
31271;-19,19;8,61;-19,19;8,61;8,55;4,85;8,55;4,85;0;0;
31289;-22,56;17,14;-22,56;17,14;7,84;4,83;7,84;4,83;0;0;
31306;-22,56;17,14;-22,56;17,14;6,44;5,18;6,44;5,18;0;0;
31323;-13,23;6,98;-13,23;6,98;7,24;4,69;7,24;4,69;0;0;
31341;-40,26;9,1;-40,26;9,1;7,08;4,53;7,08;4,53;0;0;
31360;-20,17;9,7;-20,17;9,7;8,39;4,29;8,39;4,29;0;0;
31376;-23,73;18,77;-23,73;18,77;7,75;4,41;7,75;4,41;0;0;
31393;-23,92;4,69;-23,92;4,69;8,63;4,03;8,63;4,03;0;0;
31410;-20,06;12;-20,06;12;8,49;4,02;8,49;4,02;0;0;
31428;-20,06;12;-20,06;12;7,12;4,25;7,12;4,25;0;0;
31444;-23,84;10,95;-23,84;10,95;8,78;4,44;8,78;4,44;0;0;
31462;-41,58;13,87;-41,58;13,87;8,94;4,08;8,94;4,08;0;0;
31477;-21,66;1,8;-21,66;1,8;10,54;3,86;10,54;3,86;0;0;
31494;-21,55;18,17;-21,55;18,17;9,72;4,6;9,72;4,6;0;0;
31510;-33,23;7,62;-33,23;7,62;9,96;4,29;9,96;4,29;0;0;
31526;-33,23;7,62;-33,23;7,62;9,44;4,1;9,44;4,1;0;0;
31542;-32,45;13,84;-32,45;13,84;8;4,27;8;4,27;0;0;
31560;-26,14;-1,99;-26,14;-1,99;7,91;4,75;7,91;4,75;0;0;
31574;-17,85;18,94;-17,85;18,94;7,25;4,51;7,25;4,51;0;0;
31592;-30,83;11,15;-30,83;11,15;7,17;4,47;7,17;4,47;0;0;
31607;-30,83;11,15;-30,83;11,15;7,25;4,72;7,25;4,72;0;0;
31625;-30,68;13,28;-30,68;13,28;6,81;4,81;6,81;4,81;0;0;
31640;-32,52;1,89;-32,52;1,89;7,34;4,69;7,34;4,69;0;0;
31657;-16,44;12,31;-16,44;12,31;7,34;4,02;7,34;4,02;0;0;
31674;-26,66;8,74;-26,66;8,74;7,08;3,65;7,08;3,65;0;0;
31691;-36,32;10,44;-36,32;10,44;7,24;3,38;7,24;3,38;0;0;
31705;-36,32;10,44;-36,32;10,44;7,69;3,19;7,69;3,19;0;0;
31723;-32,86;3,12;-32,86;3,12;7,71;3,49;7,71;3,49;0;0;
31740;-16,02;15,23;-16,02;15,23;8,01;3,47;8,01;3,47;0;0;
31758;-36,32;6,1;-36,32;6,1;8,13;4,02;8,13;4,02;0;0;
31774;-15,19;17,28;-15,19;17,28;8,51;4,68;8,51;4,68;0;0;
31790;-22,8;14,05;-22,8;14,05;8,04;4,48;8,04;4,48;0;0;
31806;-22,8;14,05;-22,8;14,05;7,25;4,22;7,25;4,22;0;0;
31823;-19,63;14,89;-19,63;14,89;7,81;4,01;7,81;4,01;0;0;
31840;-60,88;9,03;-60,88;9,03;7,34;3,59;7,34;3,59;0;0;
31856;46,94;10,92;46,94;10,92;11,88;3,19;11,88;3,19;0;0;
31875;-10,99;9,49;-10,99;9,49;15,68;2,89;15,68;2,89;1;0;
31892;-130,64;10;-130,64;10;25,99;3,51;25,99;3,51;1;0;
31908;-130,64;10;-130,64;10;36,31;3,98;36,31;3,98;1;0;
31926;-28,87;8,03;-28,87;8,03;35,26;4,18;35,26;4,18;1;0;
31942;-17,83;5,59;-17,83;5,59;33,81;4,45;33,81;4,45;1;0;
31959;-85,42;6,44;-85,42;6,44;36,13;4,74;36,13;4,74;1;0;
31976;-28,04;4,16;-28,04;4,16;47,95;4,61;47,95;4,61;1;0;
31992;-106,53;12,98;-106,53;12,98;43,2;4,21;43,2;4,21;1;0;
32008;-106,53;12,98;-106,53;12,98;42,69;3,78;42,69;3,78;1;0;
32025;-67,4;12,67;-67,4;12,67;50,87;3,96;50,87;3,96;1;0;
32045;-43,86;10,43;-43,86;10,43;56,85;3,72;56,85;3,72;0;0;
32066;-7,56;13,84;-7,56;13,84;46,66;3,52;46,66;3,52;0;0;
32084;-29,78;14,38;-29,78;14,38;33,23;3,44;33,23;3,44;0;0;
32103;-14,29;22,32;-14,29;22,32;28,1;3,8;28,1;3,8;0;0;
32119;-14,29;22,32;-14,29;22,32;19,14;4,03;19,14;4,03;0;0;
32135;10,12;14,43;10,12;14,43;10,61;3,9;10,61;3,9;0;0;
32151;-25,94;10,46;-25,94;10,46;13,23;3,87;13,23;3,87;0;0;
32167;-25,94;10,46;-25,94;10,46;16,67;4,05;16,67;4,05;0;0;
32182;12,04;9,71;12,04;9,71;19,97;4,24;19,97;4,24;0;0;
32199;-49,62;19,85;-49,62;19,85;22,84;4,45;22,84;4,45;0;0;
32214;-37,03;0,03;-37,03;0,03;23,44;4,41;23,44;4,41;0;0;
32231;-14,21;16,29;-14,21;16,29;20,07;5;20,07;5;0;0;
32247;-14,21;16,29;-14,21;16,29;16,09;5,29;16,09;5,29;0;0;
32262;44,83;-0,48;44,83;-0,48;17,7;5,43;17,7;5,43;0;0;
32278;-14,18;13,17;-14,18;13,17;17,73;5,54;17,73;5,54;0;0;
32295;-6,07;12,71;-6,07;12,71;18,68;5,23;18,68;5,23;0;0;
32312;-37,32;7,35;-37,32;7,35;18,63;4,81;18,63;4,81;0;0;
32329;-13,33;13,88;-13,33;13,88;18,48;4,58;18,48;4,58;0;0;
32345;-13,33;13,88;-13,33;13,88;17,07;4,11;17,07;4,11;0;0;
32361;-22,71;8,9;-22,71;8,9;11,92;4,28;11,92;4,28;0;0;
32376;-20,58;9,44;-20,58;9,44;10,02;4,23;10,02;4,23;0;0;
32393;-13,43;14,77;-13,43;14,77;7,61;4,63;7,61;4,63;0;0;
32409;-56,25;4,17;-56,25;4,17;10,99;4,49;10,99;4,49;0;0;
32427;-56,25;4,17;-56,25;4,17;13,76;4,25;13,76;4,25;0;0;
32442;-21,28;9,43;-21,28;9,43;14,14;4,1;14,14;4,1;0;0;
32458;-30,22;10,82;-30,22;10,82;14,27;4,11;14,27;4,11;0;0;
32474;-27,09;8,56;-27,09;8,56;14,82;3,63;14,82;3,63;0;0;
32490;-20;16,06;-20;16,06;12,09;3,39;12,09;3,39;0;0;
32506;-20;16,06;-20;16,06;8,89;3,58;8,89;3,58;0;0;
32522;-29,29;13,97;-29,29;13,97;7,98;3,75;7,98;3,75;0;0;
32538;-40,5;6,91;-40,5;6,91;7,75;3,13;7,75;3,13;0;0;
32554;-24,39;10,68;-24,39;10,68;8,4;3,35;8,4;3,35;0;0;
32572;-11,49;15,44;-11,49;15,44;8,31;3,33;8,31;3,33;0;0;
32589;-29,06;0,2;-29,06;0,2;8,51;3,68;8,51;3,68;0;0;
32608;-29,06;0,2;-29,06;0,2;8,4;4,18;8,4;4,18;0;0;
32626;-31,32;7,15;-31,32;7,15;7,32;4,14;7,32;4,14;0;0;
32642;-31,24;8,15;-31,24;8,15;7,78;4,51;7,78;4,51;0;0;
32658;-28,39;11,93;-28,39;11,93;7,71;4,92;7,71;4,92;0;0;
32673;-28,39;11,93;-28,39;11,93;7,31;4,93;7,31;4,93;0;0;
32691;-17,47;13,19;-17,47;13,19;7,64;4,82;7,64;4,82;0;0;
32707;-17,47;13,19;-17,47;13,19;7,88;5,08;7,88;5,08;0;0;
32722;-30,79;2,89;-30,79;2,89;7,85;4,85;7,85;4,85;0;0;
32737;-21,6;13,98;-21,6;13,98;7,7;5,05;7,7;5,05;0;0;
32755;-24,45;18,29;-24,45;18,29;7,31;4,69;7,31;4,69;0;0;
32771;-8,21;11,29;-8,21;11,29;8,5;4,75;8,5;4,75;0;0;
32787;-8,21;11,29;-8,21;11,29;9,11;4,9;9,11;4,9;0;0;
32805;-38,9;5,46;-38,9;5,46;9,01;4,99;9,01;4,99;1;0;
32823;-18,7;12,66;-18,7;12,66;8,85;4,76;8,85;4,76;1;0;
32840;-41,61;5,44;-41,61;5,44;9,77;4,77;9,77;4,77;1;0;
32856;-11,33;8,51;-11,33;8,51;11,86;4,34;11,86;4,34;1;0;
32873;-77,19;14,2;-77,19;14,2;21,61;3,9;21,61;3,9;1;0;
32890;1,78;2,87;1,78;2,87;29,43;3,9;29,43;3,9;1;0;
32905;1,78;2,87;1,78;2,87;39,09;4,09;39,09;4,09;1;0;
32922;-57,43;4,62;-57,43;4,62;43,69;4,65;43,69;4,65;1;0;
32938;132,75;14,6;132,75;14,6;51,2;4,89;51,2;4,89;1;0;
32957;-112,37;10,18;-112,37;10,18;47,77;4,98;47,77;4,98;0;0;
32977;-34,84;6,27;-34,84;6,27;52,3;4,98;52,3;4,98;0;0;
32992;-3,28;9,98;-3,28;9,98;45,05;4,67;45,05;4,67;0;0;
33010;-16,42;7,29;-16,42;7,29;36,63;4,01;36,63;4,01;0;0;
33028;-16,42;7,29;-16,42;7,29;32,77;3,17;32,77;3,17;0;0;
33046;-37,58;7,48;-37,58;7,48;25,68;3,02;25,68;3,02;0;0;
33063;-32,64;9,82;-32,64;9,82;14,64;2,69;14,64;2,69;0;0;
33078;-45,2;11,64;-45,2;11,64;11,09;2,61;11,09;2,61;0;0;
33095;-25,86;9,73;-25,86;9,73;13,84;2,56;13,84;2,56;0;0;
33111;-5;8,19;-5;8,19;16,99;2,55;16,99;2,55;0;0;
33161;-33,43;9,34;-33,43;9,34;16,72;2,78;16,72;2,78;0;0;
33176;-30,23;4,71;-30,23;4,71;17,55;2,69;17,55;2,69;0;0;
33193;-15,31;15,81;-15,31;15,81;17,44;2,81;17,44;2,81;0;0;
33211;-36,77;4,58;-36,77;4,58;16,71;2,64;16,71;2,64;0;0;
33226;-36,77;4,58;-36,77;4,58;13,42;2,6;13,42;2,6;0;0;
33245;-58,86;11,91;-58,86;11,91;12,83;2,68;12,83;2,68;0;0;
33261;-33,38;10,53;-33,38;10,53;13,74;3,05;13,74;3,05;0;0;
33275;-17,08;8,74;-17,08;8,74;13,58;2,79;13,58;2,79;0;0;
33293;-25,37;17,32;-25,37;17,32;12,26;3,23;12,26;3,23;0;0;
33308;-25,37;17,32;-25,37;17,32;10,32;3,78;10,32;3,78;0;0;
33324;5,98;6,65;5,98;6,65;9,47;4,2;9,47;4,2;0;0;
33340;-54,74;8,44;-54,74;8,44;9,54;3,81;9,54;3,81;0;0;
33357;-31,44;5,83;-31,44;5,83;11,92;3,96;11,92;3,96;0;0;
33372;-20,8;12,63;-20,8;12,63;11,82;3,56;11,82;3,56;0;0;
33388;-20,8;12,63;-20,8;12,63;12,54;3,07;12,54;3,07;0;0;
33403;-16,78;11,42;-16,78;11,42;13,54;3,09;13,54;3,09;0;0;
33419;-36,87;13,31;-36,87;13,31;10,32;3,12;10,32;3,12;0;0;
33436;-17,81;10,64;-17,81;10,64;8,59;3,24;8,59;3,24;0;0;
33454;-25,64;13,75;-25,64;13,75;7,79;3,58;7,79;3,58;0;0;
33469;-36,91;9,16;-36,91;9,16;7,57;3,6;7,57;3,6;0;0;
33485;-36,91;9,16;-36,91;9,16;7,49;3,55;7,49;3,55;0;0;
33500;-39,4;8,97;-39,4;8,97;7,32;3,23;7,32;3,23;0;0;
33517;-21,88;3,23;-21,88;3,23;8,45;3,39;8,45;3,39;0;0;
33533;-17,57;12,4;-17,57;12,4;7,82;3;7,82;3;0;0;
33548;-17,57;12,4;-17,57;12,4;7,64;2,94;7,64;2,94;0;0;
33565;-23,99;12,63;-23,99;12,63;7,29;3,37;7,29;3,37;0;0;
33585;-34,39;9,39;-34,39;9,39;7,25;3,59;7,25;3,59;0;0;
33600;-26,96;13,06;-26,96;13,06;7,77;3,97;7,77;3,97;0;0;
33618;-19,1;15,05;-19,1;15,05;7,11;3,95;7,11;3,95;0;0;
33634;-27,29;3,61;-27,29;3,61;7,53;3,96;7,53;3,96;0;0;
33651;-13,99;13,45;-13,99;13,45;8,12;4,01;8,12;4,01;0;0;
33665;-13,99;13,45;-13,99;13,45;8,33;4,19;8,33;4,19;0;0;
33680;-29,07;6,82;-29,07;6,82;8,35;4;8,35;4;0;0;
33698;-16,35;11,86;-16,35;11,86;8,36;4,06;8,36;4,06;0;0;
33716;-33,3;3,97;-33,3;3,97;8,29;3,79;8,29;3,79;0;0;
33731;-14,1;16,53;-14,1;16,53;8,18;3,9;8,18;3,9;0;0;
33749;-25,59;13,24;-25,59;13,24;8,05;3,85;8,05;3,85;0;0;
33765;-25,59;13,24;-25,59;13,24;7,88;3,96;7,88;3,96;0;0;
33782;-26,37;11,87;-26,37;11,87;7,97;3,94;7,97;3,94;0;0;
33797;-31,06;11,42;-31,06;11,42;7,43;3,86;7,43;3,86;0;0;
33814;-18,42;17,36;-18,42;17,36;8;4,24;8;4,24;0;0;
33831;-26,93;8,38;-26,93;8,38;7,32;4,14;7,32;4,14;0;0;
33847;-26,93;8,38;-26,93;8,38;6,88;3,91;6,88;3,91;0;0;
33862;-15,68;17,94;-15,68;17,94;7,02;4,18;7,02;4,18;0;0;
33877;-21,54;7,96;-21,54;7,96;6,89;4,12;6,89;4,12;0;0;
33895;-20,81;12,64;-20,81;12,64;7,56;4,12;7,56;4,12;1;0;
33912;-18,63;13,34;-18,63;13,34;6,89;3,69;6,89;3,69;1;0;
33927;-18,63;13,34;-18,63;13,34;6,86;3,68;6,86;3,68;1;0;
33943;-23,28;8,63;-23,28;8,63;7,83;3,3;7,83;3,3;1;0;
33959;-79,07;8,48;-79,07;8,48;8,79;3,52;8,79;3,52;1;0;
33974;-55,72;15,2;-55,72;15,2;19,56;3,5;19,56;3,5;1;0;
33991;38,96;16,05;38,96;16,05;26,07;3,69;26,07;3,69;1;0;
34005;38,96;16,05;38,96;16,05;33,15;3,9;33,15;3,9;1;0;
34022;49,14;10,11;49,14;10,11;46,56;3,81;46,56;3,81;1;0;
34043;-13,31;3,8;-13,31;3,8;57,41;4,27;57,41;4,27;1;0;
34061;-86,27;17,28;-86,27;17,28;53,2;4,02;53,2;4,02;0;0;
34080;-40,56;4,58;-40,56;4,58;55,53;4,52;55,53;4,52;0;0;
34096;-37,99;14,7;-37,99;14,7;49,04;4,55;49,04;4,55;0;0;
34111;-17,16;10,52;-17,16;10,52;40,15;4,43;40,15;4,43;0;0;
34126;-17,16;10,52;-17,16;10,52;22,23;4,36;22,23;4,36;0;0;
34143;-29,73;3,45;-29,73;3,45;19,43;4,15;19,43;4,15;0;0;
34162;-53,3;13;-53,3;13;15,02;3,86;15,02;3,86;0;0;
34180;-15,9;3,79;-15,9;3,79;13,53;3,6;13,53;3,6;0;0;
34197;-43,44;12,08;-43,44;12,08;20,17;3,45;20,17;3,45;0;0;
34212;-34,93;11,66;-34,93;11,66;19,87;3,76;19,87;3,76;0;0;
34229;-12,49;10,94;-12,49;10,94;20,2;3,65;20,2;3,65;0;0;
34245;-12,49;10,94;-12,49;10,94;20,37;3,44;20,37;3,44;0;0;
34260;-28,78;5,64;-28,78;5,64;18,31;3,71;18,31;3,71;0;0;
34276;-13,97;12,52;-13,97;12,52;11,12;3,68;11,12;3,68;0;0;
34292;-41,55;18,39;-41,55;18,39;9,74;3,68;9,74;3,68;0;0;
34309;-52,29;5,2;-52,29;5,2;11,4;3,79;11,4;3,79;0;0;
34325;-52,29;5,2;-52,29;5,2;12,78;4,22;12,78;4,22;0;0;
34339;-29,19;0,93;-29,19;0,93;13,83;4,35;13,83;4,35;0;0;
34356;-16,8;12,8;-16,8;12,8;13,98;4,31;13,98;4,31;0;0;
34371;-23,23;9,6;-23,23;9,6;13,83;4,14;13,83;4,14;0;0;
34387;-23,23;9,6;-23,23;9,6;12,98;3,61;12,98;3,61;0;0;
34402;-16,51;11,88;-16,51;11,88;10,72;3,6;10,72;3,6;0;0;
34419;-45,5;7,64;-45,5;7,64;10,33;3,32;10,33;3,32;0;0;
34436;-9,48;10,65;-9,48;10,65;9,88;3,05;9,88;3,05;0;0;
34452;-27,24;22,36;-27,24;22,36;9,84;3,74;9,84;3,74;0;0;
34468;-27,24;22,36;-27,24;22,36;9,6;4,71;9,6;4,71;0;0;
34484;-23,96;21,96;-23,96;21,96;9,3;5,63;9,3;5,63;0;0;
34500;-38,19;7,4;-38,19;7,4;9,04;5,89;9,04;5,89;0;0;
34516;-20,73;11,99;-20,73;11,99;8,78;6,04;8,78;6,04;0;0;
34534;-17,5;18,59;-17,5;18,59;7,05;5,97;7,05;5,97;0;0;
34553;-7,95;4,97;-7,95;4,97;10,12;5,51;10,12;5,51;1;0;
34570;-117,38;23,07;-117,38;23,07;20,72;4,92;20,72;4,92;1;0;
34586;-117,38;23,07;-117,38;23,07;30,84;4,55;30,84;4,55;1;0;
34600;-20,47;10,68;-20,47;10,68;46,42;4,42;46,42;4,42;1;0;
34616;71,09;11,15;71,09;11,15;59,91;4,29;59,91;4,29;1;0;
34635;7,21;7,25;7,21;7,25;66,08;4,2;66,08;4,2;0;0;
34654;47,82;16,55;47,82;16,55;68,36;3,93;68,36;3,93;0;0;
34674;-92,65;4,77;-92,65;4,77;66,63;3,86;66,63;3,86;0;0;
34691;8,39;15,08;8,39;15,08;60,33;3,95;60,33;3,95;0;0;
34705;8,39;15,08;8,39;15,08;49,92;3,63;49,92;3,63;0;0;
34723;5,46;15,08;5,46;15,08;50,23;3,84;50,23;3,84;0;0;
34741;-40,56;12,66;-40,56;12,66;48,68;3,85;48,68;3,85;0;0;
34758;-25,42;7,8;-25,42;7,8;37,07;3,55;37,07;3,55;0;0;
34777;-16,62;17,31;-16,62;17,31;30,24;3,36;30,24;3,36;0;0;
34795;-37,23;8,25;-37,23;8,25;27,07;3,28;27,07;3,28;0;0;
34817;4,5;17,97;4,5;17,97;17,16;3,34;17,16;3,34;0;0;
34835;-28,72;9,4;-28,72;9,4;11,34;3,31;11,34;3,31;0;0;
34851;-4,42;11,75;-4,42;11,75;16,58;3,53;16,58;3,53;0;0;
34866;-4,42;11,75;-4,42;11,75;22,24;3,84;22,24;3,84;0;0;
34883;-20,66;13,29;-20,66;13,29;25,11;3,72;25,11;3,72;0;0;
34900;-34,4;13,17;-34,4;13,17;30,18;3,41;30,18;3,41;0;0;
34919;-32,18;8,55;-32,18;8,55;29,99;3,56;29,99;3,56;0;0;
34936;-18,02;15,17;-18,02;15,17;23,08;3,43;23,08;3,43;0;0;
34957;-99,67;0,67;-99,67;0,67;20,03;3,66;20,03;3,66;0;0;
34975;-57,58;11,69;-57,58;11,69;24,96;3,54;24,96;3,54;0;0;
34991;-34,97;18,61;-34,97;18,61;23,14;3,97;23,14;3,97;0;0;
35007;-34,97;18,61;-34,97;18,61;23,26;3,93;23,26;3,93;0;0;
35025;-19,32;13,99;-19,32;13,99;23,42;3,98;23,42;3,98;0;0;
35041;-37,22;-2,86;-37,22;-2,86;22,05;4,7;22,05;4,7;0;0;
35058;-20,1;11,86;-20,1;11,86;18,75;4,44;18,75;4,44;0;0;
35075;8,57;9,3;8,57;9,3;12,52;4,52;12,52;4,52;0;0;
35093;-64,2;8,86;-64,2;8,86;10,92;3,91;10,92;3,91;0;0;
35109;-64,2;8,86;-64,2;8,86;12,3;3,34;12,3;3,34;0;0;
35125;-31,53;8,57;-31,53;8,57;12,22;3,29;12,22;3,29;0;0;
35141;-21,42;12,39;-21,42;12,39;13,35;2,52;13,35;2,52;0;0;
35159;-33,96;14,17;-33,96;14,17;13,14;2,65;13,14;2,65;0;0;
35176;-25,55;5,25;-25,55;5,25;11,34;2,7;11,34;2,7;0;0;
35193;-12,4;11,18;-12,4;11,18;9,7;3,13;9,7;3,13;0;0;
35211;-19,8;10,82;-19,8;10,82;10,02;3,4;10,02;3,4;0;0;
35228;-20,45;11,53;-20,45;11,53;12,58;3,28;12,58;3,28;0;0;
35244;-20,45;11,53;-20,45;11,53;13,57;3,29;13,57;3,29;0;0;
35259;-28,4;11,17;-28,4;11,17;14,2;3,42;14,2;3,42;0;0;
35275;-16,36;13,7;-16,36;13,7;13,91;3,64;13,91;3,64;0;0;
35292;-36,12;13,47;-36,12;13,47;13,17;3,67;13,17;3,67;0;0;
35308;-36,12;13,47;-36,12;13,47;11,83;3,75;11,83;3,75;0;0;
35326;-26,99;7,15;-26,99;7,15;9,65;3,87;9,65;3,87;0;0;
35342;-31,97;6,07;-31,97;6,07;8,69;4,34;8,69;4,34;0;0;
35358;-10,49;7,94;-10,49;7,94;8,69;3,98;8,69;3,98;0;0;
35376;-28,51;11,31;-28,51;11,31;8,26;4,02;8,26;4,02;0;0;
35392;-15,54;13,44;-15,54;13,44;8,21;4,11;8,21;4,11;0;0;
35410;-27,4;9,95;-27,4;9,95;7,4;3,97;7,4;3,97;0;0;
35425;-27,4;9,95;-27,4;9,95;7,22;3,64;7,22;3,64;0;0;
35441;-11,67;14,73;-11,67;14,73;7,8;3,56;7,8;3,56;0;0;
35458;-34;8,31;-34;8,31;7,2;3,51;7,2;3,51;1;0;
35479;-21,45;21,52;-21,45;21,52;7,73;3,93;7,73;3,93;1;0;
35496;-23,41;16,56;-23,41;16,56;7,08;4,24;7,08;4,24;1;0;
35513;-14,64;15,82;-14,64;15,82;16,02;4,46;16,02;4,46;1;0;
35531;23,06;13,78;23,06;13,78;29,05;4,65;29,05;4,65;1;0;
35547;23,06;13,78;23,06;13,78;40,5;4,7;40,5;4,7;1;0;
35565;-41,48;13,92;-41,48;13,92;44,55;5,04;44,55;5,04;1;0;
35581;-151,45;6,03;-151,45;6,03;53,24;4,31;53,24;4,31;1;0;
35596;-82,4;12,75;-82,4;12,75;55,6;4,1;55,6;4,1;0;0;
35618;47,23;9,61;47,23;9,61;54,52;3,75;54,52;3,75;0;0;
35635;-29,08;6,08;-29,08;6,08;44,49;3,26;44,49;3,26;0;0;
35651;-11,11;15,63;-11,11;15,63;32,6;2,99;32,6;2,99;0;0;
35666;-11,11;15,63;-11,11;15,63;28,72;3,03;28,72;3,03;0;0;
35681;-23,65;1,74;-23,65;1,74;20,2;3,22;20,2;3,22;0;0;
35697;-19,51;20,33;-19,51;20,33;14,21;4,15;14,21;4,15;0;0;
35712;-34,71;9,39;-34,71;9,39;11,3;4,54;11,3;4,54;0;0;
35728;40,97;9,53;40,97;9,53;22,5;4,63;22,5;4,63;0;0;
35746;40,97;9,53;40,97;9,53;34,39;4,89;34,39;4,89;0;0;
35763;-18,48;18,76;-18,48;18,76;34,05;5,19;34,05;5,19;0;0;
35779;-32,81;0,78;-32,81;0,78;34,42;5,09;34,42;5,09;0;0;
35795;-33,93;6;-33,93;6;36,03;4,6;36,03;4,6;0;0;
35811;-18,03;9,45;-18,03;9,45;31,12;4,01;31,12;4,01;0;0;
35827;-18,03;9,45;-18,03;9,45;19,51;3,75;19,51;3,75;0;0;
35842;-58,35;15,11;-58,35;15,11;11,86;3,84;11,86;3,84;0;0;
35861;-49,98;18,67;-49,98;18,67;12,16;3,79;12,16;3,79;0;0;
35876;-49,98;18,67;-49,98;18,67;10,57;3,52;10,57;3,52;0;0;
35893;-21,48;18,56;-21,48;18,56;11,35;4,28;11,35;4,28;0;0;
35906;-21,48;18,56;-21,48;18,56;12,15;4,86;12,15;4,86;0;0;
35922;-24,76;12,77;-24,76;12,77;12,22;4,97;12,22;4,97;0;0;
35938;-18,13;8,09;-18,13;8,09;11,23;4,85;11,23;4,85;0;0;
35955;-27,06;9,25;-27,06;9,25;10,66;4,75;10,66;4,75;0;0;
35971;-8,33;19,59;-8,33;19,59;10,69;4,26;10,69;4,26;0;0;
35987;-8,33;19,59;-8,33;19,59;11,02;3,82;11,02;3,82;0;0;
36002;-34,32;6,65;-34,32;6,65;13,22;3,45;13,22;3,45;0;0;
36018;-25,31;5,84;-25,31;5,84;13,87;3,89;13,87;3,89;0;0;
36033;-18,84;16,79;-18,84;16,79;13,1;4,12;13,1;4,12;0;0;
36051;-20,73;12,8;-20,73;12,8;13,02;4,16;13,02;4,16;0;0;
36070;-19,07;10,26;-19,07;10,26;11,1;4,03;11,1;4,03;0;0;
36086;-19,07;10,26;-19,07;10,26;7,1;3,96;7,1;3,96;0;0;
36102;-21,7;10,23;-21,7;10,23;6,48;3,9;6,48;3,9;0;0;
36118;-21,06;18,39;-21,06;18,39;6,52;3,64;6,52;3,64;0;0;
36133;-23,99;12,96;-23,99;12,96;7,28;3,74;7,28;3,74;0;0;
36148;-23,99;12,96;-23,99;12,96;7,61;3,49;7,61;3,49;0;0;
36165;-42,94;10,33;-42,94;10,33;9,43;3,31;9,43;3,31;0;0;
36182;-56,82;2,51;-56,82;2,51;11,52;3,36;11,52;3,36;0;0;
36200;-52,2;6,69;-52,2;6,69;14,89;3,24;14,89;3,24;0;0;
36216;-76,94;6,97;-76,94;6,97;18,14;3,28;18,14;3,28;0;0;
36233;80,6;20,67;80,6;20,67;25,68;3,63;25,68;3,63;0;0;
36248;10,98;3,83;10,98;3,83;30,23;4,05;30,23;4,05;0;0;
36264;10,98;3,83;10,98;3,83;35,88;4,53;35,88;4,53;0;0;
36282;-1,48;9,12;-1,48;9,12;39,83;4,36;39,83;4,36;0;0;
36297;-56,26;4,53;-56,26;4,53;38,65;4,22;38,65;4,22;0;0;
36313;-10,98;15,6;-10,98;15,6;40,25;4,37;40,25;4,37;1;0;
36329;-75,7;5,4;-75,7;5,4;39,74;3,67;39,74;3,67;1;0;
36344;-75,7;5,4;-75,7;5,4;40,1;3,23;40,1;3,23;1;0;
36364;-47,24;5,17;-47,24;5,17;53,84;3,34;53,84;3,34;1;0;
36382;32,27;11,28;32,27;11,28;65,84;3,23;65,84;3,23;0;0;
36402;-9,68;9;-9,68;9;64,52;3,44;64,52;3,44;0;0;
36422;-33,2;7,78;-33,2;7,78;59,31;3,69;59,31;3,69;0;0;
36438;-16,92;11,56;-16,92;11,56;53,03;3,67;53,03;3,67;0;0;
36455;-23,96;15,13;-23,96;15,13;41,85;3,78;41,85;3,78;0;0;
36471;-17,79;16,3;-17,79;16,3;22,73;3,8;22,73;3,8;0;0;
36489;-26,78;15,09;-26,78;15,09;11,67;3,96;11,67;3,96;0;0;
36504;-26,78;15,09;-26,78;15,09;6,76;3,76;6,76;3,76;0;0;
36519;-53,66;15,51;-53,66;15,51;15,85;4,15;15,85;4,15;0;0;
36535;-34,36;9,94;-34,36;9,94;24,1;4,33;24,1;4,33;0;0;
36553;-30,88;5,84;-30,88;5,84;26,35;4,04;26,35;4,04;0;0;
36571;-23,66;15,82;-23,66;15,82;27,38;3,78;27,38;3,78;0;0;
36586;-23,66;15,82;-23,66;15,82;28,7;3,53;28,7;3,53;0;0;
36601;-31,93;13,73;-31,93;13,73;27,14;3,19;27,14;3,19;0;0;
36619;-47,05;8,71;-47,05;8,71;13,93;2,93;13,93;2,93;0;0;
36636;-20,47;7,52;-20,47;7,52;15,25;2,91;15,25;2,91;0;0;
36651;-12,2;16,37;-12,2;16,37;17,4;3,32;17,4;3,32;0;0;
36666;-12,2;16,37;-12,2;16,37;20,46;3,74;20,46;3,74;0;0;
36683;-17,48;12,64;-17,48;12,64;22,02;4,1;22,02;4,1;0;0;
36699;-38,21;9,13;-38,21;9,13;21,4;4,25;21,4;4,25;0;0;
36713;-29,07;2,75;-29,07;2,75;20,47;4,74;20,47;4,74;0;0;
36727;-29,07;2,75;-29,07;2,75;18,18;5,01;18,18;5,01;0;0;
36742;11,31;9,48;11,31;9,48;17,23;4,65;17,23;4,65;0;0;
36759;-44,96;7,54;-44,96;7,54;15,5;4,68;15,5;4,68;0;0;
36777;8,98;10,44;8,98;10,44;16,27;4,55;16,27;4,55;0;0;
36795;-31,62;7,71;-31,62;7,71;16,55;4,71;16,55;4,71;0;0;
36812;-15,88;15,62;-15,88;15,62;15,55;4,27;15,55;4,27;0;0;
36828;-15,88;15,62;-15,88;15,62;14,77;4,06;14,77;4,06;0;0;
36845;-29,56;8,15;-29,56;8,15;10,78;3,97;10,78;3,97;0;0;
36865;-34,43;11,19;-34,43;11,19;9,33;4,12;9,33;4,12;0;0;
36882;-54,95;5,11;-54,95;5,11;11,09;3,99;11,09;3,99;0;0;
36898;-32,79;8,62;-32,79;8,62;11,12;3,64;11,12;3,64;0;0;
36914;-31,14;11,29;-31,14;11,29;11,07;3,57;11,07;3,57;0;0;
36930;-18,5;15,11;-18,5;15,11;10,67;3,7;10,67;3,7;0;0;
36947;-18,5;15,11;-18,5;15,11;10,1;3,54;10,1;3,54;0;0;
36963;-35,98;7,9;-35,98;7,9;9,84;3,62;9,84;3,62;0;0;
36982;-26,62;15,52;-26,62;15,52;7,32;3,5;7,32;3,5;0;0;
36998;-24,22;7,94;-24,22;7,94;7,68;3,66;7,68;3,66;0;0;
37015;-29,45;20,67;-29,45;20,67;10,5;3,99;10,5;3,99;0;0;
37031;-26,09;14;-26,09;14;10,43;3,77;10,43;3,77;0;0;
37047;-26,09;14;-26,09;14;9,83;3,27;9,83;3,27;0;0;
37062;-20,87;16,39;-20,87;16,39;10,57;4,12;10,57;4,12;0;0;
37078;-35,63;9,52;-35,63;9,52;10,78;4,12;10,78;4,12;0;0;
37094;-18,43;10,7;-18,43;10,7;10,55;4,17;10,55;4,17;0;0;
37110;-20,73;9,68;-20,73;9,68;8,52;4,2;8,52;4,2;0;0;
37125;-20,73;9,68;-20,73;9,68;8,45;4,6;8,45;4,6;0;0;
37142;-28,09;9,66;-28,09;9,66;9,29;4,68;9,29;4,68;0;0;
37160;-7,78;2,82;-7,78;2,82;9,58;4,62;9,58;4,62;0;0;
37177;-47,39;13,75;-47,39;13,75;12,12;4,54;12,12;4,54;0;0;
37192;101,62;17,13;101,62;17,13;18,34;4,27;18,34;4,27;0;0;
37208;-51,03;6,84;-51,03;6,84;25,26;3,9;25,26;3,9;0;0;
37225;-51,03;6,84;-51,03;6,84;32,02;3,58;32,02;3,58;0;0;
37240;-171,99;4,74;-171,99;4,74;40,24;2,95;40,24;2,95;1;0;
37257;-42,59;2,38;-42,59;2,38;51,2;3,08;51,2;3,08;1;0;
37282;-79,7;17,28;-79,7;17,28;61,39;3,48;61,39;3,48;0;0;
37308;-78,2;11,11;-78,2;11,11;57,91;3,48;57,91;3,48;0;0;
37325;-124,56;9,46;-124,56;9,46;58,75;3,68;58,75;3,68;0;0;
37344;-23,34;5,83;-23,34;5,83;56,81;4,08;56,81;4,08;0;0;
37366;-31,65;8,09;-31,65;8,09;44,42;4,04;44,42;4,04;0;0;
37391;-17,16;16,17;-17,16;16,17;30,6;3,85;30,6;3,85;0;0;
37413;-34,73;10,29;-34,73;10,29;21,37;3,46;21,37;3,46;0;0;
37434;62,71;11,41;62,71;11,41;21,61;3,47;21,61;3,47;0;0;
37456;-114,08;10,91;-114,08;10,91;18,22;3,35;18,22;3,35;0;0;
37476;-39,17;15,19;-39,17;15,19;19,57;3,79;19,57;3,79;0;0;
37495;-37,39;4,07;-37,39;4,07;22,49;4,05;22,49;4,05;0;0;
37513;-13,19;10,89;-13,19;10,89;22,6;4,23;22,6;4,23;0;0;
37532;-24,61;12,98;-24,61;12,98;20,2;4,08;20,2;4,08;0;0;
37550;-8,6;13,61;-8,6;13,61;18,99;4,1;18,99;4,1;0;0;
