Time;EMG1;EMG2;EMG3;EMG4;EMG1_F;EMG2_F;EMG3_F;EMG4_F;Note_R;Note_V;;Level 3;Joueur;Score;Notes hit;% Reussite R;Offset EMG1;Onset EMG1;% Reussite V;Offset EMG2;Onset EMG2
11;-22,51;-36,93;-17,56;-4,37;2,11;3,06;1,69;1,66;0;0;;;1;17900;139;70,70707;-15,96763;97,08589;69,69697;-39,00174;38,86062
33;-23,69;-37,91;-12,8;-4,2;2;3,05;1,79;1,81;0;0;;;2;5800;57;32,32323;-24,66522;141,383;25,25253;-39,00174;52,16042
65;-25;-37,97;-16,94;-6,43;1,81;2,99;1,99;1,82;0;0;
87;-24,32;-31,97;-15,38;-6,39;1,72;3,01;1,9;2,01;0;0;
112;-23,75;-32,93;-18,47;-2,65;1,66;3,18;1,84;1,97;0;0;
137;-22,43;-38,67;-19,73;-7,59;1,76;3,04;2,06;2,16;0;0;
159;-22,76;-37,73;-15,7;-4,25;1,79;3,02;2,1;2,11;0;0;
183;-25,91;-39,13;-15,02;-4,92;2,05;2,88;2,02;2,03;0;0;
204;-23,06;-32,57;-23,8;-5,1;2,01;2,91;2,2;2,11;0;0;
228;-23,15;-36,62;-15,66;-6,19;2,15;2,94;2,47;1,75;0;0;
248;-29,13;-39,84;-11,62;-6,43;2,33;2,62;2,49;1,64;0;0;
273;-24,87;-35,35;-19,6;-11,01;2,31;2,73;2,3;1,64;0;0;
294;-23,42;-38,18;-17,6;-5,51;2,18;2,8;2,53;1,76;0;0;
320;-25,95;-36,05;-14,66;-6,92;1,96;2,88;2,43;1,53;0;0;
343;-26,39;-36,68;-19,83;-3,5;2,02;2,57;1,9;1,56;0;0;
364;-22,02;-26,5;-15,49;-3,9;1,87;2,55;1,9;1,65;0;0;
390;-22,74;-39,11;-19,66;-11,84;1,62;2,42;1,85;1,57;0;0;
412;-23,77;-32,43;-14,01;-5,38;1,73;2,53;1,98;1,58;0;0;
436;-27,42;-43,07;-15,48;-7,41;1,71;2,68;1,65;1,53;0;0;
456;-23,97;-37,64;-16,75;-7,05;1,66;2,87;1,82;1,51;0;0;
479;-25,78;-40,66;-15,46;-1,67;1,58;3;2,02;1,56;0;0;
504;-22,81;-38,4;-19,53;-8,93;1,72;2,69;2,1;1,57;0;0;
523;-26,64;-42,23;-18,46;-3,39;1,68;2,57;2,06;1,75;0;0;
553;-23,78;-32,68;-23,7;-5,16;1,73;2,47;2,26;1,61;0;0;
574;-21;-39,92;-12,09;-3,24;1,6;2,26;2,5;1,91;0;0;
595;-25,87;-45,67;-14,78;-4,44;1,68;2,36;2,44;2,02;0;0;
619;-21,84;-37,51;-19,01;-8,05;1,65;2,56;2,33;2,24;0;0;
636;-25,13;-30,94;-15,75;-5,14;1,79;2,91;2,16;2,27;0;0;
662;-23,15;-40,61;-15,48;-6,44;1,71;2,92;1,96;2,14;0;0;
684;-23,39;-38,09;-14,24;-7,13;1,88;2,85;1,7;2,14;0;0;
718;-22,3;-42,73;-16,2;-10,4;1,96;2,89;1,54;2,13;0;0;
745;-25,35;-35,75;-11,58;-7,04;1,95;2,82;1,68;2,09;0;0;
766;-22,19;-42,08;-18,14;-11,98;1,8;2,7;1,68;2,15;0;0;
791;-22,96;-41,97;-18,08;-6,56;1,77;2,66;1,65;2,08;0;0;
815;-23,79;-37,23;-14,55;-8,05;1,6;2,72;1,72;1,94;0;0;
841;-24,67;-38,86;-17,06;-7,61;1,67;2,71;1,79;2,15;0;0;
877;-22,13;-38,23;-19,17;-6,58;1,7;2,47;1,68;1,97;0;0;
901;-22,97;-36,99;-14,27;-8,03;1,74;2,4;1,67;1,73;0;0;
925;-21,81;-35,29;-16,88;-5,09;1,78;2,53;1,66;1,77;0;0;
946;-21,79;-34,27;-15,88;-7,51;1,95;2,59;1,84;1,83;0;0;
968;-23,51;-43,34;-12,35;-8,14;1,86;2,6;1,69;1,68;0;0;
995;-22,37;-35,69;-19,06;-7,24;1,82;2,7;1,69;1,63;0;0;
1020;-25,03;-36,4;-17,04;-9,09;1,65;2,81;1,83;1,58;0;0;
1040;-25,78;-41,04;-19,49;-7,07;1,79;3,03;1,97;1,54;0;0;
1060;-23,46;-34,38;-16,01;-6,09;1,53;3,22;1,78;1,56;0;0;
1078;-26,21;-36,87;-15,89;-8,42;1,68;2,93;1,7;1,5;0;0;
1096;-23,32;-36,25;-16,86;-8,54;1,81;2,75;1,62;1,43;0;0;
1114;-24,76;-35,29;-19,06;-7,42;1,67;2,54;1,59;1,53;0;0;
1135;-25,24;-33,88;-15,94;-8,03;1,53;2,43;1,63;1,46;0;0;
1155;-24,51;-42,25;-15,34;-6,7;1,61;2,43;1,53;1,54;0;0;
1179;-22,54;-36,61;-18,58;-3,94;1,59;2,42;1,54;1,55;0;0;
1196;-23,52;-41,18;-15,92;-3,74;1,45;2,77;1,76;1,8;0;0;
1213;-26,11;-33,65;-16,33;-6,81;1,46;2,91;1,72;1,7;0;0;
1230;-26,11;-33,65;-16,33;-6,81;1,5;3,12;1,59;1,71;0;0;
1246;-23,18;-34,99;-19,12;-2,65;1,58;2,99;1,74;1,76;0;0;
1265;-24,47;-37,34;-15,72;-9,87;1,49;2,88;1,78;1,83;0;0;
1281;-22,16;-36,86;-19,04;-8,13;1,47;3,06;1,61;1,9;0;0;
1300;-24,3;-34,96;-15,65;-8,6;1,44;2,72;1,61;1,93;0;0;
1323;-25,46;-44,67;-16,2;-9,72;1,57;2,58;1,7;2,02;0;0;
1348;-26,29;-40,11;-15,11;-5,24;1,65;2,99;1,81;2,2;0;0;
1366;-26,41;-43,41;-12,39;-10,37;1,7;3,1;1,97;2,3;0;0;
1385;-21,87;-35,27;-15,43;-2,75;1,74;3,04;1,99;2,4;0;0;
1405;-22,44;-34,9;-11,22;-8,75;1,86;3,08;2,1;2,16;0;0;
1428;-25,13;-39,42;-15,57;-6,15;1,97;3,07;2,16;2,05;0;0;
1447;-27,67;-39,05;-14,67;-4,97;1,85;2,95;2,2;1,98;0;0;
1468;-23,53;-41,78;-15,27;-7,41;1,94;2,8;1,89;1,92;0;0;
1491;-23,57;-38,92;-14,78;-8,16;1,98;2,88;1,94;1,89;0;0;
1514;-27,29;-37,95;-16,91;-5,08;1,99;2,61;1,96;1,76;0;0;
1536;-24,74;-32,69;-13,85;-4,73;1,87;2,73;1,88;1,88;0;0;
1560;-24,65;-41,26;-19,69;-5,35;1,9;2,49;1,73;1,9;0;0;
1584;-32,24;-44,06;-14,94;-8,89;2;2,55;1,94;1,88;0;0;
1604;-25,78;-31,19;-16,43;-7,42;1,78;2,48;1,94;1,7;0;0;
1628;-29,28;-38,23;-18,76;-7,36;1,71;2,54;1,95;1,73;0;0;
1650;-21,65;-41,37;-16,01;-4,73;1,88;2,47;1,99;1,77;0;0;
1683;-27,44;-38,73;-18,53;-2,04;1,88;2,53;2,11;1,53;0;0;
1705;-26,56;-39,39;-19,58;-4,88;2,13;2,51;2,16;1,63;0;0;
1724;-27,73;-31,46;-17,65;-6,71;2,19;2,52;2,15;1,76;0;0;
1751;-25,22;-40,65;-15,41;-8,97;2,17;2,64;2,1;1,75;0;0;
1771;-27,66;-33,65;-17,86;-9,39;2,17;2,61;1,97;1,71;0;0;
1794;-21,97;-33,05;-15,62;-7,97;2,25;2,64;1,88;1,88;0;0;
1819;-20,47;-41,01;-19,02;-6,68;2,17;2,51;1,77;1,84;0;0;
1847;-25,49;-32,36;-13,26;-6,32;1,91;2,65;2,02;1,71;0;0;
1869;-26,21;-34,15;-14,74;-5,94;1,8;2,5;2,25;1,91;0;0;
1890;-25,13;-39,31;-15,13;-5,27;1,86;2,47;2,1;1,82;0;0;
1914;-24,84;-42,99;-16,68;-5,1;1,91;2,57;1,99;1,86;0;0;
1935;-25,35;-40,02;-18,09;-5,51;1,75;2,74;2,14;1,7;0;0;
1958;-22,53;-34,92;-13,8;-10,29;1,73;2,85;1,91;1,78;0;0;
1985;-22,56;-41,64;-16,64;-4,91;1,73;2,82;1,52;2;0;0;
2015;-26,33;-38,33;-14,99;-6,67;1,81;2,88;1,47;1,91;0;0;
2037;-26,47;-38,26;-17,98;-9,54;1,67;2,94;1,54;2,05;0;0;
2064;-25,11;-32,96;-17,98;-6,94;1,54;3,04;1,4;2,15;0;0;
2084;-22,03;-34,55;-14,47;-7,8;1,57;2,89;1,29;2,11;0;0;
2105;-27,34;-39,01;-14,93;-7,39;1,54;2,85;1,29;1,98;0;0;
2127;-21,45;-41,04;-18,96;-8,39;1,52;2,88;1,36;1,87;0;0;
2152;-23,29;-38,93;-13,83;-5,64;1,7;3,03;1,37;1,78;0;0;
2175;-22,53;-41,43;-18,49;-5,41;1,89;3,04;1,43;1,44;0;0;
2198;-24,27;-40,64;-14,57;-7,84;2,08;2,98;1,47;1,58;0;0;
2220;-24,48;-40,03;-18,42;-4,35;1,94;2,85;1,5;1,61;0;0;
2238;-25,73;-36,21;-13,95;-8,13;1,78;2,84;1,59;1,56;0;0;
2261;-20,68;-38,56;-15,55;-4,96;1,74;2,66;1,56;1,59;0;0;
2285;-24,87;-38,68;-15,13;-3,11;1,55;2,45;1,56;1,74;0;0;
2308;-25,71;-37,58;-14,55;-4,57;1,55;2,35;1,58;1,73;0;0;
2332;-24,78;-33,21;-14,93;-5,34;1,58;2,4;1,63;1,7;0;0;
2356;-24,96;-35,72;-14,93;-8,35;1,65;2,63;1,52;1,87;0;0;
2382;-24,69;-38,89;-14,85;-10,56;1,79;2,65;1,33;1,85;0;0;
2401;-24,95;-41,23;-16,7;-6,2;1,69;2,78;1,37;1,62;0;0;
2424;-23,43;-38,57;-16,29;-6,39;1,5;2,94;1,56;1,6;0;0;
2444;-23,95;-41,17;-19,26;-8,13;1,37;3,15;1,51;1,63;0;0;
2468;-21,67;-37,62;-17,22;-4,96;1,39;3,09;1,5;1,45;0;0;
2492;-23,05;-36,45;-18,09;-5,74;1,38;2,84;1,58;1,38;0;0;
2514;-25,15;-38,27;-19,2;-7,34;1,2;2,64;1,87;1,36;0;0;
2540;-21,93;-37,33;-17,09;-5,77;1,34;2,37;1,88;1,46;0;0;
2559;-22,74;-36,14;-15,9;-6,75;1,34;2,36;1,95;1,45;0;0;
2587;-23,04;-37,33;-18,88;-9,36;1,31;2,24;2,06;1,74;0;0;
2606;-28,06;-33,29;-17,45;-4,73;1,47;2,18;2,26;1,89;0;0;
2629;-25,15;-36,35;-18,98;-1,38;1,58;2,22;2,23;1,91;0;0;
2654;-28,35;-32,33;-21,09;-10,99;1,71;2,57;1,97;1,97;0;0;
2677;-26,92;-44,86;-16,41;-4,46;1,85;2,6;1,84;1,99;0;0;
2697;-18,04;-33,46;-14,93;-10,11;2,1;2,63;1,61;1,81;0;0;
2718;-25,57;-35,36;-21,64;-7,68;2,22;2,57;1,63;1,61;0;0;
2737;-24,49;-39,91;-9,32;-7,05;2,04;2,71;1,65;1,62;0;0;
2766;-23,06;-40,86;-17,18;-9,27;2,07;2,72;1,89;1,71;0;0;
2791;-25,37;-43,46;-15,19;-5,32;1,97;2,59;1,82;1,71;0;0;
2818;-24,5;-40,92;-14,69;-5,97;2;2,7;2,19;1,81;0;0;
2840;-22,67;-34,95;-19,93;-5,98;1,87;2,68;2,18;2,01;0;0;
2860;-24,23;-41,99;-14,41;-7,42;1,75;2,69;2,03;1,85;0;0;
2883;-21,7;-39,2;-17,58;-7,36;1,82;2,5;1,85;1,75;0;0;
2904;-25,68;-37,01;-14,74;-6,41;1,78;2,52;1,96;1,81;0;0;
2923;-27,93;-39,54;-18,09;-9,4;1,85;2,51;1,88;1,52;0;0;
2950;-26,35;-37,18;-16,26;-6,04;1,81;2,54;1,79;1,44;0;0;
2978;-28,55;-37,57;-16,67;-10,34;1,78;2,56;1,76;1,53;0;0;
2997;-24,5;-41,54;-14,69;-4,97;1,83;2,65;1,9;1,52;0;0;
3021;-25,01;-32,04;-13,74;-5,93;1,96;2,89;1,96;1,5;0;0;
3043;-23,77;-38,15;-19,52;-4,35;1,77;3,1;1,92;1,74;0;0;
3066;-24,37;-36,27;-16,67;-5,08;1,77;3,18;1,99;1,67;0;0;
3086;-26,44;-37,1;-13,82;-8,35;2;2,83;2,04;1,59;0;0;
3110;-22,18;-35,01;-21,11;-10,1;2,09;2,73;2,02;1,58;0;0;
3136;-24,52;-38,41;-17,52;-12,08;2,07;2,69;1,92;1,61;0;0;
3157;-20,67;-32,79;-18,96;-6,42;2,18;2,55;1,95;1,75;0;0;
3184;-24,76;-38,05;-18,43;-6,67;2,44;2,7;1,86;1,77;0;0;
3205;-22,99;-34,54;-16,85;-4,17;2,4;2,78;2,01;1,92;0;0;
3227;-25,66;-34,09;-16,24;-7,75;2,39;2,83;2,12;1,94;0;0;
3252;-25,23;-37,24;-19,07;-6,43;2,16;3,08;2,18;1,76;0;0;
3276;-24,39;-35,18;-16,46;-5,58;2,28;3,1;2,24;1,64;0;0;
3301;-24,34;-31,82;-18,14;-6,61;1,98;3,08;2,29;1,61;0;0;
3320;-17,39;-32,38;-13,57;-5,71;2,09;2,71;2,24;1,44;0;0;
3343;-24,51;-33,98;-20,48;-4,89;2,2;2,9;1,87;1,56;0;0;
3362;-24,12;-43,17;-15,97;-6,43;2,12;2,94;1,93;1,63;0;0;
3382;-23,54;-37,07;-14,46;-6,09;2,37;2,88;1,94;1,65;0;0;
3403;-23,53;-38,14;-18,35;-4,42;2,24;2,86;1,97;1,51;0;0;
3429;-24,82;-31,2;-16,95;-7,68;2,24;2,92;1,85;1,58;0;0;
3457;-22,91;-39,38;-15,93;-6,55;1,91;2,9;1,86;1,48;0;0;
3477;-24,94;-31,81;-13,36;-6,29;2,11;2,97;2,01;1,4;0;0;
3501;-23,53;-37,99;-13,86;-7,13;1,88;3,05;2,02;1,52;0;0;
3519;-26,65;-33,99;-17,5;-4,86;1,55;2,85;2,28;1,69;0;0;
3542;-23,54;-36,71;-17,68;-9,09;1,58;2,86;2,08;1,72;0;0;
3562;-22,06;-34,52;-14,01;-5,67;1,59;2,56;2,08;1,88;0;0;
3593;-26,67;-38,79;-18,76;-4,34;1,68;2,31;1,93;1,86;0;0;
3615;-24,24;-41,76;-14,17;-9,26;1,76;2,41;1,96;1,98;0;0;
3637;-19,12;-37,58;-16,19;-7,78;1,95;2,3;2,01;1,73;0;0;
3662;-18,01;-39,6;-15,93;-7,86;2,38;2,49;1,76;1,92;0;0;
3679;-26,46;-39,05;-15,36;-8,03;2,3;2,68;1,83;1,74;0;0;
3702;-20,32;-29,19;-16,32;-7,59;2,44;2,9;1,92;1,7;0;0;
3723;-29,15;-36,93;-16,9;-7,84;2,44;2,87;1,76;1,8;0;0;
3745;-23,77;-38,8;-15,11;-5,7;2,59;2,59;1,72;1,82;0;0;
3769;-27,28;-40,9;-17,59;-6,37;2,41;2,44;2,15;2,02;0;0;
3796;-24,87;-35,96;-18,18;-8,24;2,1;2,56;2,04;2,05;0;0;
3817;-28,42;-40,16;-14,43;-3,8;2,14;2,59;2,03;2,05;0;0;
3837;-22,37;-40,88;-20,79;-9,02;1,82;2,57;1,95;2,14;0;0;
3860;-21,82;-33,11;-16,4;-6,37;1,55;2,96;1,87;2,05;0;0;
3879;-23,14;-39,14;-15,77;-5,69;1,63;3,32;1,73;1,97;0;0;
3903;-21,02;-35,81;-17,9;-7,8;1,97;3,31;1,81;1,91;0;0;
3930;-27,21;-36,59;-18,21;-5,83;2,19;3,3;1,98;1,72;0;0;
3949;-23,79;-35,98;-16,88;-9,4;2,03;3,43;1,91;1,79;0;0;
3970;-27,07;-36,93;-18,65;-8,39;2,08;3,11;1,89;1,84;0;0;
3996;-20,12;-38,63;-28,41;-8,69;2,3;2,91;2,12;1,76;0;0;
4017;-24,11;-36,82;-2,22;-8,57;1,88;2,72;8,43;1,76;0;0;
4036;-23,86;-34,09;-19,22;-6,77;1,65;2,75;10;1,74;0;0;
4059;-22,81;-40,9;-14,58;-7,05;1,46;2,5;10,1;1,83;0;0;
4084;-26,15;-36,23;-12,8;-5,8;1,43;2,3;10,17;1,8;0;0;
4106;-22,81;-40,51;-14,91;-5,52;1,61;2,27;10,13;1,83;0;0;
4126;-24,87;-37,43;-19,39;-6,21;1,48;2,37;6,87;1,87;0;0;
4149;-25,72;-32,25;-20,02;-6,54;1,63;2,35;2,33;1,77;0;0;
4170;-25,36;-40,89;-16,75;-6,55;1,62;2,44;1,66;1,81;0;0;
4194;-26,54;-40,12;-17,05;-5,25;1,68;2,55;1,64;1,86;0;0;
4218;-25,12;-44,03;-18,22;-6,2;1,7;2,78;1,93;1,83;0;0;
4244;-25,61;-33,71;-15,08;-8,39;1,52;2,99;2,05;2,15;0;0;
4265;-23,18;-38,48;-19,64;-4,83;1,45;3,07;1,98;2,26;0;0;
4287;-26,08;-36,59;-21,08;-8,66;1,5;3,03;2,03;2,16;0;0;
4311;-23,88;-41,75;-15,52;-8,69;1,52;2,9;1,95;2,21;0;0;
4332;-23,04;-38,32;-15,54;-7,02;1,59;2,87;1,9;2,44;0;0;
4354;-24,96;-37,6;-14,18;-7,89;1,54;2,84;1,73;2,27;0;0;
4376;-24,2;-36,06;-17,77;-5,44;1,54;2,8;1,95;2,01;0;0;
4402;-24,32;-38,3;-16,28;-10,71;1,49;2,8;1,77;2,01;0;0;
4424;-25,36;-35,92;-17,02;-3,73;1,42;2,77;1,66;2,03;0;0;
4448;-16,91;-38,68;-18,35;-9,93;1,48;2,88;1,92;1,98;0;0;
4473;-22,98;-34,47;-15,09;-9,56;1,53;2,68;2,02;1,9;0;0;
4491;-23,71;-34,59;-15,05;-5,35;1,86;2,54;1,86;1,97;0;0;
4517;-25,56;-39,29;-12,12;-12,76;1,88;2,21;1,83;2,18;0;0;
4537;-24,04;-41,11;-17,52;-5,64;1,99;2,31;1,99;2,07;0;0;
4561;-25,06;-40,18;-16,65;-4,54;2,29;2,39;1,75;2,05;0;0;
4585;-21,81;-40,21;-18;-8,79;2,09;2,4;1,77;1,97;0;0;
4608;-23,95;-37,36;-13,92;-7,6;1,98;2,35;1,55;1,73;0;0;
4629;-26,13;-36,5;-19,73;-6,68;1,94;2,3;1,69;1,82;0;0;
4656;-21,84;-40,02;-12,5;-6,66;2,08;2,39;1,67;1,56;0;0;
4680;-23,16;-38,96;-15,95;-7,8;2,01;2,17;1,79;1,62;0;0;
4699;-23,66;-39,62;-14,57;-7,71;2,19;2,05;2,04;1,64;0;0;
4725;-25,48;-34,71;-16,79;-7,13;2,09;2,23;2,02;1,77;0;0;
4750;-22,19;-36,24;-17;-2,41;2,09;2,12;2,19;1,82;0;0;
4768;-23,15;-37,04;-18,74;-2,49;2,22;2,15;2,05;2,16;0;0;
4790;-27,32;-39,88;-15,41;-6,37;2,2;2,14;1,87;2,28;0;0;
4812;-24,87;-38,29;-16,23;-5,86;2,29;2,33;1,89;2,33;0;0;
4830;-19,36;-41,95;-16,78;-4,9;2,24;2,5;1,83;2,28;0;0;
4852;-27,86;-29,26;-18,48;-6,93;2,41;2,83;1,7;1,96;0;0;
4878;-27,62;-37,17;-13,6;-6,86;2,26;2,9;2,05;1,62;0;0;
4897;-25,95;-32,81;-15,61;-8,38;2,15;3,05;2,48;1,66;0;0;
4921;-24,5;-32,56;-14,19;-8,01;2,06;2,94;2,62;1,38;0;0;
4943;-24,39;-32,65;-15,81;-7,95;1,92;2,97;2,35;1,38;0;0;
4962;-22,61;-38,53;-18,83;-3,76;1,66;2,76;2,38;1,54;0;0;
4988;-28,16;-34,89;-18,86;-5,58;1,72;2,54;2,23;1,89;0;0;
5013;-26,44;-36,13;-17,75;-6,41;1,73;2,37;1,89;1,8;0;0;
5036;-28,59;-35,91;-15,04;-10,61;1,9;2,42;1,52;1,94;0;0;
5059;-25,23;-40,31;-18,13;-6,44;2,07;2,6;1,38;1,99;0;0;
5080;-26,84;-44,06;-19,78;-7,43;1,99;2,69;1,39;1,95;0;0;
5100;-22,19;-34,89;-15,84;-2,73;1,95;2,74;1,23;2,41;0;0;
5120;-21,55;-41,62;-12,3;-5,72;1,97;2,69;1,53;2,27;0;0;
5142;-25,69;-34,4;-14,67;-5,95;1,82;2,73;1,62;2,41;0;0;
5163;-25,28;-37,25;-16,76;-7,78;1,78;2,91;1,78;2,34;0;0;
5191;-23,96;-36,63;-16,33;-10,11;1,91;2,69;1,88;2,31;0;0;
5212;-21,54;-35,46;-17,6;-5,54;1,97;2,65;1,94;2,13;0;0;
5232;-26,64;-33,97;-15,68;-6,54;1,97;2,8;2,01;2,1;0;0;
5253;-28,19;-32,98;-16,16;-6,7;2,08;3,16;1,88;1,93;0;0;
5277;-23,53;-36,65;-15,8;-7,05;2,25;3;1,66;1,89;0;0;
5296;-26,21;-33,63;-15,99;-6,2;2,12;3,07;1,68;1,98;0;0;
5320;-24,85;-39,85;-16,9;-7,04;2,05;3,02;1,61;2,06;0;0;
5347;-22,01;-43,01;-11,29;-6,78;2,02;3,09;1,65;2,08;0;0;
5364;-27,55;-39,89;-14,69;-1,66;1,84;3,08;1,54;1,99;0;0;
5388;-24,49;-35,49;-16,27;-11,31;1,6;2,93;1,46;2,02;0;1;
5407;-24,67;-39,91;-17,04;-8,03;1,41;2,91;1,46;2,07;0;1;
5428;-22,54;-37,86;-18,85;-5,33;1,48;2,9;1,55;1,95;0;1;
5452;-21,51;-37,94;-14,09;-8,63;1,42;2,84;1,61;1,74;0;1;
5478;-23,72;-41,72;-18,02;-4,61;1,52;2,69;1,57;1,73;0;1;
5503;-21,45;-39,29;-14,33;-7,66;1,63;2,97;1,72;1,85;0;1;
5524;-22,88;-37,54;-14,04;-5,7;1,75;3,14;1,95;1,9;0;1;
5549;-23,63;-38,34;-18,38;-5,71;2,05;3,2;1,78;1,75;0;1;
5565;-20,99;-43,75;-15,41;-7,16;2,34;3,41;2;2,07;0;1;
5589;-27,4;-35,55;-15,13;-4,72;2,85;4,54;2,1;2,04;0;1;
5608;-18,78;-73,12;-17,24;-6,19;3,17;6,78;2,07;1,9;0;1;
5627;-23,79;-3,92;-18,08;-7,06;4,15;12,63;2,06;1,67;0;1;
5651;-25,86;-55,18;-10,02;-16,31;6,49;30,52;2,57;3,29;0;1;
5675;-32,64;-37,51;-9,66;13,8;6,47;32,11;3,4;6,96;0;1;
5697;-14,93;-102,59;-24,33;21,44;7,11;36,65;4,92;11,62;0;1;
5720;-25,18;-35,44;7,26;-14,83;6,19;31,72;6,81;16,75;0;0;
5744;-25,47;-22,71;-33,34;38,22;5,93;34,95;7,37;20,82;0;0;
5762;-21,54;-38,08;24,95;-75;4,21;26,48;9,14;26,96;0;0;
5787;-30,22;-55,52;-30,34;20,23;3,86;25,17;9,75;33,2;0;0;
5814;-18,68;-7,6;25,15;2,84;3,41;24,58;12,07;52,7;0;0;
5839;-24,09;-13,06;-15,13;17,97;3,61;22,41;11,04;57,09;0;0;
5861;-14,83;-156,66;-58,51;146,34;4,64;32,05;13,67;63,6;0;0;
5885;-29,51;-9,65;-24,53;-40,06;4,82;33,87;14,15;63,41;0;0;
5906;-23,01;-15,38;-5,49;-33,64;4,72;34,54;15,22;57,87;0;0;
5926;-14,63;-39,77;-9,14;-22,72;4,96;36,02;14,61;45,81;0;0;
5954;-25,82;-38,51;-12,63;2,65;4,38;32,99;12,12;43,15;0;0;
5982;-27,91;-37;-30,05;28,67;4,19;30,65;12,24;36,38;0;0;
6007;-26,22;-76,56;-18,24;-26,5;3,18;28,31;7,85;27,55;0;0;
6027;-24,5;35,93;-20,59;11,72;3,21;26,13;6,24;22,95;0;0;
6051;-11,48;-38,78;-7,77;-1,99;3,84;27,24;5,72;21,92;0;0;
6070;-23,52;-28,96;-28,28;5,09;3,54;27,35;6,35;20,84;0;0;
6094;-30,28;-34,42;-15,98;-22,15;3,8;28,92;6,12;16,15;0;0;
6117;-24,14;-75,85;-16,21;-8,17;3,73;27,44;5,34;15,14;0;0;
6144;-24,62;-35,44;-17,38;-11,02;3,46;26,1;5,24;15,57;0;0;
6164;-26,94;-23,04;-12,24;-64,63;3,51;26,32;4,82;16,21;0;0;
6188;-24,32;-45,81;-10,03;-30,63;2,85;21,86;3,16;16,43;0;0;
6206;-26,41;-33,32;-13,52;-21,18;2,93;21,76;2,39;15,36;0;0;
6231;-22,45;-43,12;-16,47;24,26;2,7;18,81;2,18;16,7;0;0;
6249;-22,45;-43,12;-16,47;24,26;2,74;15,39;2,03;17,44;0;0;
6273;-24,09;-51,24;-14,4;-6,58;3,65;13,84;1,71;13,9;0;0;
6301;-30,66;-18,28;-21,41;9;4,16;16,14;1,75;11,51;0;0;
6319;-19,49;-39,12;-14,59;8,08;3,88;15,58;1,83;10,89;0;0;
6341;-23,69;-31,76;-14,27;-10,73;3,69;14,75;1,87;8,87;0;0;
6360;-23,3;-43,27;-17,55;-8,37;3,64;13,43;1,89;6,76;0;0;
6380;-30,04;-7,94;-15,81;-6,29;3,06;12,63;1,76;4,3;0;0;
6402;-22,79;-35,24;-20,21;-4,81;2,66;9,82;1,85;3,49;0;0;
6430;-25,53;-39,11;-16,1;-8,62;1,96;8,09;1,61;2,97;0;0;
6455;-27,99;-28,66;-13,92;-4,38;2;8,27;1,59;2,25;0;0;
6475;-23,77;-38,02;-17,56;-6,03;2,06;7,22;1,56;2,16;0;0;
6499;-22,66;-32,21;-22,27;-7,56;1,83;7,26;1,74;2,12;0;0;
6520;-20,08;-39,74;-14,13;-4,01;1,95;5,44;1,81;2,12;0;0;
6553;-22,91;-36,16;-12,3;-8,47;1,87;4,64;1,79;2,19;0;0;
6582;-18,95;-42,06;-17,59;-5,69;1,95;4,52;1,97;2,07;0;0;
6609;-24,38;-43,17;-14,79;-6,7;1,81;4,06;1,82;2,2;0;0;
6631;-24,68;-39,73;-15,39;-5,09;2,02;4,1;1,72;2,31;0;0;
6655;-25,98;-42,35;-18,47;-1,47;1,92;3,92;1,66;2,3;0;0;
6679;-23,29;-52,16;-20,47;-6,33;1,83;4,17;1,71;2,25;0;0;
6702;-22,48;-41,77;-19,06;-9,11;1,82;4,42;1,76;2,25;0;0;
6723;-29,55;-27,94;-18,01;-7,66;1,76;4,47;1,58;1,92;0;0;
6749;-21,44;-21,82;-19,77;-6,8;1,89;6,47;1,6;2,11;0;0;
6774;-27,29;-36,48;-11,94;-7,42;1,83;7,01;1,72;2,01;0;0;
6797;-23,71;-39,54;-10,84;-7,53;1,97;6,83;1,81;1,75;0;0;
6820;-24,51;-37,23;-17,32;-6,7;2,04;6,37;2;1,7;0;0;
6845;-22,25;-35,75;-20,39;-8,06;2,14;5,9;2,2;1,55;0;0;
6865;-25,02;-40,4;-15,78;-3,01;1,9;3,83;2,37;1,6;0;0;
6886;-23,6;-41,3;-17;-5,33;1,69;2,73;2,45;1,65;0;0;
6908;-24,54;-39,44;-15,74;-3,34;1,62;2,92;2,24;1,79;0;0;
6932;-27,17;-40,75;-15,31;-6,36;1,62;3,12;2,02;1,94;0;0;
6954;-26,4;-34,2;-19,2;-5,18;1,3;2,79;1,76;1,94;0;0;
6974;-24,96;-40,29;-15,46;-6,08;1,23;3,04;1,74;2,01;0;0;
6997;-23,95;-40,13;-13,62;-7,11;1,27;3,11;1,72;1,65;0;0;
7021;-21,02;-36,56;-18,17;-9,02;1,36;2,98;1,69;1,64;0;0;
7046;-26,34;-34,27;-17,06;-8,38;1,44;2,83;1,83;1,56;0;0;
7067;-22,36;-31,67;-18,29;-8,75;1,54;2,81;1,88;1,64;0;0;
7090;-24,13;-39,68;-15,36;-8,87;1,59;2,86;1,87;1,58;0;0;
7111;-24,02;-40,08;-16,23;-3,62;1,69;2,73;1,79;1,66;0;0;
7133;-26,48;-42,76;-13,31;-7,07;1,89;3,02;1,74;1,79;0;0;
7154;-24,78;-38,76;-17,05;-8,6;1,85;2,99;1,7;1,76;0;0;
7176;-24,15;-36,35;-17,13;-6,69;1,74;3,11;1,84;1,63;0;0;
7196;-26,83;-43,79;-15,49;-5,59;1,8;3,12;2,01;1,66;0;0;
7221;-24,69;-39,33;-18,12;-9,62;1,69;3,17;1,97;1,55;0;0;
7249;-22,54;-37,45;-20,34;-4,22;1,6;3,32;2,1;1,67;0;0;
7270;-26,99;-34,96;-14,72;-6,05;1,59;3,14;2,11;1,75;0;0;
7289;-24,52;-39,18;-16,04;-6,43;1,61;3,41;2,07;1,74;0;0;
7313;-21,54;-36,21;-18,62;-6,24;1,7;3,39;1,97;1,82;0;0;
7334;-24,64;-46,93;-17,16;-5,69;1,6;3,5;1,68;1,83;0;0;
7354;-24,88;-42,69;-15,8;-6,61;1,85;3,16;1,79;1,77;0;0;
7374;-25,87;-33,74;-19,07;-7,43;1,77;3,63;1,52;1,78;0;0;
7399;-24,26;-35,97;-15,41;-4,11;1,79;3,17;1,44;1,73;0;0;
7420;-22,53;-35,23;-18,7;-8,52;1,61;3,7;1,77;1,95;0;0;
7443;-24,72;-32,73;-12,35;-7,01;1,68;4,03;1,86;1,83;0;0;
7468;-24,98;-37,38;-17,34;-3,1;1,56;3,78;1,83;1,87;0;0;
7485;-25,67;-40,6;-13,57;-7,42;1,57;3,68;1,91;1,92;0;0;
7507;-22,27;-38,29;-19,95;26,53;1,48;3,3;1,99;4,87;0;0;
7525;-22,19;-36,87;-14,42;3,35;1,48;3,13;1,89;8,77;0;0;
7554;-23,88;-38,7;-16,37;-1,31;1,62;2,67;1,82;9,1;0;0;
7574;-23,4;-39,05;-16,36;-7,12;1,53;2,48;1,71;9,14;0;0;
7599;-23,03;-38,64;-17,25;-5,19;1,7;2,47;1,71;9,12;0;0;
7620;-26,82;-38,31;-19,68;-11,23;1,63;2,66;1,62;8,59;0;0;
7643;-26,48;-38,78;-17,54;-9,26;1,62;2,84;1,93;4,41;0;0;
7668;-25,41;-39,97;-15,19;-8,67;1,59;2,87;1,92;3,4;0;0;
7685;-22,06;-36,22;-17,75;-1,38;1,41;2,63;1,8;4,06;0;0;
7712;-25;-36,58;-16,33;25,63;1,3;2,67;1,76;5,65;0;0;
7734;-23,04;-31,97;-14,02;-6,61;1,48;2,91;1,8;7,29;0;0;
7756;-18,77;-35,25;-17,83;-5,09;1,88;2,66;1,89;8,87;0;0;
7777;-27,91;-37,03;-19,32;-6,98;2,08;2,69;1,66;9,92;0;0;
7800;-26,86;-35,34;-15,3;-3,73;2,17;3,2;1,47;9,35;0;1;
7823;-21,92;-34,65;-18,1;-7,44;2,2;3,4;1,52;7,91;0;1;
7842;-23,25;-30,97;-14,41;-8,37;2,34;3,42;1,63;6,57;0;1;
7870;-24,64;-43,68;-19,66;-13,47;2,37;3,49;1,95;10,61;0;1;
7888;-28,97;-51,78;-11,92;6,48;2,1;4,37;1,97;9,68;0;1;
7912;-25,87;-27,58;-16,88;-16,67;2,32;5,37;1,96;10,66;0;1;
7929;-25,87;-27,58;-16,88;-16,67;2,39;6,46;2,07;12,42;0;1;
7953;-22,19;-36,14;-17,43;-16,2;2,56;10;2,15;13,65;0;1;
7970;-22,19;-36,14;-17,43;-16,2;2,47;13,7;2,02;12,84;0;1;
7994;-32,07;6,32;-23,15;24,91;4,12;26,33;1,98;11,64;0;1;
8020;-28,67;-81,61;-14,95;-36,98;4,52;28,18;2,35;12,02;0;1;
8042;-14,24;-144,96;-8,69;49,83;5,3;37,5;3,57;19,52;0;1;
8065;-33,02;-0,95;-33,56;-41,58;6;44,82;5,67;31,11;0;1;
8089;-14,8;-184,86;-37,33;45,53;7,3;52,38;7,45;36,57;0;1;
8119;-27,54;36,07;0,77;-49,22;7,59;60,86;11,43;50,3;0;0;
8147;-0,05;10,18;-17,5;-57,38;8,32;55,61;12,61;56;0;0;
8176;-21,78;-6,25;-7,46;18,34;8,16;59,43;12,83;57,08;0;0;
8198;-11,7;-77,51;-25,03;-63,17;7,94;49,53;14,95;59,42;0;0;
8220;-17,84;-53,18;-10;-35,12;7,21;45,06;14,76;58,44;0;0;
8242;-16,04;5,6;-16,11;-15,48;6,85;31,99;12,59;48,96;0;0;
8264;-30,81;-130,96;-20,12;6,89;7,17;31,94;9,87;40,55;0;0;
8286;-54,7;-31,22;-11,22;-17,57;7,21;30,76;8,59;33,48;0;0;
8314;-33,19;-91,7;-14,58;-4,94;8,25;32,74;6,46;27,59;0;0;
8339;-18,33;-39,77;-13,42;-39,53;9,16;33,76;4,37;16,42;0;0;
8362;-26,7;-52,59;-15,56;-21,92;10,33;42,78;4,21;17,17;0;0;
8385;-19,56;-36,94;-17,59;-2,29;10,98;37,68;4,08;16,21;0;0;
8404;-28,67;-19,24;-16,12;-8;12,86;29,54;4,15;15,03;0;0;
8430;-36,11;-11,65;-21,41;-10,92;12,59;27,96;4,57;13,5;0;0;
8462;-47,26;-35,05;-17,17;-6,6;16,43;26,89;3,44;12,69;0;0;
8480;-38,53;-45,2;-19,56;-13,94;17,78;17,83;2,66;10,72;0;0;
8509;-27,71;32,41;0,01;-3,57;17,77;20,6;3,95;8,6;0;0;
8532;-13,82;-86,5;10,31;-4,6;14,69;20,84;6,75;7,77;1;0;
8558;-20,33;-158,98;-163,65;-6,85;13,15;31,29;20,28;7,59;1;0;
8580;-26,82;-35,43;-91,78;-2,52;9,39;41,3;27,8;6,65;1;0;
8602;-68,42;-29,79;15,84;-10,84;9,28;47,44;37,42;4,16;1;0;
8624;-31,34;-52,67;13,68;0,64;10,95;45,27;49,92;3,35;1;0;
8648;-23,78;-24,74;-213,43;-18,17;10,27;39,28;70,36;3,84;1;0;
8675;-60,5;-43,73;155,32;-2,72;11,1;32,59;86,55;4,04;1;0;
8700;-75,79;-33,92;-69,52;-11,4;15,98;16,74;96,8;4,42;1;0;
8723;-42,73;-54,28;181,03;-3,69;29,32;9,64;108,72;4,43;0;0;
8745;-36,81;-46,18;173,5;-10,97;50,44;9,31;120,47;4,93;0;0;
8767;68,85;-31,55;289,91;0;77,46;10,4;133,03;5,01;0;0;
8794;-272,62;-19,35;-92,98;-1,91;103,13;13,64;135,97;5,19;0;0;
8817;310,4;43,46;-166,32;-14,3;134,65;22,79;118,56;5,11;0;0;
8848;-141,83;-7,47;-101,19;-16,21;162,56;38,7;124,46;5,44;0;0;
8872;-255,61;131,52;-147,92;-16,9;160,59;67,95;126,17;5,28;0;0;
8897;288,26;110,4;198,11;-13,86;167,55;95,65;125,5;4,77;0;0;
8922;-277,24;-57,4;105,46;-17,79;176,06;95,22;105,6;5,01;0;0;
8944;-39,26;-68,31;269,77;-2,27;177,63;91,8;121,48;5,28;0;0;
8962;68,5;-35,35;-53,11;-9,34;155,04;81,12;123,35;4,86;0;0;
8987;-237,33;-60,42;-77,83;-6,88;150,62;51,62;107,08;4,55;0;0;
9014;9,57;-28,95;-200,55;1,75;129,92;26,2;115,92;4,97;0;0;
9037;287,05;-34,78;-3,26;-11,91;117,59;9,87;136,48;4,98;0;0;
9057;-26,6;-46,3;-36,45;-3,7;91,25;9,91;118,84;4,65;0;0;
9078;-30,73;-32,31;7,39;-18,8;66,06;8,93;120,08;4,55;0;0;
9108;-27,62;-33,27;-4,12;-4,54;55,44;8,66;107,1;4,43;0;0;
9129;-32,51;-36,67;-48,45;-6,77;30,79;5,44;89,7;3,91;0;0;
9153;-9,98;-55,28;-10,86;-4,71;42,08;7,38;68,6;3,4;0;0;
9173;-28,07;-43,55;7,1;-8,37;24,71;6,93;66,94;2,98;0;0;
9193;167,27;-3,52;11,95;-11,81;25,66;8,66;56,79;2,93;0;0;
9216;-13,44;-65,68;-26,72;-5,84;43,17;12,98;41,23;2,41;0;0;
9236;-24,7;-21,65;-7,28;-3,46;44,47;20,11;38,38;3,5;0;0;
9257;-22,49;-118,11;-0,52;-12,64;41,76;32,19;42,73;3,56;0;0;
9280;-26,92;-71,82;-59,77;-9,86;27,37;32,38;33,06;4,39;0;0;
9305;-48,17;9,17;-25,75;5,6;28,5;35,35;20,34;6,8;0;0;
9330;-34,5;-11,33;-18,54;-7,09;12,19;38,54;16,4;6,6;0;0;
9352;-25,44;-34,5;-13,27;-8,15;10,67;35,6;15,58;5,84;0;0;
9373;-20,13;-0,7;-15,99;-6,05;10,8;32,08;12,78;5,27;0;0;
9395;-25,18;-24,95;-18,7;-10,11;15,45;22,39;7,65;4,59;0;0;
9414;-23,04;-18,41;-17,75;-6,53;14,85;21,94;3,12;3,89;0;0;
9435;-13,1;-52,34;-16,37;-7,87;12,26;17,66;2,31;1,75;0;0;
9457;182,18;-96,39;-13,49;-6,68;18,83;24,72;2,25;1,93;0;0;
9481;-25,03;30,55;-19,76;-3,86;18,39;30,26;2,19;1,9;0;0;
9506;-25,32;-22,1;-11,74;-7,66;15,25;34,45;2,11;1,95;0;0;
9526;-24,12;-62,56;-17,57;-8,06;13,84;34,95;1,88;1,82;0;0;
9552;-22,71;-45,41;-11,36;-10,45;12,6;31,61;1,84;1,83;0;0;
9575;-30,69;-32,15;-20,05;-8,04;10,24;27,08;1,97;1,78;0;0;
9597;-26,39;-35,26;-19,42;-6,17;3,74;18,54;1,95;1,71;0;0;
9623;-75,23;-34,35;-10,55;-8,09;6,01;8,71;2,27;1,7;0;0;
9646;-23,22;-43,17;-18,91;-7,13;5,92;5,27;2,26;1,71;0;0;
9665;-27,21;-42,8;-14,04;-9,14;5,79;3,85;2,06;1,66;0;0;
9689;-18,98;-40,52;-17,35;-6,32;5,61;3,44;2,18;1,56;0;0;
9713;-23,78;-31,07;-18,34;-4,61;4,39;4,3;2,03;1,48;1;0;
9733;-25,12;-36,52;-1,67;-4,82;4,53;4,04;2,34;1,68;1;0;
9758;-23,15;-40,94;-67,74;-7,75;2,5;4,08;4,75;1,58;1;0;
9786;-24,12;-41;-63,16;-5,38;2,45;3,96;9,9;1,73;1;0;
9816;-25,49;-36,61;12,49;-5,22;2,54;4,02;17,53;1,62;1;0;
9847;-19,07;-35,34;-14,42;-6,08;2,8;3,39;22,83;1,83;1;0;
9875;-32,62;-40,73;-117,79;-10,15;12,58;2,96;31,58;1,99;1;0;
9902;-28,81;-26,05;126,59;-6,5;25,27;3,52;44,96;1,96;1;0;
9926;-44,47;-41,11;40,47;-1,55;56,28;4,33;59,57;2,11;1;0;
9954;299,48;-30,97;-100,99;61,23;88,14;6,72;69,2;4,91;1;0;
9986;-78,51;-38,86;14,77;-10,29;112,26;7,79;82,68;6,47;1;0;
10010;-210,78;-31,33;-163,19;-11,04;149,17;9,67;106,28;6,62;1;0;
10033;-92,99;-98,33;107,56;6,52;164,95;15,74;118,45;7,44;0;0;
10064;-36,09;-41,47;575,56;6,69;173,53;18,58;117,33;8,15;0;0;
10093;-181,89;-54,38;-263,75;-11,16;155,1;20,45;125,16;7,97;0;0;
10120;-138,06;-30,85;74,98;-3,82;150,49;21,44;140,07;5,22;0;0;
10155;247,67;-35,9;-163,51;1,29;147,37;20,8;126,05;5,4;0;0;
10181;23,09;-41,87;-136,49;-2,82;117,02;19,96;118,44;5,59;0;0;
10206;-10,47;-32,74;-92,15;-9,76;92,92;15,29;116,82;5,15;0;0;
10228;-163,79;-45,59;-153,39;-4,79;90,25;11,12;97,32;4,89;0;0;
10248;-34,97;-34,84;-96,5;-7,43;65,73;7,51;83,62;3,82;0;0;
10274;-4,16;-36,43;19,57;-10,49;50,81;6,41;88,1;4,35;0;0;
10303;-32,78;-34,62;-53,84;-10,31;29,51;5;74,47;3,76;0;0;
10327;12,23;-34,81;-13,25;-11,33;23,37;4,78;80,45;3,84;0;0;
10352;-31,28;-42,99;-126,74;-2,44;38,51;5,27;76,11;3,55;0;0;
10374;-24,4;-38,8;-11,69;-3,01;30,49;5,56;71,55;5,03;0;0;
10396;-23,18;-45,46;-10,38;7,54;26,18;5,11;60,51;6,57;0;0;
10423;223,51;11,15;-10,49;-11,9;40,99;8,76;40,79;6,56;0;0;
10456;-21,93;-49,09;-18,17;-1,83;41,18;15,8;26,43;6,42;0;0;
10482;-23,54;-18,18;-22,49;-4,06;29,98;18,68;19,39;5,97;0;0;
10503;-62,14;-101,57;-16,25;-5,44;33,28;22,75;12,46;5,13;0;0;
10527;-51,63;175,34;-14,65;-5,69;34,21;37,76;7,39;3,39;0;0;
10558;-20,36;-58,67;-15,23;-7,13;33,78;70,37;5,95;1,96;0;0;
10578;-30,92;387,08;-19,24;-3,64;19,97;117,66;2,1;1,74;0;0;
10600;-24,74;-83,05;-18,71;-8,85;33,4;117,23;1,82;2,07;0;0;
10621;22,96;-103,12;-14,42;-8,64;33,88;124,98;1,73;2,12;0;0;
10646;-107,17;-20,73;-17,96;-3,75;24,05;126,18;1,67;2,18;0;0;
10672;-26,84;-29,7;0,52;-9,83;20,56;98,05;3,27;2,17;0;0;
10691;-27,57;37,62;-19,08;-4,59;21,53;76,27;4,82;2,28;0;0;
10714;11,58;-18,55;-11,48;-7,29;14,77;49,28;5,99;2,01;0;0;
10740;-24,63;-214,79;-17,88;-6,87;13,31;59,72;6,03;1,77;0;0;
10759;-115,12;51,8;-14,05;-4,7;14,14;65,48;6,09;1,72;0;0;
10780;-66,94;-31,34;-19,2;-7,38;14,33;62,84;5,23;1,68;0;0;
10805;-25,49;-47,39;-12,81;-5,72;12,92;62;3,03;1,74;0;0;
10829;27,15;-69;-16,55;-8,79;16,39;47,44;2,1;1,6;0;0;
10852;-33,04;-31,95;-14,73;-7,11;11,74;42,36;1,68;1,71;0;0;
10873;-23,09;-36,47;-14,26;-9;11,95;18,85;1,71;1,83;0;0;
10895;-26,02;-42,26;-16,89;-7,83;8,48;11,85;1,56;1,77;0;0;
10916;-23,54;-38,16;-17,93;-4,2;7,13;10,7;1,69;1,85;0;0;
10942;-25,6;-40,42;-18,67;-6,81;6,82;8,8;1,72;1,86;0;0;
10963;-28,06;-42,99;-17,38;-8,58;2,95;4,8;1,81;1,93;0;0;
10986;-24,38;-38,89;-19,75;-8,03;2,64;3,24;1,79;2,01;0;0;
11004;-23,39;-36,84;-16,18;-10,31;2,48;2,72;1,83;1,93;0;0;
11025;-23,93;-34,7;-17,37;-4,18;2,54;2,49;1,7;1,99;0;0;
11048;-25,64;-40,41;-16,62;-8,39;2,59;3,2;1,5;1,83;0;0;
11069;-25,63;-43,97;-16,18;-7,38;2,47;3,27;1,33;1,72;0;0;
11091;-18,31;-36,1;-16,98;-7,43;2,2;3,09;1,32;1,71;0;0;
11117;-25,84;-35,59;-15,02;-4,6;2,23;2,94;1,33;1,72;0;0;
11136;-25,95;-43,11;-15,07;-5,71;2,23;2,59;1,66;1,84;0;0;
11157;-27,19;-46,7;-19,78;-4,73;2,07;2,55;1,65;1,92;0;0;
11181;-25,91;-36,81;-14,94;-8,05;2,36;2,6;1,85;2,12;0;0;
11205;-26,71;-32,7;-17,5;-4,38;2,32;2,98;1,73;1,99;0;0;
11228;-22,48;-35,21;-16,54;-8,57;2,27;2,92;1,72;1,96;0;0;
11248;-22,21;-35,28;-16,6;-6,49;2,44;3,24;1,66;1,85;0;0;
11275;-25,71;-33,98;-16,88;-8,66;2,45;3,27;1,71;1,92;0;0;
11293;-23,55;-36,2;-14,93;-4,99;2,16;2,9;1,5;1,89;0;0;
11316;-27,19;-34,02;-14,1;-4,56;2,12;2,91;1,66;2,12;0;0;
11336;-24,15;-33,3;-15,38;-5,91;2,2;2,82;1,71;2,36;0;0;
11355;-22,17;-39,02;-13,95;-3,37;2,27;2,73;1,78;2,23;0;0;
11374;-22,16;-37,96;-16,35;-2,85;2,09;2,77;1,61;2,31;0;0;
11394;-24,7;-35,31;-13,57;-4,1;2;2,75;1,57;2,23;0;0;
11419;-23,54;-40,5;-12,64;-4,96;1,89;2,71;1,67;2,11;0;0;
11447;-23,19;-37,23;-16,77;-9,36;1,74;2,53;1,65;1,83;0;0;
11466;-18,57;-35,72;-13,29;-8,53;1,82;2,43;1,67;1,86;0;0;
11489;-21,26;-38,35;-11,32;-9,11;1,71;2,54;1,81;1,79;0;0;
11510;-25,25;-35,58;-17,69;-4,99;1,74;2,45;1,85;1,79;0;0;
11535;-18,21;-42,09;-16,72;-1,86;1,8;2,45;1,75;1,76;0;0;
11557;-24,53;-39,98;-15,16;-8,22;1,9;2,87;1,76;2,09;0;0;
11580;-21,19;-30,58;-14,36;-3,37;1,84;3,23;1,84;1,89;1;0;
11602;-22,78;-40,16;-14,85;-5,7;1,82;3,27;1,74;1,88;1;0;
11628;-25,85;-37,19;-15,88;-4,96;1,81;3,25;1,89;1,93;1;0;
11651;-23,51;-32,88;-69,07;-3,6;1,76;3,26;9,93;1,91;1;0;
11670;-24,13;-39,59;84,75;-8,29;1,64;3,53;29,17;2,13;1;0;
11689;-26,72;-30,54;-53,64;-10,57;1,78;3,29;40,66;2,29;1;0;
11707;-27,8;-35,99;10,92;-4,82;2,03;3,26;49,64;2,44;1;0;
11734;-40,22;-38,04;-107,99;-10,6;2,5;2,98;57,33;2,46;1;0;
11757;-21,82;-42,73;-106,11;-0,89;6,85;2,91;69,14;2,59;1;0;
11782;-76,08;-35,27;186,05;-9,39;14,37;2,9;67,14;2,4;1;0;
11804;-83,33;-39,16;146,48;-2,48;16,5;2,85;66,38;2,41;1;0;
11825;-17,9;-30,33;25,27;-3,84;27,01;3,37;68,85;2,57;1;0;
11845;-13,82;-38,06;131,37;-5,57;35,5;3,53;74,2;3,04;1;0;
11870;-203,72;-43,38;156,31;-2,74;52,34;3,82;87,57;3,47;1;0;
11887;142,75;-12,05;90,73;-3,82;71,43;4,8;99,22;3,68;1;0;
11916;272,44;-29,19;45,39;-7,98;100,83;5,3;132,81;4,09;0;0;
11942;-80,91;-20,95;-39,27;-3,1;122,68;6,68;143,83;4,88;0;0;
11962;165,24;-4,96;210,2;-5,19;133,16;8,45;151,76;4,59;0;0;
11986;39,81;-72,62;-58,7;-15,14;168,5;16,02;152,74;4,69;0;0;
12006;204,08;13,89;205,99;-4,73;167,2;19,59;157,84;4,88;0;0;
12032;-61,27;-34,43;121,57;-11,9;171;21,23;161,28;5,29;0;0;
12069;43,59;-41,45;-22,54;-9,35;149,68;21,35;124,81;4,99;0;0;
12097;190,82;-14,28;-85,55;-4,62;162,81;21,52;106,82;4,27;0;0;
12123;-201,11;-42,86;-19,14;-5,91;128,47;12,02;93,37;3,59;0;0;
12142;-37,03;-37,92;-14,65;-8,65;118,59;8,58;78;3,34;0;0;
12162;-57,2;-55,28;-28,51;-8,77;106,9;7,31;52,56;2,66;0;0;
12187;-19,46;-37,3;-17,31;-5,75;78,83;5,9;49,74;2,29;0;0;
12206;-25,46;-38;65,25;-5,96;56,43;4,95;41,39;2,4;0;0;
12229;-20,45;-42,64;13,11;-7,76;41,1;4,71;34,39;2,37;0;0;
12255;146,82;-32,55;-12,42;-13,39;40,98;5,61;29,1;2,88;0;0;
12274;-23,34;-47,73;-20,36;-9,14;30,5;6,01;23,11;5,25;0;0;
12290;-23,34;-47,73;-20,36;-9,14;19,36;5,91;21,36;7,83;0;0;
12312;-14,81;-23,23;-15,05;-6,07;20,15;8,56;19,92;8,25;0;0;
12345;29,66;39;-18,43;-12,52;34,22;21,04;10,16;9,07;0;0;
12367;-5,89;-48,96;-15,18;-22,7;31,84;35,69;2,41;9,79;0;0;
12386;-19,56;20,38;-15,61;0,14;20,29;40,58;2,26;9,91;0;0;
12411;-22,27;-69,53;-15,74;-7,72;20,31;46,2;1,96;7,57;0;0;
12435;-14;39,74;-16,03;-6,74;19,84;62,14;1,86;5,76;0;0;
12456;-15,15;-217,6;-18,62;-5,92;15,43;72,45;1,64;5,31;0;0;
12477;-30,38;-74,59;-14,8;-6,1;8,83;57,39;1,72;4,1;0;0;
12498;-18,24;87,27;-18,36;-5,87;6,72;72,02;1,56;2,36;0;0;
12517;-5,12;-46,8;-19,31;-7,24;10,56;66,93;1,53;1,53;0;0;
12545;64,14;-39,68;-15,46;-3,46;17,11;61,19;1,65;1,57;0;0;
12568;-10,05;-95,29;-14,53;-6,63;18,14;50,7;1,83;1,47;0;0;
12593;-58,27;-104,43;-17,53;-5,48;25,8;51,17;1,82;1,77;0;0;
12613;-23,69;-24,62;-20,61;-6,73;24,2;45,8;1,82;1,89;0;0;
12633;-27,2;-138,66;-16,67;-5,61;26,31;39,3;1,87;1,89;0;0;
12656;-28,28;-55,23;-21,08;-7,87;20,12;47,74;1,89;1,71;0;0;
12672;-24,02;12,4;-17,06;-6,81;17,14;48,72;1,89;1,84;0;0;
12692;-50,04;-32,96;-17,98;-7,81;10,15;44,75;1,64;1,83;0;0;
12718;-25,36;-58,93;-14,49;-6,28;6,38;35,29;1,81;1,61;0;0;
12744;-30,89;-28,58;-14,24;-5,08;4,37;32,27;1,8;1,52;0;0;
12763;-26,72;-29,61;-17,11;-4,15;2,69;19,63;1,88;1,7;0;0;
12790;-24,87;-43,08;-18,03;-4,56;2,68;14,6;1,76;1,71;0;0;
12810;-18,88;-29,08;-13,15;-6,98;2,75;8,03;2,04;1,66;0;0;
12834;-26,2;-37,23;-19,88;-1,78;1,88;6,36;1,99;1,79;0;0;
12857;-20,17;-37,23;-16,11;-5,69;2,01;4,85;2,17;1,74;0;0;
12877;-28,34;-34,47;-16,64;-3,98;2,03;4,06;2,31;1,63;0;0;
12904;-23,4;-34,67;-10,28;-5,37;1,91;3,44;2,27;1,57;0;0;
12927;-26,49;-36,14;-18,65;-5,69;1,96;2,85;1,98;1,64;0;0;
12957;-22,68;-32,7;-15,47;-6,08;1,89;2,68;2,06;1,58;0;0;
12993;-24,68;-38,54;-15,76;-6,86;1,75;2,51;1,78;1,6;0;0;
13013;-21,26;-36,45;-20,76;-5,7;1,64;2,7;1,66;1,78;0;0;
13035;-28,04;-42,22;-17,7;-8,02;1,7;2,68;1,72;1,91;0;0;
13067;-28,66;-44,51;-24,16;-5,78;1,7;2,75;1,84;1,82;0;0;
13084;-28,66;-44,51;-24,16;-5,78;1,63;2,99;1,88;1,74;0;0;
13108;-23,32;-36,89;-17,45;-6,15;1,58;2,89;1,87;1,67;0;0;
13132;-25,06;-35,87;-17,13;-8,41;1,45;2,61;2,11;1,53;0;0;
13152;-21,2;-39,87;-21,63;-4,3;1,66;2,68;1,98;1,58;0;0;
13178;-24,61;-41,55;-14,01;-8,02;1,73;2,78;2,33;1,6;0;0;
13202;-20,84;-37,58;-12,53;-3,97;1,84;2,86;2,21;1,56;0;0;
13225;-23,94;-36,82;-17,42;-6,07;1,92;2,83;2,24;1,55;0;0;
13244;-23,47;-30,53;-17,23;-4,09;2,24;2,96;2,19;1,67;0;0;
13265;-21,75;-37,35;-14,07;-12,58;2,44;3,08;2,17;1,9;0;0;
13285;-25,21;-31,95;-11,45;-9,9;2,08;2,88;1,9;1,85;0;0;
13310;-23,53;-37,09;-15,8;-9,24;1,98;2,73;1,94;1,81;0;0;
13329;-20,3;-32,37;-15,59;-11,33;1,91;2,81;1,91;1,98;0;0;
13349;-23,33;-35,27;-18,58;-8,9;1,6;3,12;1,99;1,83;0;0;
13374;-23,26;-32,91;-15,62;-8,42;1,41;3,4;2,16;2;0;0;
13400;-21,17;-36,49;-16,64;-5,46;1,21;3,35;1,96;1,99;0;0;
13423;-23,14;-36,97;-19,87;-4,21;1,25;3,27;2,02;1,95;0;0;
13441;-25,32;-39,32;-16,65;-6,08;1,27;3,14;2,31;2;0;0;
13464;-26,22;-37,59;-18,76;-8,13;1,7;2,33;1,83;2,09;0;0;
13484;-23,95;-42,83;-14,78;-9,24;1,73;2,22;1,96;2,02;1;0;
13509;-22,43;-34,06;-18,04;-5,82;1,72;2,48;2,06;2,05;1;0;
13527;-21,7;-38,86;-17,2;-8,57;1,73;2,49;1,92;1,86;1;0;
13553;-22,44;-37,59;-14,64;-2,1;1,76;2,57;1,89;1,99;1;0;
13577;-26,08;-36,27;-6,01;-9,58;1,67;2,55;2,19;1,82;1;0;
13596;-12,91;-40,03;-9,44;-13,25;2,49;2,39;12,83;2,26;1;0;
13615;-51,79;-36,89;146,93;-4,19;7,08;2,39;22,87;2,37;1;0;
13636;-59,57;-39,85;-22,74;-5,99;19,65;2,74;35,22;2,59;1;0;
13657;-74,15;-36,61;22,52;-8,74;25,82;2,88;45,19;2,91;1;0;
13677;-46,14;-40,12;-44,2;-12,6;32,82;3,01;67,4;2,97;1;0;
13702;-83,42;-45,91;310,33;4,71;46,15;4,49;91,1;3,22;1;0;
13721;-43,53;-42,99;-59,15;-8,22;61,73;4,66;101,71;3,54;1;0;
13744;154,22;-33,36;185,9;-12,78;72,39;4,47;117,49;3,89;0;0;
13773;81,45;-32,92;-154,21;-4,97;86,9;5,3;130,4;3,92;0;0;
13798;189,08;-30,1;-57,82;-8,42;99,33;5,75;135,81;3,99;0;0;
13818;-434,07;-8,89;-256,84;-0,97;111,5;6,88;129,82;5,06;0;0;
13840;220,17;-70,08;-58,75;-5,13;117,37;12,5;127,48;5,06;0;0;
13872;-27,19;-3,18;-191,99;-18,24;130;16,13;134,56;5,67;0;0;
13902;-49,17;-72,69;-165,21;-8,21;119,81;18,29;122,12;6,31;0;0;
13923;-222,39;-27,14;-49,06;-8,92;141,8;19,27;109,22;5,97;0;0;
13944;251,38;-38,36;27,8;-6,53;153,26;19,94;93,54;5,01;0;0;
13965;-115,11;-30,95;-21,55;-9,55;153,83;15,62;72,94;4,29;0;0;
13987;-16,84;-22,56;-38,25;-12,07;135,77;11,73;54,89;3,86;0;0;
14006;-62,12;-45,66;-10,89;-5,71;135,5;10,96;30,1;2,64;0;0;
14034;-18,23;-43,02;70,24;-4,71;96,58;8,8;24,45;2,16;0;0;
14063;-22,17;-33,66;29,22;-3,2;76,43;7,7;22,04;2,42;0;0;
14087;-18,89;-39,95;-12,33;-7,37;39,23;6,66;17,57;2,44;0;0;
14105;-54,49;-35,96;-18,06;-7,68;38,71;6,88;15,94;2,53;0;0;
14126;-24,24;-29,82;-19,77;-5,44;25,29;5,54;13,38;2,27;0;0;
14146;-52,79;-41;-14,74;-6,74;19,33;4,73;11,41;2,29;0;0;
14166;-19,6;-21,91;-15,22;-8,96;19,44;6,39;6,99;1,99;0;0;
14192;-32,44;-40,11;-14,35;-2,2;15,27;8,65;1,99;1,98;0;0;
14213;-32,44;-40,11;-14,35;-2,2;8,72;11,57;1,88;2,41;0;0;
14242;-24,51;-47,47;-8,88;-5,34;6,71;11,83;2,14;2,31;0;0;
14264;-23,7;-35,42;-28,29;-6,41;6,23;12,83;8,68;2,33;0;0;
14283;-24,14;-70,89;-11,44;-7,45;6,45;15,01;10,96;2,3;0;0;
14305;-24,25;-5,65;-13,34;-7,48;8,28;19,73;11,48;2,01;0;0;
14324;-29,33;-75,51;-17,8;-4,34;9,11;22,6;11,42;1,96;0;0;
14348;-24,97;-52,1;-15,63;-4,13;7,25;23,76;11,39;1,77;0;0;
14369;-95,76;22,84;-17,53;-5,66;17,12;31,08;7,63;2,03;0;0;
14389;-38,15;-39,24;-15,88;-4,98;29,56;33,3;2,84;2;0;0;
14409;-22,78;-27,3;-16,15;-9,27;28,89;28,33;1,71;2,01;0;0;
14433;-24,5;-56,05;-17,67;-5,91;25,89;23,06;1,48;2,15;1;0;
14451;-26,19;-61,88;-20,32;-7,39;25,48;21,53;1,6;2,2;1;0;
14475;-4,12;-27,22;-27,02;-10,72;24,16;19,55;1,89;2,05;1;0;
14501;-26,38;-86,5;-38,3;-7,42;13,53;14,57;2,91;1,84;1;0;
14519;-20,78;-39,87;-22,78;-3,88;10,64;16,44;6,7;1,87;1;0;
14542;-79,9;-23,05;-24,78;-9,57;15,73;16,68;7,19;1,83;1;0;
14568;-24,46;-44,68;-18,06;-6,38;15,23;15,07;8,42;2,02;1;0;
14587;25,73;-43,72;-20,78;-3,36;15,46;13,78;8,49;2,04;1;0;
14609;-29,05;-40,7;-16,91;-12,69;12,51;13,09;7,9;2,09;1;0;
14631;-25,01;-30,76;-17,55;-2,53;12,43;6,39;5,18;2,25;1;0;
14654;-5,86;-42,97;-9,56;-4,11;19,75;5,91;3,46;2,1;1;0;
14679;-29,46;-38,32;-158,61;-7,43;23,82;5,77;17,13;2,1;1;0;
14698;-76,95;-36,86;-2,06;-4,61;34,94;5,48;30,47;2,14;1;0;
14719;-229,67;-51,26;-125,85;-4,91;46,07;5,43;52,86;2,44;1;0;
14742;-56,88;-54,18;-4,92;-0,59;66,82;5,69;66,09;2,75;1;0;
14763;299,51;-8,33;-141,42;-6,79;109,15;7,33;115,26;3,53;1;0;
14786;-48,16;-38,45;-245,68;-1,14;126,14;7,92;117,6;4,16;0;0;
14809;-107,37;-42,42;-2,41;2,14;134,57;8,88;132,03;4,37;0;0;
14832;67,56;-35,6;173,88;-4,38;143,87;9,6;127,87;4,23;0;0;
14857;-165,12;-34,38;-23,66;-5,83;138,54;10,72;100,17;4,07;0;0;
14883;-25,9;-40,14;-15,03;-9,55;128,03;9,97;82,43;3,78;0;0;
14902;144,24;-47,64;-12,24;-7,16;128,04;10,61;54,39;3,17;0;0;
14922;3,34;-37,33;-14,55;-9,32;107,32;9,99;34,86;6,77;0;0;
14942;-165,84;-58,22;-18,83;-13,14;122,52;10,72;15,53;7,62;0;0;
14970;-14,59;-30,11;-2,65;-6,57;101,43;10,16;7,9;7,39;0;0;
14996;-62,12;-37,89;-37,59;-3,37;86,48;10,04;9,34;7,67;0;0;
15018;-33,8;-41,59;-13,65;-29,33;71,46;8,68;10,08;8,42;0;0;
15038;-18,83;-37,15;-9,66;-1,57;49,34;7,02;10,4;8,42;0;0;
15058;-31,17;-37,6;-16,93;-11,07;40,79;5,96;10,41;7,21;0;0;
15078;-13,93;-37,56;-16,39;-3,38;14,01;3,83;8,91;6,95;0;0;
15100;-18,01;-31,59;-16,19;-6,11;8,64;2,62;3,95;6,8;0;0;
15122;-29,06;-37,06;-17,24;-6,08;16,89;3,54;2,5;6,78;0;0;
15147;-50,2;-41,06;-16,14;-5,09;19,88;3,71;1,87;5,11;0;0;
15164;-24,9;-7,51;-15,61;-5,35;19,75;6,2;1,56;2,55;0;0;
15187;14,37;-18,37;-21,19;-8;25,44;11,03;1,72;2,16;0;0;
15206;-31,45;-1,99;-16,76;-5,5;43,04;14,24;1,8;1,87;0;0;
15229;-26,52;-129,49;-15,63;-3,92;33,06;21,52;1,97;1,91;0;0;
15253;-74,98;-35,59;-14,69;-4,41;33,78;26,45;2,13;1,83;0;0;
15279;-36,96;36,41;-12,23;-6,08;30,17;34,7;2,2;1,71;0;0;
15300;-26,43;-50,94;-16,76;-8,03;30,21;31,72;2,23;1,9;0;0;
15322;-17,42;-82,15;-16,63;-6,62;10,9;34,87;2,05;1,82;0;0;
15343;-31,35;-43,09;-15,3;-5,73;6,79;32,3;1,9;1,78;0;0;
15363;-55,62;-34,98;-17,78;-11,59;7,36;21,44;1,7;1,78;0;0;
15390;-81,22;-41,4;-19,27;-7,41;7,76;19,6;1,81;1,97;0;0;
15415;-23,89;-29,15;-14,48;-10,36;8,89;11,87;1,68;1,95;1;0;
15440;-27,81;-39,9;-16,63;-5,71;8,47;10,61;1,78;2,04;1;0;
15460;-16,99;-34,64;-11,57;-10,04;12,15;5,31;1,82;2,23;1;0;
15480;-22,6;-35,84;-158,41;-11,11;13,7;4,96;6,66;2,24;1;0;
15502;-37,77;-39,26;-179,89;-8;13,31;4,59;22,68;2,24;1;0;
15522;-23,28;-46,29;36,42;-4,04;10,02;3,75;41,72;2,99;1;0;
15545;-27,63;-36,63;6,69;-15,21;10,66;3,59;57,52;3,78;1;0;
15564;28,76;-39,66;198,77;-4,81;14,35;3,13;84,51;4,33;1;0;
15590;-53,2;-37,62;-18,93;-9,85;15,29;3,43;101,81;4,51;1;0;
15614;-30,56;-39,45;-113,6;-6,04;19,57;3,56;113,25;5,15;0;0;
15636;-60;-45,07;-35,89;-16,76;31,43;3,88;112,25;5,23;0;0;
15659;19,46;-37,22;140,01;3,42;48,01;4,47;113,03;5,06;0;0;
15680;0,7;-40,06;-204,72;3,64;66,15;5,13;115;5,34;0;0;
15700;16,07;-39;59,13;-9,55;71,51;5,16;126,64;5,69;0;0;
15721;-57,52;-23,57;27,22;-10,76;86,63;5,65;131,25;6,12;0;0;
15749;-211,72;-42,69;-26,24;-12,9;93;6,38;137,42;6,2;0;0;
15772;-6,98;-49,13;280,85;18,25;114,42;6,81;138,14;5,89;0;0;
15795;-186,88;-49,31;-30,63;-8,4;123,94;8,13;146,72;6,05;0;0;
15818;-161,89;1,32;-47,12;-3,19;124,56;10,26;126,77;5,42;0;0;
15840;-183,02;-44,98;-30,5;-5,48;139,38;11,44;101,3;5,15;0;0;
15866;-66,12;-34,74;-81,75;-4,27;148,56;12,46;75,48;4,38;0;0;
15890;-147,38;-47,07;25,08;-4,35;149,91;12,94;65,82;3,78;0;0;
15920;154,68;-20,18;23,79;-7,4;147,2;13,49;35,15;2,77;0;0;
15941;-141,06;-21,98;18,61;-7,99;136,83;11,77;29,71;2,29;0;0;
15960;64,66;-40,61;-0,21;-3,9;119,12;9,46;22,53;2,04;0;0;
15982;-90,58;-50,01;69,88;-10,25;111,03;8,26;28,8;2,2;0;0;
16002;-18,65;-34,7;59,84;-0,46;73,71;5,97;42,22;3,23;0;0;
16027;-22,18;-38,44;-13,25;-13,55;58,93;4,75;39,67;3,44;0;0;
16045;-32,43;-36,22;-17,06;-6,33;49,21;4,27;34,49;3,26;0;0;
16071;-66,89;-39,47;-83,1;-2,59;43,92;4,29;34,34;3,93;0;0;
16101;47,16;-31,56;-23,04;-7,04;26,55;3,71;33,94;4,01;0;0;
16125;-25,34;-35,76;-21,28;-4,42;19,96;3,67;30,95;4,34;0;0;
16145;-29,65;-34,37;-20,64;-19,25;18,37;3,69;17,87;4,71;0;0;
16166;-15,88;-33,36;-21,13;0,01;27,91;4,02;16,61;5,82;0;0;
16188;-29,43;-46,77;-17,03;-8,09;34,32;5,86;19,61;5,52;0;0;
16206;-26,84;-51;91,57;0,52;28,16;8,67;17,72;5,32;0;0;
16232;-26,19;-14,99;-19,02;1,96;23,45;12,16;15,42;5,48;0;0;
16253;21,99;-82,38;-13,73;-14,22;29,4;17,06;14,28;6,03;0;0;
16276;-23,97;-5,99;-14,28;-4,74;19,05;21,99;13,96;5,55;0;0;
16297;-52,31;-65,57;-16,16;-7,96;18,77;32,36;12,97;4,45;0;0;
16317;-15,22;-21,47;-14,98;-4,09;19,89;32,75;8,78;4,08;0;0;
16337;-22,41;-29,07;-15,72;-6,42;26,99;30,78;2,02;3,52;0;0;
16356;-20,19;-37,63;-14,35;-1,64;22,82;29,49;1,57;2,33;0;0;
16382;0,68;-39,32;-16,65;-4,11;24,13;23,7;1,65;1,81;0;0;
16406;14,95;-17,24;-12,48;-8,36;22,87;19,52;1,88;1,78;0;0;
16427;-40,1;-102,69;-16,01;-10,55;30,64;19,6;2,06;1,7;0;0;
16453;-10,5;-59,39;-11,7;-6,39;22,25;19,57;2,39;1,71;0;0;
16473;-22,77;-22,51;-19,27;-6,74;21,24;21,87;2,51;1,72;0;0;
16490;-22,77;-22,51;-19,27;-6,74;21,46;24,75;2,6;1,53;0;0;
16513;-57,93;-44,59;-15,93;-8,57;23,44;24,04;2,61;1,49;0;0;
16535;-32,37;-35,62;-16,34;-6,31;15,36;21,04;2,32;1,59;0;0;
16555;-25,58;-34,17;-17,09;-7,29;11,67;13,9;2,04;1,53;0;0;
16577;-29,14;-36,25;-20,09;-1,31;11,55;10,02;2,02;1,64;0;0;
16599;-23,99;-36,35;-15,28;-6,41;11,05;5,97;1,92;1,73;0;0;
16623;-21;-35,86;-16,25;-6,03;8,56;3,77;1,93;1,82;0;0;
16647;-46,65;-47,36;-15,51;-5,07;6,93;3,77;1,93;1,67;0;0;
16670;-18,51;-33,43;-15,11;-6,4;7,33;3,63;2,01;1,75;0;0;
16693;-30,79;-33,27;-19,18;-8,03;7,79;4,05;2,13;1,94;0;0;
16716;-22,57;-34,02;-15,95;-6,1;7,44;4,37;1,87;1,91;0;0;
16736;-24,81;-37,38;-16,43;-5,7;7,23;4,11;1,83;2,05;0;0;
16757;-23,62;-40,67;-14,26;-8,6;5,12;3,74;2,02;2,02;0;0;
16777;-23,62;-35,26;-17,83;-11,28;2,45;3,12;2,05;2,34;0;0;
16799;-24,87;-41,13;-17,58;-9,36;2,17;2,74;1,99;2,18;0;0;
16822;-20,23;-39,16;-19,46;-9,21;1,99;2,27;1,96;2,05;0;0;
16851;-21,8;-30,32;-19,38;-6,62;2,02;2,15;2,33;2,09;0;0;
16873;-27,87;-36,17;-18,03;-4,71;2,11;2,32;2,29;1,9;0;0;
16894;-24,74;-38,68;-13,65;-4,57;2,23;2,57;2,62;1,89;0;0;
16918;-25,01;-42,35;-11,65;-7,85;2,27;2,6;2,73;2,01;0;0;
16943;-25,24;-32,87;-14,35;-10,08;1,86;2,56;2,53;1,84;0;0;
16962;-21,94;-38,97;-19,27;-12,49;2,19;2,86;2,49;2,21;0;0;
16987;-23,5;-35,65;-13,57;-11,09;2,17;2,72;2,56;2,4;0;0;
17015;-21,19;-31,67;-15,91;-5,56;2,07;2,66;2,16;2,44;0;0;
17039;-24,5;-40,67;-19,64;-8,26;1,93;2,81;2,09;2,46;0;0;
17059;-19,2;-35,64;-12,38;-7,28;1,98;2,61;2,17;2,48;0;0;
17079;-23,4;-41,01;-16,25;-8,2;1,9;2,57;2,12;2,46;0;0;
17101;-24,62;-37,68;-14,26;-10,07;1,72;2,6;1,97;2,14;0;0;
17123;-20,79;-38,16;-20,49;-11,15;1,8;2,86;2,02;2,19;0;0;
17147;-22,59;-34,26;-19,29;-11,04;1,94;2,84;2,13;2,13;0;0;
17173;-23,17;-36,23;-17,53;-11,37;1,95;3;2,03;2,28;0;0;
17194;-23,2;-42,25;-11,79;-6,94;1,92;3,2;1,76;2,34;0;0;
17217;-21,49;-39,17;-18,66;-5,9;1,86;2,91;1,81;2,17;0;0;
17241;-24,39;-38,33;-18,54;-4,7;1,79;2,72;2,1;2,04;0;0;
17263;-21,44;-34,72;-18,87;-8,41;1,72;2,49;2,14;1,75;0;0;
17280;-23,98;-39,4;-16,46;-7,86;1,77;2,27;2,31;1,35;0;0;
17300;-25,27;-39,69;-21,33;-8,02;1,9;2,2;2,26;1,22;1;0;
17324;-24,49;-35,77;-9,83;-2,39;1,8;2,15;2,89;1,39;1;0;
17348;-25,95;-41,06;-51,9;-7,17;1,83;2,41;3,84;1,78;1;0;
17365;-25,95;-41,06;-51,9;-7,17;1,9;2,6;4,87;2,1;1;0;
17389;-29,52;-40,23;-51,43;-4,45;1,94;2,9;6,53;2,14;1;0;
17406;-20,3;-35,88;-8,06;-6,09;2,38;2,95;7,68;2,14;1;0;
17433;-35,12;-37,71;-19,77;-7,43;3,32;3,02;7,55;2,18;1;0;
17454;-35,11;-37,94;-14,74;-7,89;4,97;2,75;6,91;1,97;1;0;
17478;-44,2;-30,33;-10,49;-9,75;6,32;2,75;5,87;1,77;1;0;
17496;87,8;-33,35;-13,24;-0,5;10,95;2,79;6,28;1,73;1;0;
17519;-56,63;-41,99;-17,14;-5,33;24,67;3,05;9,01;1,85;1;0;
17542;14,25;-43,63;29,05;-13,75;37,67;4,49;14,71;2,03;1;0;
17563;317,24;-27,66;-72,2;-10,77;55,85;4,99;27,2;2,17;1;0;
17584;-23,39;-53,93;109,42;-8,76;89,83;6,41;41,41;2,45;1;0;
17605;78,88;-42,77;66,99;-6,43;97,3;6,41;60,27;2,43;1;0;
17634;-320,18;-32,65;-132,71;-1,41;102,12;6,87;100,32;3,38;1;0;
17658;-94,22;6,07;-90,4;-5,06;127,32;8,76;120,69;3,85;0;0;
17681;-149,81;-59,22;-340,82;-11,39;147,48;14,48;138,1;4,55;0;0;
17703;-22,43;-51,25;-9,69;-6,91;139,8;16,11;147,88;4,84;0;0;
17726;-497,86;-10,58;-341,32;-11,33;138,43;16,69;154,25;4,67;0;0;
17750;11,94;-36,55;223,99;-17,42;150,96;17,44;147,53;5,45;0;0;
17768;-46,29;-30,87;-295,06;-3,05;129,13;17,42;135,75;5,23;0;0;
17796;25,15;-45,04;230,5;1,15;135,16;13,26;135,73;5,2;0;0;
17823;-241,23;-34,29;-47,8;-0,08;130,87;10,21;136,46;5,28;0;0;
17843;176,83;-28,78;-23,2;3,63;124,13;9,64;133,43;5,48;0;0;
17865;10,5;-32,99;27,59;-12,06;117,91;7,7;117;5,37;0;0;
17885;-168,41;-48,16;141,59;-9,52;101,37;7,38;109,79;4,52;0;0;
17912;3,23;-44,19;-12,65;-6,41;93,4;6,18;97,93;4,12;0;0;
17936;-24,77;-33,35;-31,98;-8,65;77,13;5,14;70,74;3,54;0;0;
17958;-17,64;-39,55;28,95;-9,45;46,69;4,03;45,76;2,61;0;0;
17987;-24,71;-36,58;-11,47;-12,32;33,5;3,87;42,1;2,38;0;0;
18007;32,28;-34,66;-31,63;-4,87;27,17;3,49;37,16;2,53;0;0;
18027;-35,86;-35,09;-24,46;-3,26;16,6;3,31;30,39;2,07;0;0;
18048;-24,99;-33,13;-14,72;-4,36;7,87;3,53;27,97;2,14;0;0;
18068;162,46;-23,42;0,42;-9,38;13,92;4,42;30,79;2,41;0;0;
18089;-20,73;-54,97;9,92;-3,21;17,52;4,57;23,02;2,47;0;0;
18119;-24,62;-24,89;-164,28;-4,72;21,57;6,68;29,1;2,42;0;0;
18146;-29,42;-25,74;-5,02;-4,72;24,37;8,15;27,41;2,38;0;0;
18164;-31,79;-51,51;-20,22;-3,77;28,92;9,78;25,7;2,57;0;0;
18186;-21,11;-35,26;48,48;3,87;28,94;9,8;28,21;2,91;0;0;
18212;-25,84;-41,06;-50,98;-6,68;25,23;9,02;27,05;2,66;0;0;
18233;47,55;-30,71;-32,76;-8,97;29,21;8,38;21,76;2,44;0;0;
18255;-22,01;-34,15;-14,7;-7,4;26,71;5,63;13,37;2,23;0;0;
18282;-18,23;-34,34;-20,87;-9,31;25,06;3,72;12,66;2,12;0;0;
18306;-28,41;-45,68;7,15;-6,91;23,29;3,8;8,4;1,83;0;0;
18326;110;-30,05;-18,35;-8,66;27,05;3,68;7,33;1,86;0;0;
18350;42,54;-32,33;-17,69;-6,71;17,64;3,24;4,44;1,72;0;0;
18375;2,13;-41,39;-12,2;-4,34;18,43;3,24;3,69;2;0;0;
18396;-25,11;-38,33;-18,72;-8,03;20,03;3,08;3,33;1,99;0;0;
18417;-21,51;-33;-16,29;-7,99;19,49;3,11;3,24;1,97;0;0;
18442;-69,12;-32,21;-16,89;-6,2;18,56;2,92;1,95;1,93;0;0;
18466;-41,23;-38,39;-18,32;-5,16;15,61;3,47;1,96;1,76;0;0;
18484;-20,84;-34,63;-17,36;-10,61;13,33;3,82;1,92;1,9;0;0;
18511;-24,02;-36,98;-14,93;-6,49;9,01;3,9;1,76;1,68;0;0;
18540;-22,77;-35,43;-15,26;-8,32;8,64;3,7;1,63;2,21;0;0;
18558;-59,59;-35,69;-17,1;-6,49;9,06;3,37;1,57;2,02;0;0;
18583;-24,85;-39,83;-20,74;-11,53;5,18;3,29;1,66;2,02;0;0;
18607;-21,93;-37,43;-14,9;-5,71;4,91;2,96;1,82;1,96;0;0;
18628;-27,97;-37,71;-11,39;-5,34;4,91;2,84;2,01;2,01;0;0;
18648;-24,13;-38,55;-20,81;-4,62;4,85;2,65;2,36;1,79;0;0;
18673;-21,28;-37,2;-11,84;-5,94;4,93;2,78;2,3;1,63;0;0;
18691;-20,65;-31,83;-18,81;-0,73;3,53;3,14;2,42;1,79;0;0;
18716;-27,19;-41,82;-12,11;-6,69;2,95;3,28;2,28;1,97;0;0;
18740;-24,75;-38;-13,21;-5,49;2,05;3,46;2,17;2;0;0;
18765;-27,63;-25,36;-23,31;-7,31;2,17;4,15;2,18;1,97;0;0;
18788;-23,03;-34,16;-13,33;-12,05;2,17;5,75;2,05;2,04;0;0;
18812;-23,88;-36,95;-17,01;-6,68;2,12;5,72;1,83;1,93;0;0;
18833;-22,19;-32,6;-17,03;-7,16;1,99;6,4;1,86;1,86;0;0;
18856;-20,57;-36,1;-17,44;-8,02;2,11;6,9;1,76;1,84;0;0;
18877;-24,87;-37,2;-10,77;-3,18;1,96;6,22;2,09;1,93;0;0;
18895;-19,3;-37,96;-12,56;-4,96;1,79;5,03;1,95;1,99;0;0;
18923;-23,27;-36,94;-15,39;-9,38;1,8;4,29;1,9;1,99;0;0;
18944;-23,83;-39,18;-17,22;-6,04;1,71;3,87;1,81;2,23;0;0;
18963;-24,48;-33,9;-20,17;-6,19;1,5;3,05;1,92;2,07;0;0;
18985;-25,72;-38,79;-18,72;-14,28;1,6;2,86;1,91;2,15;0;0;
19009;-23,98;-37,94;-18,29;-1,78;1,76;3,16;1,64;2,23;0;0;
19032;-22,8;-36,38;-16,79;-7,87;2,05;3,9;1,73;2,17;0;0;
19052;-24,76;-40,55;-16,74;-6,92;2,01;4,29;1,71;2,01;0;0;
19077;-25,85;-38,15;-18,49;-8,98;1,95;4,08;3;2,25;0;0;
19094;-24,33;-38,29;-13,61;-4,28;1,86;3,77;3,48;1,87;0;0;
19119;-29,17;-40,45;-11,52;-5,08;1,83;4,22;3,74;1,74;0;0;
19139;-23,68;-32,27;-17,47;-8,56;1,88;3,54;3,81;1,77;0;0;
19158;-23,83;-35,21;-15,95;-2,64;1,69;3,96;3,72;1,94;0;0;
19177;-27,26;-33,33;-19,45;-29,2;1,85;4,27;3,17;4,21;0;0;
19200;-26,87;-36,8;-7,77;-7,06;1,82;4,38;2,33;6,33;0;1;
19222;-21,83;-42,68;-15,62;30,01;1,94;4,52;2,89;8,41;0;1;
19248;-22,45;-35,36;-25,7;-49,01;2,26;4,41;4,55;12,98;0;1;
19272;-23,65;-34,69;-15,56;-6,43;2,17;4,3;5,47;14,65;0;1;
19288;-23,65;-34,69;-15,56;-6,43;2,05;4,15;6,52;16,04;0;1;
19313;-25;-34,73;-30,89;-6,81;1,93;3,99;7,59;22,28;0;1;
19336;-23,23;-33,82;2,36;-47,89;1,89;4,08;8,63;25,82;0;1;
19359;-24,87;-35,2;-14,9;-43,58;1,67;3,85;7,93;29,66;0;1;
19380;-27,53;-34,64;-12,84;-30,53;1,47;3,86;6,93;33,26;0;1;
19403;-22,64;-44,05;-20,51;-43,93;1,45;4,01;7,06;33,68;0;1;
19425;-23,05;-35,76;-16,82;3,4;1,52;3,73;7,72;31,6;0;1;
19445;-26,92;-37,71;-3,82;79,99;1,58;3,91;7,85;29,09;0;1;
19467;-20,94;-31,2;-10,13;-30,15;1,74;4,15;8,21;27,36;0;1;
19487;-19,8;-33,85;-8,69;19,74;1,99;5,3;10;32,4;0;1;
19514;-20,44;-21,09;-41,6;63,95;2,19;6,34;10,27;38,54;0;1;
19535;-7,77;-106,96;5,67;77,73;3,37;12,57;13,4;40,15;0;0;
19558;-40,69;-39,46;-17,72;70,37;4,47;20,27;13,38;45,21;0;0;
19578;-13,54;-200,97;0,64;13,05;6,37;27,83;13,92;47,39;0;0;
19600;-30,83;34,33;-55,42;-78,09;9,05;41,92;14,06;39,72;0;0;
19626;-12,1;-104,78;-7,43;-10,5;11,09;54,98;12,85;38,92;0;0;
19647;-23,77;-8,5;-27,6;-25,47;10,66;55,02;10,88;35,89;0;0;
19666;-40,31;-128,01;-16,75;12,62;11,09;65,49;10,79;33,09;0;0;
19687;-21,23;-166,58;-14,55;-57,39;9,15;60,56;9,7;30,77;0;0;
19718;-28,85;-90,57;-16,77;-11,65;9,28;66,38;10,21;29;0;0;
19745;-26,11;-32,81;-12,92;16,9;7,82;57,24;7,46;27,24;0;0;
19769;-14,83;-66,73;-25,92;-68,45;6,39;44,87;6,85;23,92;0;0;
19791;-35,67;14,79;-1,49;-0,43;6,99;52,62;7,02;22,39;0;0;
19812;-28,87;102,87;-19,89;39,69;6,89;45,83;6,75;20,21;0;0;
19836;-15,36;20,44;-18,37;4,27;6,9;42,66;6,45;17,71;0;0;
19859;-24,31;8,75;-11,25;-2,08;6,56;40,86;6,13;15,08;0;0;
19890;-25,84;-37,24;-11,86;-50,71;8,2;42,08;5,58;14,07;0;0;
19917;-24,88;38;-19,53;-0,84;10,49;46,72;5,19;13,04;1;0;
19937;-4,17;-49,04;-15,73;-47,05;11,49;41,43;4,43;13,68;1;0;
19958;62,34;-18,38;-14,54;-44,58;15,78;40,62;3,55;15,2;1;0;
19979;-99,62;1,58;-19,83;-11,98;27,82;38,23;2,92;15,19;1;0;
20000;-72,71;-75,16;-15,37;-13,12;37,46;40,04;2,41;14,3;1;0;
20024;-10,94;-75,8;-12,38;-6,18;38,91;36,51;2,16;11,9;1;0;
20048;-13,16;-20,07;-19,58;-6,7;38,24;29,45;1,82;9,96;1;0;
20073;-19,72;-101,48;-6,13;-7,29;36,85;30,42;2,44;7,01;1;0;
20095;-54,36;3,31;-23,38;-4,18;25,92;32,27;3,52;4;1;0;
20115;-19,48;-80,29;-119,23;-7,24;18,88;37,12;10;2,36;1;0;
20138;-35,73;-26,18;-41,12;-8,55;17,69;36,32;21,75;1,94;1;0;
20163;-29,98;-46,71;89,58;-7,44;17,2;34,12;44,14;1,87;1;0;
20182;-25,31;-26,76;-106,67;-2,47;15,7;30,58;54,09;1,97;1;0;
20206;-36,36;-33,13;-35,98;-1,52;14,07;21,41;67,81;2,46;1;0;
20230;-15,16;-30,98;-41,76;-3,63;10,32;16,55;70,31;2,89;1;0;
20248;12,88;-35,81;-3,86;-14,49;8,6;8,35;76;3,3;1;0;
20273;-32,25;-35,24;-76,37;-5,21;7,32;6,19;75,86;3,52;0;0;
20296;-41,72;-41,71;-152,52;-9,13;15,35;6,1;87,22;4,1;0;0;
20315;-42,05;-56,36;147,88;-2,58;38,98;6,74;101,17;4,11;0;0;
20340;-69,36;-42,47;89,73;-19,41;54;6,31;125,93;4,52;0;0;
20366;-35,02;0,45;269,08;-2,1;74,84;7,45;142,77;4,49;0;0;
20390;-10;-61,43;-135,9;5,62;113,86;11,98;154,2;4,85;0;0;
20414;-454,09;-44,61;-157,7;-8,06;157,97;14,6;144,42;6,04;0;0;
20434;71,5;38,73;-79,06;-12,88;174,53;16,45;129,39;6,08;0;0;
20457;-35,37;-74,24;-22,64;-15,49;204,81;29,07;122,85;6,23;0;0;
20477;-88,03;-23,35;14,65;-9,82;231,27;30,37;113,55;6,1;0;0;
20498;77;-37,45;152,37;-3,68;200,47;27,64;105,7;5,3;0;0;
20520;-7,58;-67,06;-5,89;-7,64;210,59;31,36;97,72;4,52;0;0;
20546;-44,98;-51,74;-0,63;-3,88;201,08;32,54;82,94;3,69;0;0;
20567;151,61;-28,92;-15,79;-1,04;152,05;22,51;67,47;3,45;0;0;
20589;61,11;-59,93;45,53;-5,88;137,26;17,41;56,78;2,95;0;0;
20610;-2,11;-47,39;-24,31;-2,89;106,89;14,48;36,58;2,9;0;0;
20634;-29,79;-38,08;-17,68;-4,46;88,52;12,51;23,66;3,18;0;0;
20658;58,23;-34,94;-34,95;-8,64;81,56;9,64;15,98;3,04;0;0;
20682;-37,18;-33,31;-2,87;0,24;71,49;7,34;13,13;3,29;0;0;
20705;-24,33;-38,3;-11,78;-4,67;54,88;6,17;15,95;3,1;0;0;
20729;-26,84;-40,97;-16,68;6,38;46,61;5,97;11,69;3,06;0;0;
20749;-26,65;-38,94;-14,26;-1,37;36,05;5,26;9,56;4,41;0;0;
20770;-26,28;-40,49;-19,73;-7,97;26,76;4,57;8,29;4,22;0;0;
20793;-109,6;-34,73;-15,98;-5,05;25,6;4,39;7,29;4,38;0;0;
20812;-32,2;-39,39;-15,75;-6,91;25,14;5,46;3,4;4,28;0;0;
20841;-125,57;25,44;-15,42;-8,39;24,57;10,35;2,75;4,36;0;0;
20866;-21,05;4,16;-20,04;-4,86;23,79;18,77;2,64;2,48;0;0;
20886;-24,3;88,74;-11,2;-6,06;22,81;31,95;2,34;1,79;0;0;
20907;-15,96;-414,06;-17,96;-6,38;23,25;70,68;3,4;1,87;0;0;
20929;-19,84;281,58;-231,48;-14,37;13,14;105,1;19;1,8;0;0;
20949;-23,67;91,24;9,3;-3,63;12,58;149;34,12;2,36;0;0;
20971;-21,91;-65,5;-15,31;-8,87;6,43;146,38;50,16;2,35;0;0;
20996;-39,97;-17,39;242,19;-14,57;14,51;142,33;71;3,1;0;0;
21016;-23,52;-75,07;-15,62;-2,81;14,68;130,9;85,81;3,85;0;0;
21038;-28,73;-12,63;4,27;-2,45;17,7;84,08;94,94;4,51;0;0;
21064;-24,96;-23,95;-10,07;-6,96;17,77;41,75;90,08;4,21;0;0;
21083;108,57;-35,02;186,35;-14,43;29,27;17,98;96,51;4,68;0;0;
21105;-17,77;-44,39;286,42;-0,48;22,8;13,25;108,01;4,71;1;0;
21126;-29,35;-34,37;-3,43;1,28;21,05;10,95;108,19;4,98;1;0;
21154;-18,76;-35,53;-231,76;-0,55;17,8;7,95;104,04;4,96;1;0;
21175;-21,72;-38,4;-152,16;-14,06;16,95;5,17;117,28;5;1;0;
21197;-34,27;-32,32;-5,58;-3;18,78;3,65;113,61;4,88;1;0;
21217;-26,29;-39,92;233,48;-2,57;9,31;3,3;112,54;4,97;1;0;
21239;-23,11;-41,15;124,21;6,44;8,89;3,16;108,41;4,53;1;0;
21270;-37,3;-38,95;-44,1;-5,63;9,5;3;109,26;4,67;1;0;
21292;-59,99;-34,54;40,11;-19,91;15,6;3,21;110,53;5,32;1;0;
21317;-41,17;-31,48;-72,24;-6,17;14,09;2,92;116,24;5,63;1;0;
21335;-79,38;-35,28;-51,32;-5,44;15,6;3,05;119,63;6,31;1;0;
21360;-10,64;-33,28;108,96;-14,4;21,81;3,16;118,83;6,6;1;0;
21380;-28,18;-36,82;-87,7;-15,15;23,28;3,28;126,68;6,55;1;0;
21400;-83,71;-42,12;0,34;-4,34;27,4;3,73;133,11;7,55;1;0;
21424;-48,48;-37,41;-101,77;-7,69;43,13;5,04;114,92;6,66;1;0;
21444;153,54;-28,24;-102,13;-7,72;68,79;5,67;120,02;6,21;0;0;
21471;-314,53;-41,05;24,13;-13,76;81,64;6,34;122,52;5,62;0;0;
21494;-94,88;-14,08;-17,24;-7,33;111,48;8,14;104,41;5,27;0;0;
21516;-33,63;-71,67;-221,84;-4,25;137,63;10,88;85,09;3,89;0;0;
21539;9,13;-56,21;-4,5;-7,13;141,29;12,96;67,98;2,9;0;0;
21560;339,65;-26,15;143,51;-7,38;139,2;14,06;78,28;3,08;0;0;
21582;38,02;-69,7;13,38;-9,06;138,47;16,52;65,43;3,11;0;0;
21601;-194,44;-35,68;-52,39;-12,9;131;17,73;61,78;2,94;0;0;
21632;-262,69;-62,2;-143,48;-2,22;146,12;17,39;54,88;2,92;0;0;
21654;188,7;-34,64;3,2;-6,27;133,87;15,36;50,32;2,9;0;0;
21676;206,9;-37,05;-29,48;-6,85;131,76;14,26;52;3,08;0;0;
21695;-189,09;-48,71;-55,34;0,55;129,04;11,83;35,89;2,73;0;0;
21718;-21,74;-48,5;6,88;-5,89;107,11;8,91;34,98;2,83;0;0;
21741;-15,44;-28,31;-48,02;-11,06;96,86;8,28;29,9;3,15;0;0;
21764;137,49;-28,99;-24,33;-1,79;75,67;6,29;23;2,93;0;0;
21798;-23,87;-30,78;-52,55;-5,79;64,32;5,47;20,34;3,49;0;0;
21820;-68,02;-35,48;-85,35;-14,04;46,94;3,78;25,08;3,56;0;0;
21843;-26,03;-36,71;1,37;-4,06;33,27;3,42;20,58;4,1;0;0;
21866;-10,27;-35,66;-15,6;-27,84;26,21;2,98;16,95;4,13;0;0;
21888;-25,06;-23,63;-18,03;-13,35;26,43;3,7;15,45;4,26;0;0;
21909;-111,16;-26,67;-17,62;-1,37;22,38;7,97;14,07;4,74;0;0;
21934;-9,2;7,51;-18,47;15,3;22,03;10,64;11,01;5,65;0;0;
21956;-36,81;-176,13;-15,66;35,43;23,02;21,7;3,26;7,48;0;0;
21977;-0,95;-21,06;-19,06;1,84;35,8;30,77;1,73;9,38;0;0;
21998;-13,47;-30,33;-14,73;-6,76;35,15;37,15;1,5;8,91;0;0;
22019;-56,34;-30,48;-13,32;-8,73;38,45;36,51;1,67;8,52;0;0;
22038;-45,93;-48,59;-18,96;-9,53;38,32;34,26;1,86;8,06;0;0;
22061;-45,53;-27,19;-14,95;-6,42;43,93;31,47;1,97;5,5;0;0;
22083;0,74;4,12;-18,06;-10,06;34,87;17,16;2,02;3,02;0;0;
22116;-27,57;-0,81;-14,57;-3,8;24,99;15,78;2,2;2,11;0;0;
22142;-47,17;-99,5;-20,59;-3,19;25,61;19,62;2,15;2,42;0;0;
22161;-23,33;-16,6;-17,04;-3,61;22,24;22,98;2,2;2,29;0;0;
22185;-19,17;-12,77;-16,25;-11,57;20,09;29,83;2,09;2,4;0;0;
22205;-55,15;-40,3;-15,11;-4,36;24,62;28,43;2,18;2,38;0;0;
22224;-23,73;-30,63;-18,89;-6,42;21,84;25,54;1,98;2,3;0;0;
22247;-21,17;-21,49;-20,85;-6,17;21,05;24;2;1,95;0;0;
22276;-26,4;-42,21;-16,16;-10,1;17,84;15,32;1,97;2,06;0;0;
22293;-23,17;-42,33;-14,99;-7,85;14,72;12,71;1,92;2,17;0;0;
22318;-27,03;-46,38;-15,94;-7,31;9,38;9,43;1,82;2,01;0;0;
22337;-22,33;-41,59;-13,52;-6,92;2,22;9,65;1,91;1,89;0;0;
22357;-22,86;-45,38;-17,99;-5,71;2,16;9,15;1,74;2;0;0;
22374;-21,82;-22,7;-16,2;-7,14;1,78;8,33;1,75;1,81;0;0;
22401;-24,56;-27,54;-21,47;-4,36;1,66;7,22;1,78;2,34;0;0;
22427;-20,53;-42,13;-18,21;-9,73;1,79;5,91;1,9;2,53;0;0;
22445;-24,53;-32,33;-16,62;-6,2;1,72;5,98;1,89;2,5;0;0;
22469;-25,34;-36,01;-15,67;-8,18;1,78;5,17;2,04;2,47;0;0;
22488;-22,05;-32,58;-16,19;-14;1,89;5,02;2,03;2,64;0;0;
22515;-25,91;-39,29;-17,76;-23,35;1,85;4,99;2,06;5,25;0;0;
22537;-24,04;-34,19;-13,59;13,03;1,77;4,86;2,36;8,26;0;0;
22557;-24,87;-42,74;-24,4;-37,64;1,74;4,72;2,53;10,37;0;0;
22582;-26,1;-28,91;-21,37;-21,16;1,74;5,08;2,84;16,03;0;0;
22603;-24,51;-30,8;-26,6;-34,25;1,61;5;3,08;20,3;0;0;
22626;-24,14;-42,68;-17,05;15,58;1,62;4,9;2,93;21,33;0;0;
22648;-27,54;-35,97;-10,75;-16,47;1,51;4,76;2,94;20,93;0;0;
22669;-25,42;-36,41;-12,72;-52,86;1,46;4,6;2,9;22,92;0;0;
22688;-22,78;-35,98;-15,48;-4,63;1,43;4,45;3,12;21,39;0;0;
22714;-26,23;-34,06;-8,53;-21,98;1,38;4;3,12;22,01;0;0;
22741;-21,53;-33,34;-19,53;-3,09;1,43;3,88;3,78;20,5;0;0;
22759;-24,37;-37,36;-12,18;9,3;1,57;3,29;4,1;22,28;0;0;
22783;-19,84;-41,06;-14,53;-81,39;1,62;2,97;4,23;23,39;0;0;
22808;-23,5;-31,7;-22,1;-7,19;1,67;3,13;4,21;23,26;0;0;
22827;-23;-43,93;-31,14;15,38;1,7;3,12;4,81;25,82;0;0;
22849;-26,46;-36,86;-30,52;48,05;1,85;3,35;5,47;34,72;0;0;
22870;-25,65;-39,44;-2,12;-105,88;1,91;3,82;6,72;39,32;0;0;
22890;-19,61;-37,37;-12,51;71,64;2,09;3,68;7,4;41,73;0;0;
22915;-25,71;-33,66;-14,93;-80,62;2,03;3,62;8,97;43,11;0;0;
22940;-26,72;-35,75;-36,44;24,52;2,12;3,73;9,87;44,21;0;0;
22958;-25,05;-34,32;-11,62;31,24;2,01;4;10,38;52,47;0;0;
22982;-21,56;-38,43;-6,51;-63,97;2,02;3,88;10,83;54,43;0;0;
23002;-29,64;-41,28;-23,44;-42,22;2,05;4,46;11,53;52,08;0;1;
23024;-24,62;-58,81;-26,76;-46,93;2,05;5,4;11,16;46,89;0;1;
23049;-27,71;-27,87;-48,43;93,71;2,25;7,24;11,7;52,36;0;1;
23073;-21,35;-16,34;-17,6;17,96;2,99;12,72;12,72;56,47;0;1;
23093;-18,07;41,61;-46,69;-18,71;4,63;22,21;13,47;50,64;0;1;
23118;-25,15;-4,52;-7,08;-28,64;5,09;29,26;12,76;51,78;0;1;
23142;-26,88;2,07;-22,28;-61,19;6,73;35,23;12,65;47,79;0;1;
23161;-12,41;94,34;-9,15;-54,92;8,83;38,92;11,63;47,98;0;1;
23185;-7,52;41,36;-19,56;-4,64;9,79;40,58;10,39;39,11;0;1;
23208;-17,86;2,58;-23,41;22,03;9,6;37,63;8,64;29,54;0;1;
23227;-18,78;-44,12;-15,17;22,12;11,16;32,52;8,22;27,49;0;1;
23248;-22,86;-50,76;-26,2;120,94;10,76;31,24;7,01;30,56;0;1;
23271;-42,64;-109,61;-2,3;-7,37;10,14;32,79;8,22;31,47;0;1;
23317;-18,34;-203,93;0,25;-43,72;9,21;38,17;9,5;33,43;0;1;
23336;-22,51;-52,67;-4,33;-18,14;8,57;38,73;10,08;33,89;0;0;
23360;-13,81;-220,8;-27,14;-5,44;7,34;48,22;11,36;35,37;0;0;
23378;-31,94;-138,39;-14,27;-8,94;7,82;54,01;11,89;35,94;0;0;
23400;-17,4;-24,61;-22,7;9,53;7,65;51,28;10,96;25,14;0;0;
23422;-24,33;-27,17;6,77;-10,23;7,33;50,52;9,94;21,91;0;0;
23444;-26,55;-162,17;-34,55;-33,02;7,66;49,26;8,79;19,46;0;0;
23468;-52,52;-15,68;-21,3;-29,76;9,17;52;8,15;19,84;0;0;
23485;-16,7;-58,77;-14,48;-20,96;9,2;40,4;6,28;14,87;0;0;
23507;-5,28;-48,54;-16,81;-10,32;8,93;36,09;6,02;14,07;0;0;
23539;-26,79;-12,94;-14,58;-9,59;10,11;39,41;6,28;13,08;0;0;
23562;-50,15;-51,75;-22,46;4,24;11,49;38,09;6,69;13,88;0;0;
23584;-45,62;-6,15;-16,09;16,78;13,98;33,19;6,05;16,3;0;0;
23603;132,16;-45,09;-19,69;-1,39;20,66;30,45;5,49;15,07;0;0;
23626;-71,6;-27,15;-21,52;-10,19;31,36;26,82;6,16;13,47;0;0;
23647;17,25;-60,05;-19,25;-6,19;33,16;21,13;7,3;12,3;0;0;
23676;-29,87;-63,03;-18,11;-20,64;37,66;20,6;6,23;15,53;0;0;
23695;-25,62;-8,74;-23,77;-1,28;32,52;19,38;6,15;15,73;0;0;
23719;-90,88;-20,95;-21,97;-53,52;34,34;16,79;6,08;12,42;1;0;
23744;-59,33;-60,78;-11,56;-36,05;26,64;15,65;6,21;14,88;1;0;
23761;-112,71;-17,13;-17,13;4,08;33,25;16,72;5,03;16,85;1;0;
23783;5,83;-44,24;-22,09;-15;45,62;15,04;4,69;16,45;1;0;
23804;-189,09;-63,2;-36,25;-4,02;62,71;15,72;5,83;10,96;1;0;
23825;99,8;-30,42;-18,48;5,54;78;15,48;5,6;11,14;1;0;
23847;47,1;-14,37;-15,39;-17,59;95,66;16,74;4,95;9,53;1;0;
23875;-8,11;-5,33;-26,71;4,74;106,88;19,69;5,63;8,19;1;0;
23892;56,2;-38,76;-54,79;-4,41;105,55;18,76;8,47;6,31;1;0;
23918;-66,04;-49,51;-33,03;-2,52;133,02;17,79;10,9;6,06;1;0;
23942;-75,55;-38,92;10,67;-13,69;127,09;16,79;16,93;5,55;1;0;
23960;-95,33;-26,03;52,65;-5,18;142,61;22,45;30,25;3,93;1;0;
23986;72,97;35,13;182,38;2;142,47;25,24;41,95;3,63;1;0;
24013;163,54;-42,74;2,27;-9,64;157,59;24,54;52,57;2,31;1;0;
24036;209,72;-37,08;-30,37;-15,02;162,48;26,66;59,02;2,87;1;0;
24062;-128,11;-36,7;-207,94;-8,97;150,26;25,37;75,45;3,51;0;0;
24082;-132,57;-43,67;32,73;12,31;149,41;23,23;98,36;3,86;0;0;
24099;-26,35;-38,15;140,9;7,68;138,54;14,95;102,91;4,63;0;0;
24124;-27,35;-36,35;-240,14;-1,33;128,1;10,39;113,53;5,27;0;0;
24152;-29,15;-39,19;-16,75;-0,28;74,18;7,89;113,88;5,57;0;0;
24171;-25,69;-39,68;16,96;-15,81;56,49;5,9;112,9;5,42;0;0;
24200;-150,84;-41,57;-31,99;-0,81;48,29;5,37;109,79;6,22;0;0;
24227;-21,9;-33,28;-299,12;6,52;20,74;3,79;102,88;6,62;0;0;
24244;-27,18;-43,77;-21,06;3,64;10,89;3,63;119,59;7,65;0;0;
24270;4,15;-52,63;-14,81;-8,3;23,58;5,47;104,86;7,27;0;0;
24287;-50,32;-44,21;-48,83;-9,11;23,67;6,31;97,06;6,9;0;0;
24316;-24,23;-39,56;123,78;-20,68;23,77;8,92;106,37;6,53;0;0;
24336;2,93;-59,71;-51,49;-2,24;23,41;14,6;93,8;5,82;0;0;
24359;-150,4;-36,92;-12,59;-2,45;25,75;25,82;60,81;4,57;0;0;
24380;-21,2;-36,05;-17,87;-27,69;20,1;38,4;49,67;5,54;0;0;
24400;-159,11;-16,89;-17,52;-20,95;12;39,58;40,1;9,26;0;0;
24421;-8,72;25,63;-43,71;-10,82;25,83;46,22;29,85;10,94;0;0;
24438;-25,4;-28,49;-6,84;-3,01;25,64;48,64;12,11;10,17;0;0;
24460;-24,22;-48,33;-9,74;-3,59;21,87;41,44;10,31;10,3;0;0;
24482;-84,77;-44,68;-29;-4,36;21,92;25,59;10,86;9,82;0;0;
24507;-13,04;-18,63;-16,54;-15,03;22,91;22,61;11,04;7,32;0;0;
24528;-27,31;-70,59;-31,18;-10,44;13,8;23,02;12,94;5,36;0;0;
24553;-56,06;-32,94;-37,83;-8,76;11,41;14,63;10,58;4,44;0;0;
24575;-34,94;-23,46;-16,18;-9,75;16,28;12,53;8,05;4,56;0;0;
24596;-27,55;-38,45;-18,05;-6,78;15,91;12,45;6,96;4,36;0;0;
24617;-22,53;-37,66;-14,25;-6,01;17,05;11,51;6,27;2,67;0;0;
24636;-25,49;-40,65;-17,05;-5,07;14,46;9,51;5,57;1,91;0;0;
24663;-40,71;-36,38;-32,25;-5,74;12,58;5,09;5,08;1,95;0;0;
24686;-75,89;-37,59;-10,37;-7,54;11,79;4,15;4,2;2,11;0;0;
24714;-27,64;-38,2;-10,45;-7,91;12,95;3,44;6,3;1,9;0;0;
24740;-31,37;-36,84;-14,33;-7,16;11,2;3,29;6,71;2,04;0;0;
24760;-24,87;-31,82;-23,22;-8,43;10,04;3,28;7,92;2,1;0;0;
24784;-26,04;-40,64;-7,11;-7,59;10,02;3,4;9;2,2;0;0;
24809;-49,05;-32,21;-14,7;-13,15;14,44;3,22;7,84;1,96;0;0;
24828;-13,9;-42,07;-15,17;-8;9,13;3,24;6,69;1,89;0;0;
24856;-24,89;-36,95;-13,69;-3,76;7,72;3,22;5,11;1,75;0;0;
24881;-25,99;-35,95;-17,55;-6,08;7,37;3,38;4,17;1,62;0;0;
24901;-29,51;-41,76;-11,87;-10,54;8,05;3,33;2,1;1,81;1;0;
24920;2,59;-39,82;-15,94;-4,72;5,87;3,11;1,94;1,79;1;0;
24943;2,59;-39,82;-15,94;-4,72;4,04;3,01;2,15;1,74;1;0;
24962;-20,07;-36,85;68,42;-2,59;4,02;2,86;17,66;2,04;1;0;
24986;-25,35;-39,24;-60,73;-8,91;4,15;3;30,12;2,35;1;0;
25009;-20,61;-33,19;-97,97;-9,46;3,93;2,98;48,93;2,81;1;0;
25038;-19,75;-33,75;299,9;-2,03;3,44;2,69;85,28;3,29;1;0;
25061;-28,25;-41,99;-201,22;-2,04;2,82;2,81;106,47;3,95;1;0;
25083;-22,74;-41,5;-153,88;-5,47;2,37;3,05;122,86;4,25;0;0;
25105;-17,98;-38,57;140,72;-3,87;4,76;2,87;140,87;4,72;0;0;
25126;-39,23;-33,17;-15,61;-16,4;8,09;2,91;151,52;4,88;0;0;
25151;-18,2;-37,57;90,41;-9,6;24,35;2,88;151,04;5,51;0;0;
25179;13,51;-34,24;-43,67;-0,77;32,32;3,38;137,05;6,14;0;0;
25204;82,15;-29,35;78,82;-13,19;57,48;4,11;138,34;5,96;0;0;
25225;-155,6;-29,66;135,56;-18,44;73,17;4,64;135,91;6,53;0;0;
25247;-108,35;-36,04;232,63;6,77;92,47;5,8;128;6,31;0;0;
25271;-83,37;-61,12;12,26;-8,88;107,03;7,15;126,8;6,36;0;0;
25293;-233,12;-27,25;-65,43;-3,73;119,3;8,53;109,51;5,25;0;0;
25314;0,46;-16,58;-6,16;-8,6;142,49;10,68;91,15;5,1;0;0;
25344;-29,98;-37,12;129,34;-2,38;143,08;13,19;71,66;4,16;0;0;
25370;-171,47;-74,89;-38,86;-6,38;150,55;15,21;59,03;3,14;0;0;
25393;-203,63;-51,12;-133,91;-3,14;156,1;16,92;38,7;2,89;0;0;
25416;-196,28;-36,1;-6,01;-4,12;164,45;16,92;25,15;2,29;0;0;
25435;-188,31;-35,42;-1,09;-10,65;163,88;17,27;28,37;2,93;0;0;
25457;-6,76;-36,69;-21,53;3,37;142,91;14,84;28,56;3,01;0;0;
25481;-42,2;-38,38;-32,42;3,19;138,38;13,47;22,31;4,62;0;0;
25507;409,72;-44,54;-133,48;14,05;125,02;10,05;22,55;5,69;0;0;
25526;-21,01;-48,3;-10,42;-13,66;112,95;9;25,63;6,04;0;0;
25555;-23,8;-24,49;-67,68;-13,47;78,95;8,21;23,71;5,7;0;0;
25581;-12,1;-31,9;-15,27;13,57;54,02;7,08;19,9;6,57;0;0;
25600;-13,32;-42,79;-21,39;-6,77;33,81;6,26;20,06;5,7;0;0;
25621;-82,08;-17,88;-34,96;0,16;34,68;6,42;19,6;5,33;0;0;
25639;-116,11;-41,15;-21,03;-6,5;40,15;7,06;14,02;4,05;0;0;
25665;-30,41;-58,38;-12,76;-9,39;47,07;8,71;8,32;3,84;0;0;
25683;-29,49;-16,56;-16,98;-4,51;46,98;9,59;5,63;3,81;0;0;
25705;-23,31;-14,38;-15,21;-9,11;45,61;14,39;5,05;2,45;0;0;
25725;-37,7;16,15;-14,35;-7,87;46,51;18,18;4,13;2,47;0;0;
25749;128,14;-174,21;-18,34;-8,64;57,52;28,69;2,57;2,19;0;0;
25765;-30,1;-20,34;-15,01;-5,46;29,2;36,98;2,14;2,49;0;0;
25794;-18,03;94,5;-1,3;-8,52;26,61;47,38;2,49;2,34;0;0;
25823;-46,03;-26,26;-36,87;-5,9;30,71;56,51;6,7;2,46;0;0;
25845;-24,06;34,49;-29,73;-6,19;31,89;74,3;10,62;2,3;0;0;
25866;-17,24;-460,34;-30,77;-5,34;29,04;92,74;12,89;2,22;0;0;
25886;-29,98;-323,65;-19,13;-6,33;17,62;98,96;13,2;2,03;0;0;
25905;22,36;263,59;-16,15;-3,36;21,85;129,53;12,96;2,06;0;0;
25925;-13,65;-69,3;-14,08;-8,4;20,36;112,59;11,92;1,92;0;0;
25951;-9,63;-41,71;-14,91;-5,93;23,08;101,91;6,52;1,86;0;0;
25976;-40,65;-55,89;-12,9;-4,92;24,61;88,98;3,89;1,81;0;0;
25997;-27,18;-58,95;-16,57;-6,24;21,09;63,99;2,12;1,9;0;0;
26017;-52,44;-42,96;-20,92;-5,94;20,38;38,75;2,32;1,76;0;0;
26038;-28,37;-39,51;-22,54;-7,39;20,73;12,61;2,38;1,87;0;0;
26061;-25,12;-38,79;-15,16;-5,39;19,46;9,24;2,46;1,93;0;0;
26084;-25,06;-40,23;-17,36;-5,63;8,42;8,18;2,34;1,79;0;0;
26105;-41,2;-35,47;-28,14;-7,7;9,69;6,31;3,55;1,74;0;0;
26126;-38,54;-37,62;-16,87;-6,68;9,52;3,56;3,4;1,72;0;0;
26148;-26,2;-36,14;-16,98;-8,03;6,13;3,15;3,21;1,86;0;0;
26167;22,14;-34,11;-22,2;-10,1;6,44;2,93;3,25;1,9;0;0;
26190;-29,16;-42,28;-15,23;-7,04;8,47;3,19;3,39;2,07;0;0;
26211;-22,19;-37,21;-15,64;-8,49;6,81;2,97;3,03;1,95;0;0;
26236;-23,65;-40,55;-16,46;-5,69;6,23;2,98;2,1;1,87;0;0;
26258;-25,74;-30,84;-17,55;-6,08;5,12;3,15;2,04;1,88;0;0;
26279;-21,2;-38,49;-14,12;-6,03;5,1;3,25;2,06;2,1;0;0;
26305;-25,67;-37,35;-16,91;-7,43;1,79;3,67;1,79;1,86;0;0;
26327;-26,46;-27,81;-15,26;-6,43;1,99;5,1;1,88;1,96;0;0;
26345;-21,26;1,29;-17,51;-4,23;2,05;7,08;1,73;1,86;0;0;
26365;-27,68;-62,67;-15,63;-5,06;2,13;10,85;1,79;1,76;0;0;
26390;-26,4;-11,96;-18,78;-8,83;2,44;14,7;1,99;1,69;0;0;
26409;-11,55;-70,72;-18,61;-6,45;2,9;17,12;2,04;1,72;0;0;
26435;-25,75;-50,8;-18,26;-6,8;3,01;17,25;2,12;1,8;0;0;
26458;-21,55;-49,34;-12,23;-10,9;2,86;18,66;2,2;1,84;0;0;
26478;-27,38;-23,31;-16,24;-7,33;3,03;16,59;2,28;1,98;0;0;
26497;-31,15;-36,73;-14,4;-8,39;2,99;12,56;2,24;1,99;0;0;
26517;-27,38;-45,39;-15,92;-7,22;3,03;10,35;1,98;1,85;0;0;
26538;-25,42;-42,56;-15,39;-5,57;2,3;9,1;1,85;1,73;0;0;
26557;-22,2;-40,43;-13,75;-5,71;2,31;7,3;1,73;1,81;0;0;
26580;-29,15;-42,36;-17,37;-7,66;2,05;5,6;1,7;1,65;0;0;
26606;-27,15;-37,89;-21,64;-11,2;1,97;4,72;1,68;1,77;0;0;
26633;-23,24;-32,37;-14,78;-6,58;1,62;3,95;1,85;1,86;0;0;
26660;-23,96;-38,89;-17,47;-10,12;1,78;3,61;1,85;1,8;0;0;
26677;-21,88;-40,91;-15,01;-5,47;1,91;4,36;1,84;1,9;0;0;
26701;-19,85;-46,06;-18,41;-8,57;1,99;4,87;1,88;1,86;0;0;
26719;-28,53;-34,01;-16,09;-7,12;1,92;4,9;1,69;1,79;0;0;
26740;-25,7;-37,35;-14,15;-6,95;1,95;4,44;1,66;1,94;0;0;
26765;-28,19;-35,13;-15,04;-8,29;1,83;4,6;1,53;1,99;0;0;
26786;-27,66;-37,12;-18,12;-11,46;1,88;4,42;1,6;1,95;0;0;
26808;-26,64;-44,84;-15,82;-6,08;1,84;4,12;1,56;1,98;0;0;
26831;-26,71;-39,45;-14,88;-7,41;1,66;3,71;1,45;2,02;1;0;
26852;-26,84;-44,05;-13,67;-5,94;1,79;3,77;1,61;2,1;1;0;
26874;-25,71;-36,7;-16,04;-8,41;1,97;3,65;1,61;1,99;1;0;
26894;-28,66;-37,09;-18,87;-6,79;1,92;3,55;1,58;1,83;1;0;
26917;-26,01;-35,84;-15,43;-8,07;1,71;3,65;1,57;1,61;1;0;
26937;-23,03;-34,44;-19,33;-8,59;1,85;3,49;1,62;1,45;1;0;
26956;-25,05;-41,31;35,89;-5,75;2,06;3,94;5,13;1,43;1;0;
26980;-22,77;-37,31;-22,38;-7,04;1,85;3,86;18,29;1,45;1;0;
27003;-18,75;-33,03;78,51;-5,09;1,88;3,5;35,69;1,82;1;0;
27022;-24,68;-37,48;-177,95;-14,23;1,95;3,44;48,63;2,26;1;0;
27041;-25,23;-38,97;-25,35;0,95;1,98;3,27;82,23;3,23;1;0;
27066;-23,28;-40,24;-90,22;-6,94;2,1;2,89;105,57;3,91;1;0;
27087;-31,62;-39,37;-199,42;-8,71;3,72;2,25;122,44;4,83;0;0;
27110;-57,24;-34,77;-18,22;-10,16;7,64;2,81;133,68;6,63;0;0;
27137;50,93;-38,12;94;-18,46;17,64;3,31;147,17;7,22;0;0;
27158;342,29;-23,73;-106,5;-13,42;41,94;3,8;136,54;7,41;0;0;
27180;94,34;-53,7;33,55;-4,24;62,27;5,54;134,91;7,68;0;0;
27203;230,82;-36,52;24,11;-13,03;86,45;7,26;133,65;7,74;0;0;
27221;-231,8;-34,12;-168,09;0,27;118,92;8,56;128,03;7,22;0;0;
27248;-112,57;-34,28;-241,56;0,55;133,19;9,5;119,53;6,78;0;0;
27278;-174,21;-83,39;23,7;-0,98;162,83;13,58;105,01;6,47;0;0;
27302;188,57;7,21;30,68;-13,52;164,28;18,76;96,19;5,53;0;0;
27321;126,18;-1,7;-42,57;-9;159,56;25,26;87,33;5,32;0;0;
27338;-56,2;-30,93;4,29;-4,84;136,29;25,38;69,24;4,75;0;0;
27358;-87,5;-37,13;56,82;-10,48;154,97;25,14;58,75;3,47;0;0;
27380;-94,3;-28,55;-21,72;-10,01;189,65;24,75;46,79;2,84;0;0;
27405;-123,62;-50,76;-0,06;-9,71;169,07;21,41;30,98;2,68;0;0;
27436;-143,01;-36,79;-21,42;-7,85;158,84;16,47;20,22;2,41;0;0;
27455;-21,35;-39,23;49,46;-6,9;145,85;10,31;18,65;2,37;0;0;
27475;-29,81;-45,31;-12,8;-3,9;132,01;9,21;13,3;2,44;0;0;
27495;-21,79;-37,21;-25,09;-7,31;50,59;6,97;7,37;2,33;1;0;
27515;-17,28;-46,25;-11,79;-9,1;32,29;5,39;6,58;2,57;1;0;
27537;-21,04;-35,59;-18;-10,71;17,51;3,56;6,09;2,24;1;0;
27560;-124,54;-75,72;-12,85;-8,67;25,12;5,68;5,24;2,25;1;0;
27585;-26,2;-54,07;-15,37;-6,69;20,8;6,78;2,19;2,14;1;0;
27602;-17,88;-50,81;-44,69;-4,82;21,09;10,24;4,84;2,2;1;0;
27626;-13,08;-155,93;-195,27;-6,1;27,51;20,69;18,31;2,7;1;0;
27650;-10,18;96,7;92,44;-5,95;32,86;32,35;40,11;3,09;1;0;
27668;-22,99;-117,26;11,52;5,94;31,83;45,34;53,87;3,51;1;0;
27686;-38,34;-114,99;85,73;4,61;17,92;70,65;70,76;4,24;1;0;
27713;-31,11;-32,7;228,81;-0,94;24,69;74,92;99,88;5,12;1;0;
27730;-25;-5,23;186,49;9,53;19,19;72,18;118,67;5,93;0;0;
27757;-31,02;-32,33;74,96;-10,98;21,28;64,18;123,65;5,71;0;0;
27781;-22,61;-43,87;-148,5;-2,48;18,01;46,55;133,67;5,83;0;0;
27803;-21,79;-60,55;151,65;-2,63;18,15;30,57;154,57;6,48;0;0;
27824;31,05;-36,5;186,4;6,87;14,96;15,48;150,77;6,52;0;0;
27846;-17,16;-34,48;-7,52;-9,7;13,6;12,47;142,31;6,99;0;0;
27876;-60,23;-35,17;159,38;-21,78;19,54;8,68;137,16;7,4;0;0;
27901;-78,38;-38,09;89,8;4,05;19,65;8,61;131,7;7,17;0;0;
27920;515,49;-3,96;31,28;-3,79;59,51;9,26;126,03;7,98;0;0;
27943;-50,23;-40,12;29,35;-11,92;72,93;8,88;114,14;7,33;0;0;
27962;331,94;-10,82;-21,87;-2,05;113,56;9,5;104,67;7,22;0;0;
27980;-192,53;-42,09;-17,59;-10,37;131,8;11,42;87,47;6,41;0;0;
28002;49,89;-31,28;-13,13;-8,41;153,06;12,68;70,98;4,77;0;0;
28036;-241,87;-54,35;49,44;5,58;167,03;13,69;60,31;4,2;0;0;
28065;81,61;-25,35;-9,03;-7,03;142,7;13,42;42,89;3,46;0;0;
28082;182,54;-49,31;-14,74;-12,63;162,56;14,62;21,58;3,09;0;0;
28106;-189,42;-75,94;-10,24;-14,13;149,21;14,51;16,08;3,48;0;0;
28124;-61,3;-40,63;-19,98;-7,4;142,03;13,77;14,1;3,61;0;0;
28148;-4,29;-38,93;-15,34;-12,43;125,1;13,63;15,29;3,9;0;0;
28170;-58,92;-41,08;18,21;-14,84;108,28;12,65;10,02;4,62;0;0;
28196;-75,19;-32,56;-14,76;-11,16;95,17;11,65;10,16;4,45;0;0;
28216;6,65;-32,26;-8,68;-3,75;71,37;8,32;10,45;4,36;0;0;
28238;-38,2;-29,96;-15,49;-10,1;42,72;6,53;10,07;3,82;0;0;
28260;-23,18;-36,5;-18,95;-7,59;34,14;6,21;10,01;3,72;0;0;
28281;-21,34;-31,12;-14,31;-12,16;27,26;4,56;5,32;3,33;0;0;
28305;-59,27;-52,38;-13,29;-4,97;30,45;5,05;2,34;2,84;0;0;
28324;20,97;-34,83;-19,44;-3,7;22,57;4,93;2,32;2,58;0;0;
28349;-20,21;-41,87;-15,02;-4,88;16,35;5,63;1,87;2,23;0;0;
28367;-19,97;-42,07;-18,05;-10,11;17,88;7,06;1,82;2,07;0;0;
28386;-29,34;-59,62;-17,35;-6,13;24,52;11,22;1,82;1,97;0;0;
28406;-26,22;-41,87;-12,94;-8,6;21,04;14,12;1,99;1,7;0;0;
28433;2,23;-59,55;-16,93;-4,82;15,07;16,98;1,88;1,71;0;0;
28453;-28,38;-28,24;-15,9;-8,98;13,77;18,93;1,87;1,6;0;0;
28471;-30,38;-35,55;-19,14;-5,61;13,04;17,05;2,22;1,83;0;0;
28488;-30,38;-35,55;-19,14;-5,61;13,32;14,6;2,5;1,88;0;0;
28513;-28,74;-34,63;-15,89;-8,38;9,64;10,76;2,48;2,09;0;0;
28530;-28,74;-34,63;-15,89;-8,38;11,95;9,54;2,52;2,17;0;0;
28554;-0,7;-43,06;-17,64;-8,39;17,69;6,64;2,3;2,17;0;0;
28571;-0,7;-43,06;-17,64;-8,39;24,77;5,9;2,12;2,03;0;0;
28595;-23,16;-25,28;-17,63;-6,56;23,48;5,64;1,92;1,79;0;0;
28614;-38,72;-33,11;-13,41;-4,69;21,57;5,33;1,68;1,96;0;0;
28637;-4,24;-43,52;-17,93;-6,67;20,65;4,84;1,55;1,8;0;0;
28655;-26,45;-34,62;-20,86;-8,85;18,41;4,4;1,89;1,88;0;0;
28681;-19,85;-35,45;-18,51;-6,38;11,17;3,7;2,09;2,18;0;0;
28700;-27;-44,97;-121,1;-8,76;8,99;3,37;13,1;2,39;0;0;
28722;-74,13;-37,91;-32,32;-3,41;11,69;3,12;17,05;2,34;0;0;
28742;-58,54;-40,86;-12,07;-8,22;18,64;3,35;17,93;2,16;1;0;
28764;-17,17;-39,26;-20,39;-4,43;19,01;3,27;18,85;2,13;1;0;
28790;-37,62;-37,23;-12,7;-7,61;21,3;3,76;13,19;1,85;1;0;
28809;-36,24;-37,04;-18,42;-7,1;19,41;3,23;4,83;1,79;1;0;
28835;-25,34;-36,95;-16,3;-8,78;16,82;3,1;3,51;1,69;1;0;
28859;-28,05;-40,86;-15,61;-7,03;13,74;3;3,03;1,68;1;0;
28880;-26,81;-43,22;-73,43;-3,57;14,67;2,91;4,04;1,66;1;0;
28904;23,94;-38,21;-188,46;-9,39;15,45;2,54;23,89;1,95;1;0;
28923;25,31;-36,44;71,82;3,92;17,79;2,5;53,01;2,24;1;0;
28944;-25,15;-40,38;202,15;-4,08;16,95;2,74;79,78;2,81;1;0;
28966;-43,51;-32,91;-68,62;-8,55;18,38;2,96;96,53;3,48;1;0;
28992;-30,75;-38,37;41,27;-19,57;17,78;3,06;116,55;4,55;1;0;
29014;-22,06;-39,17;-81,27;16,22;16,74;3,03;127,89;5,65;0;0;
29038;145,33;-38,71;205,99;-10,34;19,02;3,03;130,98;6,32;0;0;
29063;-63,68;-37,38;-214,16;-1,08;23,9;3,14;138,58;6,55;0;0;
29084;-21,79;-38,28;71,9;-9,1;19,65;3,29;125,72;6,67;0;0;
29106;-23,01;-40,65;79,64;0,55;17,52;3,07;133,68;6,05;0;0;
29126;-27,7;-38,45;-15,14;-7,92;16,86;3,05;127,96;5,92;0;0;
29155;-95,37;-43,78;-42,37;-1,19;27,71;3,7;101,42;5,24;0;0;
29178;-26,79;-43,27;-29,6;-2,81;21,99;3,96;100,3;5,23;0;0;
29201;425,07;-10,78;-8,05;-6,47;49,15;4,47;77,84;4,15;0;0;
29224;-227,65;-24,77;-5,21;-8,37;72,25;6,37;69,27;4,01;0;0;
29245;29,39;-51,56;-82,38;-7,42;107,67;8;55,3;3,66;0;0;
29278;-58,96;-34,42;-45,18;-5,49;127,62;8,94;54,25;3,47;0;0;
29301;172,69;2,06;-10,37;-5,53;134,95;9,35;38,4;2,66;0;0;
29329;-112,52;-57,57;-15,16;-6,55;134,2;10,04;28,66;2,69;0;0;
29355;-157,38;-31,79;-17,99;-8,02;128,73;9,71;22,19;2,49;0;0;
29374;249,77;-36,81;-15,75;-5,16;135,17;10,15;13,91;2,15;0;0;
29395;-192,69;-44,55;-18,49;-5,71;121,76;9,72;8;2,02;0;0;
29414;-55,53;-30,02;-17,41;-6,21;119,36;10,42;2,36;1,66;0;0;
29434;-25,85;-6,41;-17,32;-11,45;118,76;11,3;1,82;1,75;0;0;
29450;-51;-28,99;-14,73;-2,53;119,25;10,77;1,75;2,01;0;0;
29475;64;-35,77;-13,15;-9,02;94,98;9,77;2,1;2,13;0;0;
29498;10,36;-46,75;-21,86;-2,19;86,12;8,74;1,88;2,01;0;0;
29518;-23,15;-32,81;-18,12;-8,76;71,21;7,34;1,93;2,21;0;0;
29538;-19,92;-47,37;-18,06;-8,5;61,17;6,05;1,88;2,19;0;0;
29560;-22,09;-38,32;-17,16;-8,75;43,84;4,19;1,94;1,96;0;0;
29579;-21,42;-36,41;-17,36;-11,82;34,48;3,38;1,98;1,82;0;0;
29600;-23,14;-35,63;-20,06;-7,41;27,64;3,57;1,81;1,99;0;0;
29623;-42,73;-36,34;-15,54;-5,91;16,01;3,21;1,68;2,07;0;0;
29643;-27,68;-38,57;-16,21;-3,11;15,51;3,06;1,72;2,17;0;0;
29667;-25,18;-31,22;-21,49;-9,31;19,68;4,64;1,83;2,19;0;0;
29684;-22,18;-39,64;-20,01;-6,67;19,56;4,96;1,75;2,29;0;0;
29709;-38,83;-54,98;-19,44;-6,94;16,04;6,08;1,9;2,05;0;0;
29728;-27,89;-26,46;-17,31;-6,97;20,68;6,39;1,81;1,87;0;0;
29753;-31,15;-6,59;-15,53;-5,71;20,88;9,32;2,04;1,69;0;0;
29772;-30,06;-229,12;-14,87;-8,99;19,87;22,8;1,89;1,94;0;0;
29793;-22,3;112,19;-15,57;-8,4;21,57;35,44;1,84;1,86;0;0;
29819;-39,6;58,27;-15,26;-10,72;22,5;64,8;1,78;1,81;0;0;
29839;-45,27;-61,62;-15,63;-5,72;27,76;68,46;1,86;1,86;0;0;
29857;-38,95;-48,73;-17,71;-9,61;26,73;70,13;1,85;1,98;0;0;
29882;-24,02;-31,93;-19,09;-11,22;27,3;48,39;1,87;1,7;0;0;
29903;-27,59;-46,41;-16,28;-5,18;26,6;30,93;2,04;1,85;0;0;
29922;-17,22;-14,65;-14,72;-9,17;24,57;14,72;1,95;2;0;0;
29941;70,36;-17,91;-15,3;-4,38;22,2;14,09;1,83;1,88;0;0;
29961;-36,51;-52,84;-20,21;-8,88;18,14;13,48;1,82;2,06;0;0;
29986;-8,89;-30,95;-16,57;-12,95;15,75;13,38;1,88;1,97;0;0;
30004;-28,41;-30,91;-18,22;0,39;15,73;10,79;1,89;3,29;0;0;
30029;-24,69;-41,81;-16,61;-7,37;15,76;9,05;1,75;3,3;0;0;
30047;21,76;-36,48;-17,85;-6,59;17,14;6,33;1,78;3,14;0;0;
30071;81,33;-30,75;-16,44;-4,03;14,45;4,56;1,96;3,19;0;0;
30089;-30,92;-20,17;-15,29;-8,48;16,51;5,15;1,83;3,14;0;0;
30109;-13,96;-35,13;-10,91;-6,6;15,93;4,65;1,99;2,6;0;0;
30129;-22,88;-44,38;-20,75;-9,14;16,73;4,52;2,16;1,66;0;0;
30158;-19,62;-31,36;-16,99;-2,92;17,35;5,09;2,36;1,69;0;0;
30178;-22,56;-28,6;-17,47;-7,67;14,81;5,87;2,22;1,84;0;0;
30200;-24,3;-47,27;-16,49;-5,89;7,91;7,58;2,09;1,71;0;0;
30221;-41,98;-38,71;-14,32;-7,42;6,48;6,6;2,11;1,75;0;0;
30241;-28,08;-32,6;-18,84;-5,72;4,74;7,14;1,88;1,76;0;0;
30266;-22,89;-35,76;-20,13;-5,7;4,05;6,35;1,88;1,8;0;0;
30288;-28,63;-33,02;-21,34;-9,51;3,89;6,5;2,19;1,78;0;0;
30309;-22,54;-34,42;-13,38;-9,6;4,02;5,58;2,35;1,76;0;0;
30329;-26,08;-30,48;-16,91;-4,36;3,73;4,44;2,54;1,96;0;0;
30355;-25,5;-39,41;-16,39;-4,95;2,58;4,24;2,5;2,24;0;0;
30375;-21,11;-36,41;-14,55;-7,43;2,42;4,27;2,44;2,3;0;0;
30396;-24,09;-36,18;-19,79;-11,05;2,17;4,33;2,06;2,43;0;0;
30417;-21,43;-36,38;-16,59;-8,03;1,8;4,31;1,89;2,37;0;0;
30441;-22,49;-39,66;-17,81;-4,31;1,68;4,55;1,7;2,42;0;0;
30466;-24,95;-35,22;-14,27;-7,42;1,8;3,92;1,48;2,24;0;0;
30485;-22,19;-40,23;-17,63;-7,1;1,84;3,88;1,47;2,14;0;0;
30507;-25,05;-36,33;-16,99;-9,55;1,84;3,69;1,62;2,18;0;0;
30527;-23,97;-41,56;-15,25;-12,61;1,87;3,52;1,6;2,19;0;0;
30551;-24,52;-38,76;-20,25;-7,18;1,91;3,45;1,96;2,21;0;0;
30570;-24,68;-36,33;-21,03;-6,25;1,9;3,71;2,53;2,29;0;0;
30594;-25,74;-41,14;-35,84;-4,07;1,68;4,23;5,6;2,08;0;0;
30618;-22,67;-39,54;-14,36;0,57;1,59;4,75;5,64;2,12;0;1;
30639;-25,66;-32,4;-15,05;-8,87;1,42;6,27;5,68;2,21;0;1;
30660;-21,99;-36,4;-17,23;-9,6;1,4;6,25;5,69;2,84;0;1;
30682;-27,52;-57,91;-15,39;-4,85;1,45;7,31;5,35;4,85;0;1;
30701;-25,07;-28,42;-17,11;1,05;1,91;9,04;3,25;8,36;0;1;
30722;-14,88;-13,08;-18,22;8,01;2,78;13,31;1,89;12,76;0;1;
30744;-33,5;0,28;-31,95;43,16;3,71;19,88;2,33;23,3;0;1;
30763;-34,71;-15,92;-20,57;-9,85;4,99;23,46;3,56;26,8;0;1;
30794;-19,56;32,39;-7,33;-93,24;7,4;37,13;4,15;37,68;0;1;
30812;-27,37;33,3;-35,33;187,1;7,35;38,15;5,09;54,2;0;0;
30838;-25,96;-8,37;-14,79;149,34;7,13;38,96;5,03;60,85;0;0;
30866;-33,96;-125,75;-21,7;14,79;7,36;43,8;4,59;72,28;0;0;
30884;-16,66;-30,12;-4,59;-10,68;6,6;44,96;5,79;76,13;0;0;
30911;-19,49;30,21;-40,04;26,39;5,89;45,71;6,65;77,13;0;0;
30938;-20,37;-20,38;-14,32;-37,36;6,05;39,43;9,21;81,41;0;0;
30960;-15,12;-27,02;-68,2;53,05;6,16;38,79;14,51;77,11;0;0;
30979;-23,8;-63,56;-56,9;-165,81;6,14;38,55;17,11;65,59;0;0;
30998;-26,61;-11,86;-17,74;-0,25;5,36;29,2;18,94;64,82;0;0;
31021;-21,6;-10,65;11,33;34,3;5,18;30,72;20,16;64,37;0;0;
31042;-29,45;-50,26;-11,81;-121,83;6,07;34,95;18,73;62,77;0;0;
31067;-27,57;-63,21;-18,4;-103,06;5,77;36,31;15,85;52,71;0;0;
31091;-27,84;-90,44;-30,15;81,68;5,49;38,92;11,47;54,34;0;0;
31121;-17,39;-40,57;-23,01;36,27;5,64;36,83;10,87;51,36;0;0;
31138;-44,4;-105,69;-15,14;-80,2;6,53;38,02;9,14;48,97;0;0;
31158;-7,44;41,38;-16,15;-14,15;6,02;34,81;6,99;48,09;0;0;
31179;-22,3;-12,83;-14,96;-23,91;6,79;36,24;6,48;42,85;0;0;
31202;-23,08;-20,64;-45,68;-42,26;6,89;33,92;6,45;40,61;0;0;
31220;-41,27;-57,06;-0,4;-14,32;7;32,05;7,25;30,97;0;0;
31241;-30,22;-6,72;-21,54;-31,6;7,06;33,73;6,98;32,82;0;0;
31265;-20,71;-10,86;-20,11;30,14;7,17;32,91;6,87;26,59;0;0;
31284;-30,33;-19,42;-94,92;-57,17;7,12;25,45;11,08;27,01;0;0;
31309;0,55;-45,47;-13,7;14,19;9,43;23,33;11,56;30,07;0;0;
31334;-34,46;-20,99;-17,14;-6,82;10,79;25,21;10,59;30,13;0;0;
31352;-31,31;-45,4;-16,74;-5,52;13,36;21,31;8,42;27,87;0;0;
31373;-18,19;-67,99;-14,44;5,83;12,49;20,75;7,83;24,95;0;0;
31394;5,96;-40,04;-12,19;0,5;12,59;18,45;6,67;23,71;0;0;
31419;-16,7;-43,92;-11,32;-3,47;25,47;19,04;2,64;17,89;0;0;
31440;-36,49;-17,59;-12,11;12,47;28,02;18,62;2,66;12,49;0;0;
31461;-25,1;-113,19;-17,33;-11,24;24,16;29,54;2,11;11,97;0;0;
31482;-24,51;10,56;-13,78;-4,07;23,96;33,18;2,14;9,91;0;0;
31499;-23,81;-4,64;-17,61;-6,08;12,11;37,2;2,19;8,95;0;0;
31522;-21,56;-47,06;-10,88;-7,93;5,38;36,3;1,93;8,62;0;0;
31538;-21,56;-47,06;-10,88;-7,93;3,15;30,83;1,88;5,71;0;0;
31559;-22,22;-45,76;-12,83;-3;2,53;24,29;2,42;3,15;0;0;
31586;-23,23;-23,93;-20,09;-7,66;2,02;14,2;2,91;2,26;0;0;
31608;-21,65;-46,14;-11,91;-9,28;1,98;11,2;2,83;2,06;0;0;
31625;-25,49;-41,48;-14,06;-8,65;1,81;8,63;2,89;2,08;0;0;
31646;-26,07;-48,67;-16,58;-5,19;1,76;8,47;2,81;1,81;0;0;
31673;-25,58;-32,39;-18,22;-8,67;1,85;8,24;2,61;1,83;0;0;
31690;-25,58;-32,39;-18,22;-8,67;1,96;8,36;2,14;1,98;0;0;
31712;-27,92;-17,67;-16,7;-4,16;1,95;9,63;2,14;2,08;0;0;
31736;-26,1;-45,1;-16,18;-7,75;1,72;9,49;2,08;2,05;0;0;
31757;-24,87;-45,63;-17,63;-6,36;1,77;9,36;2,01;1,96;0;0;
31772;-25,6;-38,74;-11,11;-7,69;1,71;9,7;2,21;2,1;0;0;
31795;-20,33;-40,44;-15,36;-6,86;1,66;8,79;2,29;2,01;0;0;
31817;-25,5;-36,6;-16,36;-6,78;1,47;6,65;2,22;1,78;0;0;
31839;-25,73;-43,06;-16,76;-5,71;1,61;5,2;1,99;1,59;0;0;
31864;-22,72;-41,69;-15,8;-8,15;1,84;5,18;2,08;1,71;0;0;
31889;-23,87;-34,06;-46,4;-13,05;1,86;5,04;2,49;1,84;0;0;
31908;-26,21;-34,08;-43,85;-8,39;1,62;4,47;12,06;1,9;0;0;
31927;-18,52;-24,85;-24,7;-9,8;1,76;5,13;14,22;1,8;0;0;
31953;-24,99;-34,36;-18,6;-5,63;1,84;5,94;14,97;1,79;0;0;
31970;-24,99;-34,36;-18,6;-5,63;1,76;6,41;15,76;1,69;0;0;
31989;-28;-33,38;-19,21;-11,26;1,64;5,68;15,71;1,76;0;0;
32009;-21,43;-51,43;-17,67;-2,73;1,68;5,36;12,11;1,82;0;0;
32033;-26,82;-36,25;-15,83;-10,59;1,79;5,49;4,34;2,15;0;0;
32055;-18,31;-31,67;-7,77;-7,39;1,75;4,98;2,98;2,21;0;0;
32076;-27,29;-36,19;-15,31;-6,18;1,7;4,23;2,9;2,26;0;0;
32095;-21,57;-34,07;-17,43;-11,06;2,07;3,79;3,06;2,42;0;0;
32116;-22,65;-38,66;-18,22;-4;2;3,98;3,07;2,11;0;0;
32141;-26,32;-41,18;-19,7;-9,03;2,19;4,06;3,51;2,23;0;0;
32160;-24,18;-37,15;-21,59;-5,96;1,97;4,14;4,18;2,13;0;0;
32180;-23,33;-39,3;-29,25;-9,47;1,71;3,56;3,71;2,3;0;0;
32203;-21,98;-30,16;-23,58;-3,72;1,79;3,58;3,6;2,16;0;0;
32228;-22,34;-36;-23,96;-5,89;1,54;4,2;4,47;2,12;0;0;
32246;-24,8;-28,38;-17,83;-8,41;1,44;3,95;5;2,15;0;0;
32272;-22,81;-38,69;-14,36;-7,11;1,26;4,49;4,57;1,87;0;0;
32290;-22,81;-38,69;-14,36;-7,11;1,26;5,17;4,07;1,7;0;0;
32311;-23,75;-45,73;-17,32;-6,19;1,27;5,51;3,57;1,63;0;0;
32334;-25,35;-33,41;-19,83;-8,14;1,19;4,83;3,17;1,71;0;0;
32356;-24,31;-35,09;-19,33;-3,63;1,22;4,77;1,88;1,85;0;0;
32378;-25,93;-35,07;-13,04;-8,38;1,49;3,89;1,92;1,97;0;0;
32401;-26,47;-40,68;-19,3;-8,04;1,53;3,19;1,9;1,97;0;0;
32423;-26,53;-42,85;-15,55;-8,75;1,54;3,36;1,91;1,81;0;0;
32441;-22,79;-40,05;-18,6;-8,09;1,61;3,32;1,8;1,86;0;0;
32464;-23;-34,53;-17,49;-9,33;3,59;3,27;1,67;1,76;0;0;
32485;-24,82;-36,63;-17,95;-11,72;3,43;3,23;1,88;1,78;0;0;
32506;-24,51;-40,39;-15,9;-7,16;3,38;3,12;1,78;1,93;1;0;
32527;-26,22;-39,93;-15,53;-6,08;3,54;3;1,7;2,09;1;0;
32553;-23,26;-31,31;-45,97;-4,71;3,51;3;3,62;2,2;1;0;
32572;-16,88;-34,36;131,83;-7,3;5,25;3,02;17,68;2,51;1;0;
32595;-5,18;-40,82;-213,76;-8,79;16,96;3,51;41,9;2,72;1;0;
32623;16,92;-34,3;198,13;-12,08;25,85;3,53;70,53;2,81;1;0;
32641;-29,12;-41,87;-43,63;-9,79;29,44;3,73;80,07;3,4;1;0;
32664;-91,87;-32,21;-65,53;-12,7;37,98;3,97;96,93;3,43;1;0;
32683;-201,77;-45,27;-243,59;0,34;44,01;3,91;108,88;3,93;1;0;
32709;-100,72;-46,03;-1,06;-14,53;51,15;4,3;99,83;3,81;0;0;
32736;-12,94;-51,38;-25,81;-3,55;55,99;4,59;88,82;3,89;0;0;
32755;-33,78;-34,82;-44,84;-9,2;70,65;5,93;66,24;3,49;0;0;
32776;-57,74;-25,82;20,43;4,49;84,62;6,51;81,83;3,66;0;0;
32800;-31,8;-31,04;-15,6;1,47;90,98;6,86;76,44;3,41;0;0;
32817;152,06;-24,84;37,73;-7,87;93,87;8,29;74,85;3,87;0;0;
32839;-190,73;-42,82;331,12;-3,72;92,4;10,47;100,09;3,65;0;0;
32869;-252,94;-43,6;-147,95;7,5;90,84;10,82;130,89;4,72;0;0;
32892;379,98;-43,9;37,32;-8,49;90,11;11,74;136,9;4,98;0;0;
32917;-70,16;-46,07;-107,36;-10,79;108,13;13,27;140,83;5,03;0;0;
32940;-246,65;-45,55;37,96;-11,44;115,81;14,8;143,76;4,86;0;0;
32967;111,66;-33,45;335,5;-0,16;115,33;13,8;140,26;4,53;0;0;
32987;213,48;-50,04;-39,89;0,13;130,34;13,8;110,55;4,72;0;0;
33010;-203,24;-10,34;20;-13,45;131,38;13,66;108,17;3,97;0;0;
33039;-9,66;-40,62;-135,33;-5,49;128,51;13,42;95,53;3,97;0;0;
33069;-46,83;-30,07;-7,25;-15,12;122,12;11,65;83,79;3,88;0;0;
33086;-34,54;-36,69;-50,45;-7,06;117,8;11,13;78,65;4,04;0;0;
33108;-44,5;-62,11;-19,7;-6,66;145,46;12,49;54,54;3,34;0;0;
33130;-27,69;-38,39;-15,22;-6,41;120,13;11,54;44,98;2,78;0;0;
33151;-129,51;-35,9;-16,63;-6,09;129,67;11,77;27,07;2,63;0;0;
33171;-21,4;-38,19;8,9;-8,51;97,09;9,6;19,39;2,68;0;0;
33202;-47,56;-40,28;-14,15;-6,67;91,41;9,1;12,91;2,75;0;0;
33218;-20,74;-35,36;-17,4;-5,72;78,92;8,33;5,8;2,6;0;0;
33240;-21,04;-34,11;-18,11;-3,87;45,04;6,22;5,52;2,61;0;0;
33260;-17,89;-29,66;-16,35;-5,08;25,7;4,7;5,26;2,39;0;0;
33280;-22,13;-32,67;-15,52;-8,4;18,59;4,34;4,55;2,27;0;0;
33303;-21,45;-39,41;-18,01;-2,28;9,99;3,99;2,71;2,35;0;0;
33321;-3,7;-31,06;-14,43;-8,23;13,22;4,56;1,96;2,25;0;0;
33348;-20,04;-55,76;-17,97;-5,61;11,3;8,1;1,94;2,05;0;0;
33364;-33,49;30,01;-18,43;-6,32;11,49;14,17;1,82;1,92;0;0;
33385;-21,92;-159,65;-13,07;-7,04;13,74;24,61;1,71;1,97;0;0;
33404;-13,98;121,95;-15,72;-4,36;19,49;40,86;1,74;1,68;0;0;
33425;-6,72;-153,54;-17,33;-10,12;15,03;86,13;1,72;1,62;0;0;
33441;-12,62;-139,46;-18,45;-10,94;15,07;86,8;1,74;1,65;0;0;
33464;-25,48;3,97;-16,29;-8,48;24,33;107,02;1,66;1,68;0;0;
33487;-40,59;-25,47;-21,21;-5,83;30,32;106,75;1,73;1,72;0;0;
33514;-85,48;-23,99;-20,48;-14,76;35,86;101,65;1,92;1,89;0;0;
33535;-25,73;-79,16;-17,37;-4,95;29,79;105,11;1,8;1,89;0;0;
33557;-89,85;19,22;-21,53;-8,67;30,17;72,3;1,78;1,94;0;0;
33580;-58,36;-51,77;-13,88;-7,68;24,03;43,15;1,74;1,89;0;0;
33600;-49,13;-51,6;-19,64;-8,76;21,95;37,44;1,81;1,95;0;0;
33622;-12,43;5,01;-14,24;-6,51;21,44;37,06;1,7;2,06;0;0;
33642;-32,54;-33,95;-18,9;-5,69;22,79;30,81;1,74;1,78;0;0;
33668;-5,93;-36,74;-14,94;-9,22;23,89;23,72;1,76;1,78;0;0;
33692;-24,47;-46,73;-15,25;-3,02;17,75;18,03;1,96;1,8;0;0;
33714;-63,17;-19,97;-20,14;-5,67;21,28;18,09;2,29;1,71;0;0;
33733;-20,93;-52,33;-16,62;-8,57;16,22;14,92;2,43;1,8;0;0;
33753;-31,25;-22,82;-15,17;-7,41;15,16;15,29;2,18;1,97;0;0;
33769;-31,25;-22,82;-15,17;-7,41;15,76;13,17;2,14;1,9;0;0;
33797;-20,34;-46,9;-20,9;-10,78;14,31;12,24;2,41;2,04;0;0;
33834;-23,52;-21,12;-14,03;-8,84;11,91;11,84;2,19;1,97;0;0;
33858;-25,94;-38,84;-16,74;-8,14;6,22;9,35;1,96;1,95;0;0;
33881;-27,64;-33,88;-16,51;-4,74;2,44;8,53;2,29;2,04;0;0;
33914;-25,08;-42,08;-15,12;-4,23;1,74;7,75;2,04;2,08;0;0;
33953;-26,85;-50,28;-16,79;-8,69;2,07;6,54;1,86;2,05;0;0;
33981;-24,62;-46,86;-10,38;-5,52;2,22;5,77;2,04;2,07;0;0;
34004;-25,69;-41,62;-13,46;-3,72;1,99;5,21;2,03;1,93;0;0;
34033;-24,42;-37,22;-19,54;-3,76;2;5,03;1,89;1,72;0;0;
34065;-20,75;-36,28;-16,9;-7,68;2,29;4,84;1,94;2;0;0;
34094;-24,48;-25,22;-12,26;-11,5;2,05;4,75;2,03;2,34;0;0;
34118;-19,73;-29,88;-16,66;-11,43;2,12;4,77;2,34;3,07;0;0;
34141;-25,11;-35,95;-21,16;-5,69;2,31;4,73;2,26;3,28;0;0;
34160;-23,77;-34,52;-18,95;-6,71;2,5;5,66;2,31;3,29;0;0;
34181;-23,26;-38,75;-10,57;-9,2;2,44;5,35;2,35;3,51;0;0;
34202;-24,22;-40,55;-10,55;2,21;2,03;5,08;2,59;4,64;0;0;
34220;-22,89;-48,06;-13,75;-7,73;2,19;5,78;2,73;4,37;0;0;
34239;-22;-30,9;-18,6;-8,82;1,87;5,86;2,67;4,95;0;0;
34258;-23,18;-34,27;-16,52;-7,2;2,06;5,73;2,59;5,5;0;0;
34278;-23,02;-38,47;-15,37;-10,17;2,04;5,73;2,19;5,2;0;0;
34304;-23,02;-32,1;-17,55;-6,02;2,19;5,82;2,32;4,03;0;0;
34321;-21,33;-41,62;-12,79;-8,4;2,17;5,86;2,31;3,31;0;0;
34345;-27,53;-32,92;-16,85;-3,12;2,13;4,82;2,13;2,95;0;0;
34362;-22,33;-32,48;-15,87;-7,69;2,37;5,49;1,98;2,16;0;0;
34381;-25,46;-42,91;-17,2;12,26;2,11;5,29;2,31;3,82;0;0;
34399;-25,23;-37,36;-18,56;-4,12;2;5,84;2,5;4,13;0;0;
34420;-28,04;-34,91;-15,25;-13,44;2,11;5,27;2,4;4,04;0;1;
34439;-27,82;-39,59;-17,65;-2,65;2,19;5,96;2,29;4,43;0;1;
34468;-27,69;-41,18;-12,46;-7,69;2,11;5,46;2,33;5,37;0;1;
34491;-23,97;-26,13;-20,64;6,61;2,08;5,38;2,66;6,12;0;1;
34506;-23,97;-26,13;-20,64;6,61;2,29;5,25;2,52;6,48;0;1;
34530;-25,35;-35,06;-11,5;-15,95;2,25;5,52;2,55;7,72;0;1;
34554;-21,7;-32,86;-17,72;-18,15;2,09;5,66;3,71;12,51;0;1;
34574;-20,46;-44,01;-5,63;-13,3;2,36;6,15;4,3;15,17;0;1;
34593;-27,32;-38,73;-33,34;-20,42;2,49;6,4;5,25;14,79;0;1;
34614;-28,19;-2,98;-1,91;21,2;2,6;7,93;6,8;18,89;0;1;
34638;-26,86;-6,9;-2,28;10,79;3,1;12,48;8,97;26,96;0;1;
34655;-13,65;-6,01;-66,51;73,45;4,85;20,16;10,77;31,3;0;1;
34677;-25,94;13,1;-37,25;-79,63;4,94;29,51;14,36;41,43;0;0;
34699;-15,99;-107,64;-28,76;41,82;6,21;40,01;15,7;50,27;0;0;
34720;-48,18;-39,18;-32,03;-46,72;7,38;46,41;16,53;55,09;0;0;
34746;-31,65;-56,98;-33,88;-71,81;8,32;55,35;16,48;52,47;0;0;
34770;-33,57;-2,95;-22,86;-53,26;8,7;53,86;15,39;53,71;0;0;
34794;-17,8;-129,59;-22,5;-9,62;8,59;54,58;13,1;48,03;0;0;
34812;-27,56;-70,31;-6,16;20,5;8,35;57,51;12,72;39,82;0;0;
34831;-36,21;-95,61;-16,32;-44,39;8,29;52,48;11,12;35,96;0;0;
34861;-22,41;-10,51;-27,47;-23,95;7,06;53,4;9,82;33,93;0;0;
34880;-28,87;-54,41;-18,61;-21,26;7,38;50,19;8,26;27,94;0;0;
34903;-17,08;-103,04;-11,82;-30,71;7,51;54,79;9,27;23,17;0;0;
34933;-26,9;-5,2;-8,97;-12,85;6,58;45,93;7,87;17,38;0;0;
34952;-17,24;-30,07;-26,18;-5,5;6,34;44,86;6,71;15,96;0;0;
34975;-15,5;-53,65;-15,32;-1,76;7,11;37,92;5,84;18,18;0;0;
34992;-26,14;-27,96;-15,25;-14,1;6,97;35,2;5,9;15,14;0;0;
35012;-19,41;-53,8;-9,24;-20,1;6,86;37,39;4,69;15,48;0;0;
35031;-36,98;-36,72;-21,51;-15,59;6,57;33,6;4,12;15,98;0;0;
35053;4,1;-21,71;-13,81;-19,19;7,98;34,68;3,65;14,73;0;0;
35078;-23,2;-40,98;-11,03;-2,2;7,33;29,25;3,47;13,27;0;0;
35099;-38,89;-19,04;-12,52;-11,4;7,04;28,57;3,35;10,47;0;0;
35119;-24,42;-51,56;-6,45;0,03;7,9;28,16;3,76;11,4;0;0;
35143;-16,91;-13,39;-22,59;-8,69;10,26;22,81;3,66;12,15;1;0;
35162;-61,29;-33,97;-37,34;4,73;21,91;18,7;6,81;10,44;1;0;
35184;-22,98;-2,39;-17,02;-8,09;22,95;18,35;9,61;8,9;1;0;
35202;-28,39;-41,35;-13,06;-3,25;23,14;20,88;10,9;8,82;1;0;
35224;9;-39,62;-53,4;-6,56;25,73;17,87;12,57;7,85;1;0;
35241;-9,26;-28,87;-35,67;-6,72;30,03;18,31;14,8;5,73;1;0;
35267;-8,86;-49,06;-40,27;-4,25;29,24;17,01;20,23;4,26;1;0;
35285;-48,21;-17,81;-59,54;-9,57;21,8;15,03;28,46;3,98;1;0;
35309;66,77;-70,63;79,51;-9,15;39,55;14,64;35,76;3,19;1;0;
35332;-58,08;-42,41;192,12;-8,75;47,26;13,98;48,49;3,25;1;0;
35351;-143,43;-30,82;16,61;-4,18;49,38;12,51;65,57;3,67;1;0;
35373;-105,41;-78,4;-131,59;-3,35;74,55;14,59;79,78;3,9;1;0;
35392;272,17;-36,24;-108,38;-7,4;101,59;18,08;83,99;4;1;0;
35415;-232,02;-32,31;234,18;-7,17;104,85;17,23;93,91;4,52;1;0;
35434;-18,91;-37,53;15,13;2,36;128,84;15,16;102,28;4,92;1;0;
35453;-147,21;-16,68;-462,44;-8,54;162,94;16,53;110,79;5,2;0;0;
35475;327,14;-17,11;-203,14;-1,77;182,48;19,98;116,13;6,12;0;0;
35499;-126,72;-58,9;245,01;-10,36;170,86;17,09;118,48;6,43;0;0;
35519;-71,69;-35,61;112,12;-1,45;176,51;17,6;120,67;6,06;0;0;
35541;-52,94;-26,66;-65,44;-6,06;172,08;17,41;111,14;5,96;0;0;
35558;-63,94;-42,15;69,71;-11,09;152,68;17,69;113,54;5,69;0;0;
35588;43,96;-53,7;42,88;-18,23;165,52;16,86;109,52;5,48;0;0;
35613;-27,89;-31,85;159,83;-5,42;139,71;12,74;108,57;5,59;0;0;
35632;-27,75;-39,16;5,17;-11,69;111,43;9,22;118,86;5,7;0;0;
35654;-69,19;-41,37;-29,36;-8,77;101,27;8,24;112,61;5,36;0;0;
35672;-4,5;-38,56;-162,35;0,57;78,92;7,04;115,76;5,46;0;0;
35693;-25,18;-37,92;-25,88;-3,35;42,75;4,57;96,16;4,34;0;0;
35712;-25,24;-38,92;-62,37;-6,05;28,01;3,37;85,13;3,47;0;0;
35735;-24,54;-35,01;-47,05;-5,91;22,92;3,35;65,3;3,86;0;0;
35755;-8,29;-49,72;5,73;-14,45;30,71;4,04;54,66;3,62;0;0;
35770;-32,18;22,47;29,27;-10,61;27,68;7,57;53,81;4;0;0;
35793;38,96;-50,53;-2,48;-8,12;36,6;17,23;48,2;4,46;0;0;
35813;-27,16;18,53;-19,19;-12,06;37,55;21,85;45,91;4,59;0;0;
35835;-26,07;-24,22;-21,35;-34,29;38,1;22,6;31,73;4,92;0;0;
35858;-86,02;-67,15;-33,59;-11,91;32,61;24,3;27,75;6,35;0;0;
35877;-258,3;-11,26;18,13;-18,47;31,18;24,77;32,36;8,22;0;0;
35900;-25,99;-108,01;-22,71;34,08;37,53;28,88;26,68;12,87;0;0;
35921;-30,98;-12,78;-22,97;-8,92;26,88;27,17;20,09;18,72;0;0;
35940;-42,54;-74,71;-19,66;11,14;55,19;26,56;18,02;24,31;0;0;
35960;-45,24;41,98;-14,68;-11;59,6;29,53;16,15;26,85;0;0;
35978;-21,47;-51,98;-13,39;-43,43;57,75;39,35;12,03;27,91;0;0;
35998;-24,82;-61,36;-30,65;-33,15;47,96;49,45;3,61;22,95;0;0;
36021;-24,42;21,36;-13,31;-21,95;46,14;60,64;3,45;17,82;0;0;
36041;-24,27;-36,37;-19,49;12,53;18,01;60,44;3,4;15,42;0;0;
36068;-23,78;-32,6;-21,04;-10,96;14,95;50,69;3,4;12,79;0;0;
36090;61,52;-23,13;-19,05;-30,06;19,94;46,64;3,4;10,95;0;0;
36107;-27,38;-33,43;-19,39;-19,29;16,98;26,85;2,65;16,59;0;0;
36132;-28,36;-36,9;-14,49;-18,91;14,49;17,28;2,25;18,14;0;0;
36150;-28,36;-36,9;-14,49;-18,91;14,69;8,26;2,42;19,8;0;0;
36167;-21,56;-36,41;-15,53;7,91;14,95;6,11;2,45;19,73;0;0;
36190;-29,33;-39,63;-17,99;-16,63;15,74;5,37;2,45;20,84;0;0;
36211;-34,85;-32,2;-12,94;17,37;21,93;5,86;2,65;18,94;0;0;
36232;-24,99;-44,73;-5,6;6,34;22,47;7,07;3,77;16,33;0;0;
36251;-20,17;-46,52;-9,12;-20,12;21,5;6,77;6,15;15,87;0;0;
36274;-19,63;-39,08;-11,06;42,68;22,28;7,6;7,85;19,6;0;0;
36294;-27,9;-22,05;-15,79;6,19;21,35;7,9;9,16;21,78;0;0;
36315;-24;4,66;-13,44;-36,84;13,01;15,55;10,41;22,56;0;1;
36334;-57,33;-58,18;3,41;-18,28;7,48;21,91;13,33;22,4;0;1;
36354;-31,79;-13,48;-30,26;120,28;8,23;22,56;12,02;30;0;1;
36371;-23,65;-29,53;-19,05;32,84;7,26;24,28;11,9;37,3;0;1;
36396;-28,71;-46,32;-10,18;-21,13;7,1;25,58;12,19;36,22;0;1;
36415;-22,16;-28,81;-15,52;3,86;7,3;23,74;11,57;40,63;0;0;
36434;-22,82;-45,64;-53,99;25,06;7,11;13,63;11,26;45,52;0;0;
36459;-24,72;-27,67;-3,32;-95,88;2,77;10,8;9,99;47,21;0;0;
36481;-22,78;-82,49;8,79;63,96;2,47;10,35;12,57;41,33;0;0;
36500;-24,71;-72,84;-34,31;29,47;2,53;18,42;15,36;39,93;0;0;
36520;-24,46;-8,45;-40,12;101,97;2,34;20,4;16,07;41,87;0;0;
36541;-28,57;-34,71;-23,07;26,12;2,34;23,9;17,81;50,96;0;0;
36566;-26,78;-106,02;-36,2;17,21;2,38;26,51;17,62;56,07;0;0;
36592;-39,91;6,99;-9,33;-12,53;3,08;31,3;17,8;53,92;0;0;
36611;-3,87;-15,06;0,39;0,87;4,4;38,39;15,25;52,12;0;0;
36634;-3,13;26,12;-2,29;-19,17;6,53;38,18;13,87;49,56;0;0;
36658;-26,79;-78,64;-4,84;-10,36;8,84;43,23;13,47;39,29;0;0;
36675;-22,57;-76,89;-38,87;-1,41;10,12;48,77;11,98;28,76;0;0;
36693;-22,9;42,88;-34,18;-22,59;11,7;55,43;11,1;19,95;0;0;
36721;-23,34;111,13;-8,99;-10,12;11,41;57,67;8,95;19,12;0;0;
36741;-36,26;-11,02;-8,03;-14,18;10,62;50,38;9,78;19,14;0;0;
36764;-16,33;25,46;-30,41;-0,16;9,46;48,32;9,68;16,51;0;0;
36783;-21,24;-0,89;-9,07;-14,48;8,56;52,7;9,46;17,03;0;0;
36801;-21,88;-29,08;-27,93;-23,99;7,67;46,41;9,56;17,29;0;0;
36823;-39,17;-72,56;-1,61;-0,02;6,85;46,47;8,91;16,59;0;0;
36840;-18,3;-3,28;-14,07;8,78;6,77;40,85;7,82;14,58;0;0;
36863;-25,95;-88,31;-14,28;-12,28;5,8;39,08;7,11;13,66;0;0;
36889;-32,15;49,32;-4,28;-32,28;6,19;41,4;6,18;14,68;0;0;
36914;-15,98;-14,89;-18,61;5,95;7,65;45,84;5,62;13,88;0;0;
36936;-14,69;-26,75;2,12;5,67;8,33;42,81;5,98;14;0;0;
36956;-1,25;-28,93;-35,88;-35,19;8,19;42,95;6,47;12,83;0;0;
36975;-28,37;57,67;0,4;14,35;9,25;47,09;6,76;12,95;0;0;
36996;-27,72;-54,87;-14,5;0,7;10,25;43,62;6,09;13,66;0;0;
37015;-19,47;-98,4;-22,62;9,34;9,81;31,01;5,75;12,79;0;0;
37036;-18,14;-27,6;-13,67;-4,52;8,7;29,39;6,59;12,58;0;0;
37061;-4,61;-36,53;-18,44;-42,21;12,26;26,04;5,33;13,78;0;0;
37080;-71,37;-78,93;-13,93;-8,91;16,94;22,95;4,15;15,52;0;0;
37097;-18,77;-41,14;-18,44;12,98;19,73;16,03;3,62;14,24;0;0;
37121;-26,1;-74,77;-18,16;-25,92;24,64;15,63;3,69;15,3;0;0;
37140;-15,91;-43,75;-16,55;-20,45;24,3;17,21;2,81;15,19;0;0;
37162;-19,68;-33,38;-20,99;-8,31;23,06;18,18;2,46;15,14;0;0;
37181;-38,77;-74,83;-14,94;-30,02;22,65;19,39;2,35;12,17;0;0;
37203;-28,99;-68,79;-13,8;-4,97;20,94;25,25;2;12,25;0;0;
37225;-2,07;-25,69;-17,9;-14,53;15,27;28,56;1,82;9,94;0;0;
37243;-22,84;-49,44;-16,62;13,11;12,46;25,08;1,61;10,52;0;0;
37263;-38,79;-41,99;-15,35;5,94;13,9;22,64;1,49;10,71;0;0;
37282;-25,98;48,76;-13,41;-10,08;11,25;22,39;1,61;9,49;0;0;
37306;-22,17;-22,55;-15,24;-6,45;8,61;21,98;1,67;7,4;0;0;
37324;-23,66;-64,86;-16,32;-7,16;6,56;18,18;1,67;6,12;0;0;
37346;-24,47;-32,34;-16,56;-6,69;5,81;16,71;1,88;5,26;0;0;
37368;-25,39;-103,37;-16,49;-9,08;4,68;25,13;1,99;3,18;0;0;
37389;-23,21;15,56;-15,15;-5,31;2,52;32,81;1,82;2,02;0;0;
37413;-32,86;-160,87;-13,94;-8,52;3;39,33;1,83;1,86;0;0;
37431;-26,14;43,29;-16,04;-9,26;2,92;49,7;1,84;1,84;0;0;
37451;-28,4;-21,75;-16,17;-7,21;3,48;48,97;1,77;1,99;0;0;
37473;-15,15;-57,55;-16,52;-9,89;3,75;51,69;1,62;1,88;0;0;
37492;-21,55;-37,3;-21,69;-7,41;3,51;47,45;1,93;1,84;0;0;
37511;-26,46;14,86;-14,4;-4,46;3,39;50,23;1,95;1,81;0;0;
37533;-23,32;-36,78;-21,32;-5,52;2,94;31,12;2,18;1,77;0;0;
37554;-22,23;-44,27;-15,26;-8,39;2,35;28,22;2,47;1,99;0;0;
37577;-28,37;-35,56;-20,13;-7,19;2,06;25,77;2,69;1,86;0;0;
37596;-25,52;-22,48;-16,34;-10,89;1,71;21;2,57;1,88;0;0;
37615;-25,7;-40,49;-18,33;-5,52;1,59;17,26;2,4;1,85;0;0;
37636;-24,52;-21,92;-14,01;-2,79;1,43;11,89;2,29;1,76;0;0;
37654;-22,33;-59,46;-18,24;-5,85;1,44;12,84;1,95;1,67;0;0;
37679;-25,48;-33,7;-18,73;-7,6;1,58;11,93;1,76;1,6;0;0;
37702;-19,37;-21,55;-16,05;-8,58;1,65;10,41;1,38;1,75;0;0;
37721;-33,24;-30,27;-15,87;-2,44;2,24;12,19;1,36;1,62;0;0;
37745;-31,27;-44,82;-21,22;-6,13;2,89;14,07;1,47;1,75;0;0;
37764;-38,33;-77,71;-14,49;-7,53;3,33;18,26;1,45;1,81;0;0;
37782;-24,53;-35,12;-18,2;-3,19;3,82;19,09;1,58;1,85;0;0;
37802;-26,11;-19,7;-16,31;-8,77;4,47;20,33;1,58;2,04;0;0;
37828;-22,9;-39,41;-13,87;-7,68;4,32;18,87;1,7;2,1;0;0;
37850;-27,1;-45,8;-15,72;-8,8;3,48;15,24;1,7;1,82;0;0;
37868;-22,56;-33,77;-14,91;-2,74;3,31;13,65;1,67;1,73;0;0;
37889;-20,66;-63,64;-16,64;-8,84;2,92;10,35;1,54;1,97;0;0;
37912;-20,11;-26,82;-13,8;-10,22;2,48;9,19;1,59;1,88;0;0;
37931;-29,95;-23,51;14,34;-8,87;2,11;8,74;2,61;1,7;0;0;
37951;-24,42;-49,46;-73,38;-10,49;2,24;10,22;15,55;2,09;0;0;
37971;-26,2;-21,81;13,46;-7,43;2,33;11,35;23,74;2,42;0;0;
37994;-24,86;-48,73;-172,25;-6,97;2,5;11,92;42,81;2,77;0;0;
38015;-21,32;-45,03;-109,42;-7,71;2,35;11,04;57,04;3,42;0;0;
38032;-29,04;-32,6;128,17;10,58;2,5;10,93;79,52;4,34;0;0;
38053;-28,72;-33,83;217,94;-2,31;2,17;9,82;106,68;5,41;0;0;
38074;-26,46;-59,17;-176,4;0,93;2,17;8,68;112,14;5,88;0;0;
38099;-15,57;-36,89;103,21;-3,5;2,26;7,63;113,3;5,93;0;0;
38119;-21,78;-55,82;-177,02;-2,47;2,63;8,51;112,22;6,22;0;0;
38141;-22,04;-40,67;-64,43;5,59;2,46;8,24;110,54;5,99;1;0;
38161;-24,42;-40,53;89,17;-10,08;2,47;7,6;107,01;5,6;1;0;
38183;-22,81;-33,39;62,28;-5,42;2,54;6,76;98,47;5,44;1;0;
38203;-23,74;-33,38;-109,21;-8,55;2,51;6,69;95,47;5,39;1;0;
38222;-24,84;-33,52;21,62;-0,96;1,93;6,17;82,99;5,15;1;0;
38240;-17,63;-36,45;66,37;-9,99;2;4,79;90,48;4,72;1;0;
38264;-17,82;-39,76;-78,83;-2,89;3,85;4,72;93,39;4,39;1;0;
38283;-23,08;-33,17;-20,77;-16,32;6,03;4,48;91,63;4,64;1;0;
38303;4,93;-48,57;-13,54;13,95;15,86;4,22;95,37;4,43;1;0;
38323;-98,33;-37,71;-78,12;-5,16;27,67;4,5;106,23;4,49;1;0;
38347;-329,55;-39,64;-43,11;-9,71;40,42;4,14;107,87;4,36;1;0;
38366;14,01;-32,15;-25,95;-7,66;72,14;5,3;101,16;4,3;1;0;
38385;-259,68;-46,61;-197,21;-6,93;88,2;5,68;102,42;4,25;1;0;
38406;106,38;-30,75;-35,11;-5,17;111,58;6,89;87,85;3,43;1;0;
38436;21,86;-32,22;46,05;-6,4;114,37;7,1;52,7;2,62;1;0;
38454;303,3;-40,43;-63,54;-1,75;154,02;7,69;50,4;2,72;1;0;
38478;-0,38;0,84;-44,03;-2,63;133,74;10,26;43,8;2,46;1;0;
38503;-95,07;-76,02;-134,3;-11,31;143,34;13,92;47,63;2,63;0;0;
38524;-69,2;-10,74;-12,38;-3,89;143,22;16,51;42,02;2,57;0;0;
38549;433,11;30,99;-17,58;-4,68;149,76;24,29;29,07;2,45;0;0;
38571;-17,99;-23,04;-15,1;-1,93;123,28;28,69;26,81;2,33;0;0;
38595;-39,36;-34,15;-21,49;-8,65;118,14;26,01;20,72;2,34;0;0;
38617;256,83;-44,71;-16,17;-3,77;120,1;23,45;4,82;2,16;0;0;
38638;27,75;-44,68;-20,04;-6,75;126,23;21,75;4,48;2,11;0;0;
38662;-24,22;2,36;-16,21;-5,16;118,69;15,88;3,68;2,02;0;0;
38683;-29,91;-36,81;-17,89;-7,52;97,13;12,17;3,33;2,16;0;0;
38706;0,6;-34,49;-14,18;-3,36;85,43;8,7;3,29;2,16;0;0;
38724;-25,47;-37,27;-14,32;-4,6;60,93;7,38;2,34;1,95;0;0;
38748;-24,69;-36,13;-20;-3,75;23,97;5,85;1,9;2,04;0;0;
38771;-24,08;-33,63;-18,17;-6,46;33,19;5,86;1,95;2,03;0;0;
38793;-24,6;-40,35;-16,18;-10,43;23,71;4,61;1,92;2,02;0;0;
38815;-36,5;-37,59;-15,03;-3,38;29,97;4,79;1,86;2,05;0;0;
38841;-12,82;-35,65;-14,84;-7,65;28,23;4,56;1,78;2,45;0;0;
38859;-20,33;-72,28;-20,54;-8,4;29,1;7,73;1,9;2,31;0;0;
38878;-22,08;-59,67;-17,35;-5,95;14,77;15,72;2,05;2,29;0;0;
38896;-19,14;-38,66;-15,18;-8,04;11,56;18,73;2,14;2,23;0;0;
38915;-275,49;-31,18;-10,13;-5,9;21,66;21,43;2,22;1,88;1;0;
38932;-40,69;13,4;-11,73;-5,3;35,66;24,79;2,79;2,05;1;0;
38953;-22,54;-107,91;-28,72;-7,04;34,58;35,67;3,54;1,89;1;0;
38976;-34,43;-75,71;-15,87;-10;36,29;35,23;3,28;1,98;1;0;
38994;-23,79;15,01;-16,2;-5,37;36,5;34,91;3,29;2,02;1;0;
39013;-35,45;3,45;-18,87;-6,98;37,5;37,96;3,24;2,06;1;0;
39036;-66,49;-124,39;-10,66;-5,35;16,56;48,32;3,43;1,89;1;0;
39058;117,53;-57,18;61,85;-4,23;37,51;43,42;10,8;1,72;1;0;
39078;271,02;3,25;50,46;-5,82;59,93;37,55;25,09;1,74;1;0;
39096;29,95;-11,74;-119,4;-12,54;82,99;40,54;39,4;1,68;1;0;
39120;-110,72;-50,45;-184,02;-4,02;122,87;28,61;77,85;3;1;0;
39147;-14,36;-31,28;-34,01;-6,1;116,23;21,34;89,82;3,7;1;0;
39166;-130,31;-131,77;-218,05;-1,27;127,91;25,54;107,78;4,24;1;0;
39188;24,38;-54,6;-275,84;-4,24;127,34;25,63;109,88;4,74;0;0;
39212;-105,5;-43,85;219,06;-2,77;171,02;25,92;123,19;4,73;0;0;
39239;30,4;-46,81;-56,13;-3,03;174,73;26,06;115,66;4,17;0;0;
39263;-64,81;-38,89;-219,25;-5,66;179,62;26,06;120,97;4,32;0;0;
39282;-194,61;-48,21;-352,41;-11,02;183,55;25,95;117,59;4,35;0;0;
39312;-70,32;-40,46;143,14;-11,83;178,67;16,4;105,36;3,99;0;0;
39335;-37,19;-67,98;-7,58;-13,15;149,41;14,06;101,47;4,08;0;0;
39355;22,61;-13,37;-32,39;-2,77;117,78;14,63;80,13;3,87;0;0;
39378;-55,94;-50,52;-76,17;-4,18;92,93;13,24;72,39;3,43;0;0;
39398;35,28;-47,17;104,34;-4,15;85,73;13,57;52,14;2,87;0;0;
39416;-5,56;-41,95;-29,93;-9,01;87,38;12,48;52,25;2,93;0;0;
39436;-1,14;-36,65;-7,98;-7,4;94,75;12,81;36,29;2,77;0;0;
39461;-12,34;-37,25;-8,27;-5,84;84,9;10,18;27,73;2,44;0;0;
39475;-26,4;-35,47;-17,05;-1,41;73,44;7,22;26,82;2,42;0;0;
39497;-31,65;-37,35;-2,86;-2,95;64,59;6,64;25,01;2,6;0;0;
39519;-21,78;-30,34;-39,66;-8,02;43,97;5,46;13,89;2,73;0;0;
39538;-22,26;-45,27;-12,09;-5,36;21,72;4,18;12,74;2,73;0;0;
39563;-15,94;-47,89;-20,8;-11,08;24,71;4,76;12,39;2,92;0;0;
39583;-23,79;-42,73;-18,74;-3,32;23,77;6,68;11,12;2,86;0;0;
39602;-10,8;-55,21;-19,82;-9,08;23,76;12,69;8,64;2,66;0;0;
39628;13,63;-46,6;-16,67;-6,3;25,04;15,72;5,57;2,4;0;0;
39646;-29,42;-4,42;-12,78;-8,34;26,52;17,18;3,24;1,98;0;0;
39668;-22,12;-69,19;-18,85;-8,4;22,73;26,61;2,12;1,68;0;0;
39687;-70,87;-34,09;-19,47;-7,51;17,95;26,61;2;1,44;0;0;
39711;-25,94;3,55;-10,96;-7,39;19,35;29,5;1,92;1,32;0;0;
39732;-23,28;-87,24;-16,37;-8,53;18,16;29,04;1,95;1,22;0;0;
39753;-24,42;-66,65;-17,01;-9,24;13,87;30,54;2,05;1,59;0;0;
39777;-29,23;27,75;-18,24;-6,37;12,47;30,4;2,09;1,56;0;0;
39796;-42,42;-154,73;-15,69;-3,71;16,36;41,29;2,01;1,66;0;0;
39814;-19,53;-17,7;-16,13;-10,59;9,32;44,47;1,93;1,8;0;0;
39837;-22,8;-6,83;-19,89;-6,32;8,31;39,99;1,82;1,72;0;0;
39856;-23,14;-47,26;-16,95;-8,21;8,38;36,8;2,12;1,57;0;0;
39875;-20,83;-48,43;-17,8;-9,39;19,36;35,16;2,27;1,46;0;0;
39894;145,5;6,44;-13,51;-6,03;25,53;30,87;2,18;1,63;0;0;
39919;-22,43;-47,92;-17,2;-10,47;22,74;23,6;2,13;1,72;0;0;
39940;-19,32;-27,14;-14,92;-4,39;22,98;22,36;1,99;1,82;0;0;
39963;-22,67;-29,18;-16,59;-3,38;22,97;25,88;1,7;2,01;0;0;
39984;-30,72;-45,58;-17,43;-7,54;20,79;25,52;1,64;2,09;0;0;
40004;130,69;-25,46;-14,93;-9,46;23,47;24,49;1,51;2,04;0;0;
40029;-19,03;-38,13;63,09;-11,47;17,84;13,77;6,36;2,04;0;0;
40045;214,89;-26,17;20,73;-7,84;27,86;10,25;17,85;2,26;0;0;
40066;-65,24;-38,74;-4,32;-8,89;35,6;7,04;34,58;2,41;0;0;
40085;-20,35;-37,08;-94,05;-6,79;36,3;4,43;44,84;2,69;0;0;
40113;-52,67;-33,99;-44,16;-10,94;44;4,33;69,59;3,53;1;0;
40132;-65,3;-45,93;-381,9;-12,38;57,03;5,17;85,21;4,22;1;0;
40150;-93,29;-44,21;-230,87;-3,04;78,93;6;99,32;4,65;1;0;
40170;-93,29;-44,21;-230,87;-3,04;87,27;5,77;106,04;5,05;0;0;
40198;-40,47;-46,4;-14,81;-3,75;96,84;6,32;107,6;5,22;0;0;
40226;109,4;-28,68;-262,99;-4,62;108,74;6,55;107,93;4,86;0;0;
40248;4,36;-42,75;14,57;-24,98;108,97;6,67;132,31;5,27;0;0;
40278;46,6;-41,01;-274,95;-4,94;100,8;5,99;129,76;5,31;0;0;
40305;-238,38;-32,85;-58,41;-6,68;102,91;6,24;118,31;4,76;0;0;
40328;-56,58;-75,33;30,17;6,39;119,27;7,72;110,45;4,94;0;0;
40345;-113,77;-39,85;-429,33;-0,88;122,51;8,18;117;5,24;0;0;
40364;52,91;-30,44;-1,47;-7,4;148,5;9,8;118,01;5,19;0;0;
40398;-144,82;-47,21;55,34;1,24;154,21;10,18;85,87;4,56;0;0;
40425;49,14;-11,15;-79,6;-4,93;163,3;10,95;83,22;4,47;0;0;
40446;44,79;-41,87;-63,7;-9,8;147,56;11,62;91,17;4,26;0;0;
40469;-105,16;-35,66;-84,78;-5,5;128,18;9,63;84,99;3,43;0;0;
40487;166,15;-21,68;-16,96;-8,31;111,76;9,65;70,76;3,38;0;0;
40508;-45,27;-57,1;-1,04;-2,85;120,67;10,67;71,87;3,27;0;0;
40528;-146,19;-48,71;120,56;-3,36;119,2;10,43;60,44;2,7;0;0;
40551;-212,62;-56,48;133,69;-4,39;136,96;9,72;64,04;2,97;0;0;
40570;-212,62;-56,48;133,69;-4,39;159,95;10,16;68,24;3,22;0;0;
40592;90,98;-42,52;-76,48;-3,63;153,08;9,98;68,66;3;0;0;
40608;90,98;-42,52;-76,48;-3,63;137,77;8,97;75,7;3;0;0;
40629;-14,94;-42,85;-20,08;-7,3;122,19;8,38;66,61;2,85;0;0;
40646;-32,47;-28,2;-48,38;-6,46;101,38;7,69;60,75;3,21;0;0;
40669;-9,8;-42,02;-29,53;-7,04;72,55;6,77;45,05;2,62;0;0;
40688;-24,43;-33,56;-91,43;-10;47,5;5,61;37,34;2,01;0;0;
40713;-162,19;-42,77;-28,9;-6,05;52,49;5,14;29,12;1,96;0;0;
40738;-23,34;-40,78;-5,02;-7,14;44,17;4,16;25,33;2,03;0;0;
40756;-25,05;-35,56;-15,11;-9,25;31,18;3,59;21,51;1,72;0;0;
40781;-4,96;-28,67;-59,04;-7,41;32,5;4,09;22,3;1,78;0;0;
40803;-26,2;-51,02;-13,27;-9,51;28,32;4,81;18,81;1,95;0;0;
40826;-2,44;-20,7;-13,67;-9,01;28,37;9,25;13,1;1,89;0;0;
40845;-33,71;-76,37;-12,67;-5,7;27,28;17,33;9,72;1,88;0;0;
40868;-21,2;-87,89;-16,27;-6,82;29,3;25,75;7,19;1,84;0;0;
40889;-25,21;-64,1;-15,3;-2,6;20,72;38,72;6,01;1,6;0;0;
40909;-15,32;-100,63;-17,57;-7,86;19,58;48,81;1,87;1,66;0;0;
40928;-71,03;-13,51;-14,63;-6,92;32,89;51,2;2,07;1,59;0;0;
40947;-42,86;-110,48;-15,52;-5,15;31,32;53,23;2,08;1,6;0;0;
40966;-24,29;-58,27;-17,73;-6,71;25,82;53,92;2,16;1,61;0;0;
40989;-26,72;55,64;-15,91;-10,01;26,06;51,95;1,99;1,69;0;0;
41009;-190,2;-38,18;-17,64;-4,37;31,31;47,44;2,19;1,55;0;0;
41031;-17,43;-43,51;-14,43;-7,18;28,14;41,77;2,19;1,62;0;0;
41062;-24,28;-39,57;-13,82;-7,53;18,83;36,94;1,96;1,34;0;0;
41079;-40,57;-49,62;-13,95;-9,36;15,51;26,45;2,12;1,51;0;0;
41097;-15,73;-39,71;-17,17;-8,03;17,79;20,83;2,1;1,72;0;0;
41117;-2,25;-34,19;-18,79;-3,12;20,79;8,06;2,02;1,79;0;0;
41135;-42,01;-35,24;-17,04;-4,95;16,5;5,28;1,83;1,87;0;0;
41154;-25,92;-34,25;-17,78;-7,8;19,38;5,03;1,78;1,9;0;0;
41178;37,35;-39,29;-13,82;-7,67;21,89;4,6;1,81;1,86;0;0;
41200;-27,36;-37,71;-16,89;-6,07;19,27;3,75;1,63;1,8;0;0;
41225;-23,51;-36,63;-19;-7,24;18,02;3,23;1,78;1,76;0;0;
41245;-30,49;-40,88;-12,36;-8,4;16,15;3,15;2,01;1,92;0;0;
41267;-12,47;-37,52;-16,65;-6,9;16,17;2,89;2,61;1,9;0;0;
41284;-31,41;-30,64;-18,75;-4,89;14,9;2,81;2,74;1,98;0;0;
41305;-58,33;-39,67;-21,29;-5,88;27,27;3,54;2,89;1,98;0;0;
41329;-17,99;-36,24;-16,19;-9,02;24,38;3,49;2,74;1,97;0;0;
41348;-23,18;-29,52;-16,79;-6,43;22,35;3,39;2,2;1,8;0;0;
41367;-61,79;-39,94;-15,79;-3,1;20,97;3,52;1,94;1,8;0;0;
41393;10,25;-34,96;-15,89;-4,73;27,63;3,16;1,76;1,9;0;0;
41411;-22,72;-35,99;-16,36;-6,01;13,63;2,95;1,74;1,87;0;0;
41435;-20,09;-36,03;-17,56;-5,9;10,3;3,02;1,54;1,66;0;0;
41452;-24,91;-36,99;-14,09;-10,71;10,37;3,01;1,58;1,7;0;0;
41473;-10,68;-38,25;-15,69;-1,79;13,83;2,96;1,49;1,79;0;0;
41490;-16,05;-40,98;-14,64;-7,5;11,84;3,14;1,46;1,56;0;0;
41513;-25,34;-37,34;-21,24;-5,72;7,1;2,83;1,51;1,6;0;0;
41535;-26,84;-34,7;-16,02;-5,68;7,17;2,82;1,64;1,61;0;0;
41560;-21,2;-39,19;-17,64;-5,78;7,11;2,53;1,78;1,73;0;0;
41585;-22,81;-39,19;-12,26;-8,65;5,4;2,71;1,9;1,44;0;0;
41601;-23,46;-37,69;-13,5;-8,19;2,36;2,35;1,86;1,41;0;0;
41621;-25,73;-34,54;-11,21;-4,48;2,28;2,27;2,07;1,53;0;0;
41641;-25,31;-42,86;-12,97;-5,68;2,1;2,46;1,99;1,68;0;0;
41662;-23,06;-41,98;-17,05;-11,4;1,83;2,42;1,82;1,75;0;0;
41682;-22,14;-36,14;-16,23;-6,71;2,02;2,37;1,8;1,62;0;0;
41702;-23,79;-35,5;-12,07;-7,94;1,77;2,16;1,68;1,7;0;0;
41728;-26,64;-34,86;-18,61;-7,29;1,9;2,51;1,89;1,97;0;0;
41753;-27,21;-37,78;-17,06;-4,11;1,98;2,59;1,76;1,85;0;0;
41777;-22,8;-38,3;-13,98;-9,4;1,98;2,52;1,87;1,87;0;0;
41798;-21,22;-36,81;-17,12;-10,06;1,9;2,37;2,19;2,08;0;0;
41818;-22,36;-38,43;-14,16;-8,13;1,73;2,49;2,16;2,09;0;0;
41842;-24;-37;-15,51;-5,88;1,58;2,53;2,01;1,88;0;0;
41865;-23,1;-36,35;-11,26;-8,21;1,64;2,07;2,11;1,93;0;0;
41886;-25,72;-38,68;-17,06;-4,48;1,8;2,48;2,48;1,91;0;0;
41904;-22,49;-39,98;-17,63;-8,1;1,68;2,64;2,42;1,84;0;0;
41924;-25,46;-41,4;-14,05;-8,77;1,66;2,69;2,43;1,7;0;0;
41949;-118,62;-37,56;-15,8;-6,06;6,65;2,85;2,56;1,55;0;0;
41965;87,29;-37,97;-11,79;-7,78;18,27;3,25;2,26;1,47;0;0;
41988;187;-38,34;-12,19;-4,54;25,8;3,38;2,34;1,4;0;0;
42007;-64,5;-35,38;-9,71;-8,89;35,95;3,34;3,43;1,39;0;0;
42030;1,63;-36,94;54,29;-11,16;43,1;3,72;17,5;1,6;1;0;
42060;-13,58;-35,43;-56,92;-1,63;50,77;3,76;36,47;2,14;1;0;
42077;-45,09;-42,56;-41,98;-10,48;63,49;4,05;49,1;2,31;1;0;
42097;-154,71;-38,6;-172,13;-5,93;65,82;4,29;59,87;2,62;1;0;
42119;-27,61;-33,49;54,1;-9,01;63,86;4,56;80,07;3,39;1;0;
42139;-50,76;-32,92;-55,43;-6,92;61;4,3;89,32;3,67;1;0;
42159;2,19;-70,17;96,55;-11,23;59,44;5,91;98,03;3,44;1;0;
42184;-179,98;-59,14;49,53;-4,08;49,15;11,58;95,87;3,52;0;0;
42204;155,6;-27,84;-153,32;-10,85;60,21;14,37;97,44;3,82;0;0;
42227;-23,41;-41,96;-153,38;-28,57;71,71;15,6;112,1;4,27;0;0;
42246;-80,93;-43,45;30,76;-18,5;93,8;17,04;116,18;4,55;0;0;
42268;-186,16;-47,05;-57,58;-4,9;105,65;18,04;119,38;4,76;0;0;
42287;557,65;8,37;119,77;-9,36;131,21;15,86;128,51;5,11;0;0;
42306;499,4;17,22;-322,47;-8,64;156,68;14,03;122,41;4,93;0;0;
42330;126,72;-58,38;54,29;-8,42;167,03;16,3;128,34;4,93;0;0;
42355;-41,53;-34,65;-105,58;7,82;160,15;15,92;117,77;4,58;0;0;
42381;-281,13;-21,46;-73,05;0,34;163,13;14,75;109,3;4,82;0;0;
42403;280,9;-45,9;-68,6;-18,52;168,08;15,1;101,46;5,05;0;0;
42422;40,27;-66,88;-28,77;-7,4;157,43;14,19;93,8;4,64;0;0;
42440;-162,12;-40,13;67,35;-9,41;141,5;12,64;94,76;4,71;0;0;
42464;-41,42;-65,59;46,48;-10,14;126,33;10,64;89,37;4,26;0;0;
42484;-111,38;-49,85;-4,51;-5,34;126,1;12,23;81,89;3,97;0;0;
42505;43,61;-23,13;-34,01;-9,64;112,77;10,85;85,71;3,22;0;0;
42527;347,25;-20,61;-26,45;-11,46;117,39;10,38;71,68;2,87;0;0;
42546;-15,32;-35,3;-31,05;-6,04;103,39;8,95;70,06;3,16;0;0;
42566;-11,12;-35,21;-9,9;-4,67;85,8;8,13;47,24;3,08;0;0;
42585;-29,21;-38,93;-21,85;-3,7;71,99;5,68;37,23;2,82;0;0;
42605;-45,68;-48,28;-20,04;-34,41;74,07;6,99;31,12;5,07;0;0;
42627;-19,59;-36,11;-19,24;-11,57;66,51;6,58;18,78;10,43;0;0;
42645;-50,51;-39,14;-20,57;0,75;40,92;5,66;8,26;13,35;0;0;
42666;-20,31;-34,07;-13,3;0,71;34,5;5,71;5,16;16,92;0;0;
42687;-2,67;-34,65;-18,93;15,09;31,37;5,84;4,51;19,31;0;0;
42710;-12,71;-56,26;-14,08;-3,17;39,06;6,75;4,27;19,85;0;0;
42728;-22,47;-31,27;-11,04;7,4;23,89;4,65;2,81;20,68;0;1;
42751;-25,37;-18,77;-13,02;-34,99;23,06;6,07;2,7;17,66;0;1;
42765;-25,37;-18,77;-13,02;-34,99;22,7;7,34;2,58;17,08;0;1;
42786;-27,98;4,21;-14,5;14,4;31,14;10,67;2,66;16,69;0;1;
42806;-23,51;-40,37;-8,99;12,06;27,33;18,64;2,87;20,87;0;1;
42826;-16,76;-6,31;-11,27;36,51;16,34;20,27;3,93;28,09;0;1;
42854;35,43;-13,62;-7,93;-47,86;18,42;23,98;5,2;31,37;0;1;
42879;-9,27;4,02;-2,39;70,75;19,96;25,96;6,43;40;0;0;
42899;-19,18;-35,93;-0,07;28,12;23,76;31,39;6,97;47,16;0;0;
42920;-74,82;-72,08;1,77;53,6;18,26;27,51;8,78;58,08;0;0;
42939;-27,76;-25,72;-24,28;55,06;17,87;24,63;9;61,23;0;0;
42958;-34,27;-21,55;-22,56;57,13;22,02;24,34;11,89;64,53;0;0;
42983;-43,28;-69,62;-5,98;129,7;20;17,25;13,89;70,73;0;0;
43008;-30,67;-42,28;-8,15;93,56;19,23;15,44;15,47;72,47;0;0;
43036;-26,3;35,38;-32,35;25,82;14,46;29;15,33;59,52;0;0;
43055;-22,15;-43,87;-4,34;-77,37;8,84;35,84;14,13;54,04;0;0;
43079;-23,62;-197,42;-20,72;7,91;5,16;47,89;12,74;54,75;0;0;
43095;-23,49;-17,15;-28,87;-22,49;3,1;56,97;12,97;40,16;0;0;
43115;-22,86;-34,71;-16,79;3,12;2,9;53,97;12,69;35,3;0;0;
43139;-28,73;-160,74;-17,4;-21;4,19;53,36;12,07;34,66;0;0;
43162;-24,1;10,71;-0,56;-42;5,63;56,77;11,6;34,81;0;0;
43186;-25,76;-127,52;-11,47;-25,41;6,35;64,26;10;29,53;0;0;
43204;-34,07;-49,5;-16,68;-22,23;7,66;54,36;9,19;26,34;0;0;
43223;-28,1;-94,32;-24,85;-3,31;8,21;57,3;7,74;26,1;0;0;
43245;-27,59;-125,93;-13,49;-4,59;7,99;69,15;7,38;22,61;0;0;
43266;-37,85;19,16;-23,08;91,65;7,04;63,38;6,6;20,09;0;0;
43285;-22,17;-4,55;-11,81;10,01;6,96;59,23;6,1;20,6;0;0;
43303;-24,06;-100,83;-12,09;1,81;5,71;47,55;5,51;21,88;0;0;
43328;-33,68;-5,49;-16,09;-19,12;5,39;48,12;6,2;20,5;0;0;
43350;-25,23;-67,78;-4,27;-5,65;5,39;43,61;5,52;20,23;0;0;
43365;-25,23;-67,78;-4,27;-5,65;5,18;34,4;5,59;20,91;0;0;
43386;-21,52;-28,47;-20,74;-25;4,96;32,9;5,07;16,6;0;0;
43405;-37,73;-106,1;-17,49;-10,26;5,75;31,51;4,58;13,6;0;0;
43424;-16,31;20,61;-15,53;-10,33;5,53;30,84;3,82;12,17;0;0;
43445;-32,82;-132,91;-17,07;-8,38;5,63;32,69;2,98;11,78;0;0;
43467;-14,36;-3,85;-16,77;5,28;6,27;30,43;2,43;11,28;0;0;
43491;-29,84;-111,84;-14,81;-14,74;6,87;33,75;2,25;9,32;0;0;
43512;-19,91;-69,36;-17,7;-5,71;6,28;34,54;2,15;7,41;0;0;
43528;-19,91;-69,36;-17,7;-5,71;5,67;32,49;2,01;6,24;0;0;
43553;-37,16;-11,2;-16,82;-5,69;6,23;31,03;1,91;5,4;0;0;
43571;-26,27;-33,57;-21,29;-4,13;5,25;22,98;2,08;3,88;0;0;
43589;-26,27;-33,57;-21,29;-4,13;4,73;19,08;2,07;2,31;0;0;
43607;-23,73;-17,09;-17,4;-10,08;4,75;17,12;1,92;1,94;0;0;
43627;-25,9;107,38;-12,13;-5,82;4,84;23,04;1,9;2,12;0;0;
43648;-21,85;-22,89;-19,95;-9,25;6,08;24,49;1,82;2,14;0;0;
43670;-3,44;-7,99;-16,08;-8,99;6,73;31,08;1,85;2,3;0;0;
43689;-29,98;-59,03;-16,91;-9,84;7,05;36,14;1,8;2,35;0;0;
43707;-18,21;4,88;-18,91;-6,62;6,66;37,71;1,59;2,22;0;0;
43728;-21,87;-12,33;-14,49;-7,4;7,84;38,03;1,62;2,16;0;0;
43746;-0,18;-67,23;-18,45;-5,69;7,6;34,91;1,79;2,01;0;0;
43766;-33,05;-67,59;-13,69;-6,93;8,73;31,69;1,96;2,06;0;0;
43784;-50,99;-30,64;-14,36;-6,03;9,99;26,43;1,8;1,76;0;0;
43819;-27,18;-80,35;-16,48;-4,36;9,98;25,54;1,77;1,9;0;0;
43835;-44,89;-57,14;-16,71;-12,43;13,53;21,71;1,65;2,01;0;0;
43859;-30,56;-32,02;-15,04;-9,11;13,58;19,45;1,79;1,92;0;0;
43880;-23,49;-111,22;-18,07;-6,07;14,21;20,9;1,48;1,86;0;0;
43901;-31,6;19,45;-18,06;-11,41;12,34;24,16;1,77;1,96;0;0;
43921;-16,91;-31,28;-15,89;-8,77;11,59;23,39;1,77;2;0;0;
43940;-22,81;-33,7;-17,61;-8,57;10,87;20,53;1,72;2,27;0;0;
43962;-18,99;-30,84;-16,16;-6,91;7,47;19,56;1,81;2,32;0;0;
43983;-22,9;-31,32;-16,57;-7,24;6,83;19,51;1,7;2,18;0;0;
44003;-24,6;-46,43;-14,25;-5,1;4,85;11,74;1,74;2,1;0;0;
44023;-24,03;-47,45;-14,62;0,87;3,19;9,42;1,68;2,1;0;0;
44043;-23,68;-40,02;-19,42;-11,32;2,79;9,63;1,83;1,91;0;0;
44062;-28,2;-35,72;-13,68;-7,3;2,55;8,77;2,06;1,72;0;0;
44082;-21,26;-38,7;-14,53;17,83;1,87;6,89;2,15;2,81;0;0;
44103;-25,42;-37,9;-10,78;-10,57;2,09;6,04;2,18;4,81;0;0;
44125;-22,83;-34,09;-18,23;-11,5;2,32;5,16;2,16;4,91;0;0;
44146;-25,04;-33,15;-15,92;-19,65;2,21;3,94;2,18;6,48;0;0;
44167;-23,78;-41,11;-17,76;-4,9;2,12;3,32;1,9;8,4;0;1;
44191;-24,88;-41,71;-15,61;-19,96;2,17;3,19;1,93;9,3;0;1;
44208;-24,88;-41,71;-15,61;-19,96;2,13;3,12;1,98;8,42;0;1;
44231;-25,48;-33,55;-16,46;-3,79;1,99;2,87;2,32;12,92;0;1;
44249;-25,48;-33,55;-16,46;-3,79;1,72;2,76;2,6;17,98;0;1;
44272;-21,18;-39,4;-22,56;0,71;1,71;3,11;3,3;20,98;0;1;
44293;-25,37;-47,61;-10,17;16,13;1,67;4;4,51;22,78;0;1;
44315;-25,36;-34,12;-1,2;60,32;1,59;5,38;5,79;27,12;0;1;
44331;-24,21;-51,17;-22,78;-11,47;1,56;6,56;6,6;29,74;0;1;
44354;-24,73;-53,01;-15,35;-31,88;1,72;7,33;7,09;27,58;0;1;
44387;-23,36;-47,21;-16,9;-51,44;1,93;8,4;8,07;28,95;0;1;
44404;-23,28;-31,85;-19,97;-46,06;2,5;10,14;9,35;31,65;0;1;
44432;-15,87;-4,45;-45,99;-110,16;3,79;15,69;9,36;38,78;0;1;
44458;-7,82;-35,86;7,33;-37,38;5,48;25,35;9,92;36,27;0;0;
44480;-27,94;-21,65;-43,8;107,06;5,98;28,84;10,87;41,88;0;0;
44510;-20,65;-44,71;-19,23;-85,06;6,71;30,97;11,31;51,7;0;0;
44528;-15,05;-17,84;-10,09;2,72;7,43;39,41;11,07;52,13;0;0;
44552;-32,47;19,27;-18,72;-41,66;9,45;49,58;10,44;46,16;0;0;
44573;-33,19;-137,51;0,52;-40,28;9,83;49,97;9,25;50,35;0;0;
44592;-5,36;17,79;-15,65;36,16;10,34;50,84;7,87;47,99;0;0;
44621;-25,36;-43,52;-16,95;16,8;11,73;65,95;5,38;38,06;0;0;
44647;-35,93;-119,64;-9,63;-22,24;14,17;66,3;4,54;32,68;0;0;
44666;-29,39;-20,92;-19,84;7,52;11,02;57,25;4,14;30,02;0;0;
44685;-5,53;34,83;-28,74;-11,45;12,51;54,15;3,79;23,54;0;0;
44704;-31,57;-31,01;-15,45;-5,51;11,83;54,19;3,77;22,37;0;0;
44722;-32,86;-44,56;-26,39;-6,73;10,06;42,9;4,13;19,23;0;0;
44747;-33,85;-49,68;-8,15;16,33;9,11;35,73;4,64;17,14;0;0;
44769;-18,12;-63,47;-24,2;-7,66;7,86;38,8;5,12;15;0;0;
44787;-8,13;-127,43;-22,82;-8,51;8,32;39,42;5,68;10,22;0;0;
44806;-22,98;-14,76;-18,65;-1,52;9,62;37,08;6,02;7,4;0;0;
44831;-2,49;-14,23;-8,19;-0,86;10,44;36,44;6,13;6,42;0;0;
44851;-22,23;-28,63;-30,48;-5,35;9,84;43,08;6,66;4,76;0;0;
44869;-22,23;-28,63;-30,48;-5,35;9,01;49,51;7,01;3,36;0;0;
44886;-44,83;-56,5;68,03;-0,78;13,25;44,61;9,95;3,5;1;0;
44908;-35,55;-56,45;-36,87;-6,34;12,59;39,43;13,48;3,41;1;0;
44935;-27,12;-16,4;-13,85;-9,49;17,39;36,48;15,7;2,99;1;0;
44953;77,31;-30,96;-16,21;-0,34;30,24;29,24;19,75;2,8;1;0;
44973;-79,83;-38,32;-29,83;-2,21;39,5;14,06;25,47;3,24;1;0;
44993;13,29;-19,28;-81,28;-6,68;44,73;11,78;23,12;2,77;1;0;
45012;-55,38;-26,73;63,47;-11,38;47,06;12,31;27,69;2,68;1;0;
45038;-102,94;-95,06;-131,45;-8,03;69,72;17,59;37,95;2,54;1;0;
45059;-40,64;86,54;-194,86;-10,23;65,02;25,49;45,09;2,17;1;0;
45084;-208,68;105,86;168,1;-9,44;89,53;38;59,03;2,55;1;0;
45104;-138,61;-249,97;-25,6;-11,04;93,37;57,21;67,69;2,82;1;0;
45127;81,81;169,92;51,51;-13,78;100,88;71,52;82,7;3,53;1;0;
45175;-70,3;-47,06;-184,36;-8,54;124,3;73,07;88,07;3,84;1;0;
45194;35,24;-163,46;24,62;-24,66;140,86;77,95;99,53;5,94;1;0;
45215;-322,19;88,02;-73,28;-10,92;151,16;81,7;88,29;6,38;0;0;
45248;131,35;-73,03;-67,35;-3,45;161,88;64,54;76,67;6,24;0;0;
45272;-39,91;-89,27;134,81;-16,53;159,64;57,15;91,99;9,96;0;0;
45293;-24,32;8,02;-79,78;-0,96;141,63;50,72;88,36;9,91;0;0;
45313;223,59;11,99;-114,1;-3,57;122,05;51,19;96,83;10,03;0;0;
45332;-44,18;-34,72;-43,62;-1,03;109,56;42,11;94,07;8,35;0;0;
45354;-130,65;-34,1;97,57;1,14;97,45;34,44;105,37;8,48;0;0;
45379;-56,8;-8,6;161,76;7,1;89,57;29,48;113,77;5,04;0;0;
45401;-254,73;-31,03;89,27;-7,63;93,6;21,64;97,67;4,04;0;0;
45423;98,32;-47,72;-0,3;-8,95;111,94;16,37;89,9;3,72;0;0;
45444;-52,31;-34,53;-65,27;-3,4;97,66;10,82;76,68;3,36;0;0;
45461;-165,02;-16,54;-17,78;-12,51;97,71;11,23;64,39;3,05;0;0;
45483;-60,37;-29,65;186,23;-24,1;88,36;10,19;60,01;4,01;0;0;
45500;-71,26;-68,03;-32,36;-37,27;100,57;10,66;46,94;6,83;0;0;
45521;-59,29;-33,98;-14,19;-11,62;85,7;10,75;39,56;8,15;0;0;
45542;-179,57;-30,29;-14,82;-20,67;89,83;10,64;32,7;10,57;0;0;
45562;-101,79;-37,46;50,63;-10,39;102,54;9,41;31,39;12,41;0;0;
45585;-88,78;-17,45;-42,9;-22,13;103,46;8,59;36,06;15,01;0;0;
45602;6,21;-44,62;1,49;40,31;116,86;9,81;29,65;15,57;0;0;
45622;-141,15;-42,25;1,6;-17,56;97,94;7,48;31,31;19,4;0;0;
45648;-72,06;-34,76;-57,78;-9,05;85,76;6,31;30,41;18,87;0;0;
