Time;EMG1;EMG2;EMG3;EMG4;EMG1_F;EMG2_F;EMG3_F;EMG4_F;Note_R;Note_V;;Level 3;Joueur;Score;Notes hit;% Reussite R;Offset EMG1;Onset EMG1;% Reussite V;Offset EMG2;Onset EMG2
27;-24,53;-39,08;-15,23;-5,72;1,65;2,53;1,71;1,96;0;0;;;1;11300;104;58,58586;-15,96763;97,08589;46,46465;-39,00174;38,86062
58;-24,15;-38,4;-12,95;-7,69;1,64;2,82;1,63;1,73;0;0;;;2;2100;21;8,080808;-24,66522;141,383;13,13131;-39,00174;52,16042
77;-26,32;-39,93;-19,56;-7,29;1,82;2,64;2,02;1,66;0;0;
101;-23,75;-36,19;-14,8;-5,35;1,9;2,67;2,09;1,58;0;0;
126;-24,22;-39,19;-15,01;-5,63;1,71;2,55;1,98;1,65;0;0;
156;-22,17;-34,02;-13,28;-5,58;1,62;2,67;1,94;1,62;0;0;
188;-23,55;-38,7;-17,67;-6,52;1,69;2,82;2,02;1,73;0;0;
209;-24,06;-40,84;-13,54;-5,95;1,61;2,86;1,97;1,8;0;0;
233;-23,76;-38,35;-13,8;-3,58;1,39;3,16;1,58;1,94;0;0;
255;-19,87;-35,48;-16,35;-5,1;1,62;3,33;1,75;1,81;0;0;
279;-24,98;-35,91;-15,77;-5,54;1,72;3,14;1,88;1,59;0;0;
311;-20,63;-36,83;-17,97;-8,76;1,66;3;1,81;1,56;0;0;
336;-25,2;-34,53;-15,65;-7,52;1,5;3,14;1,83;1,5;0;0;
357;-21,78;-37,23;-19,37;-5,21;1,61;3;1,97;1,37;0;0;
382;-24,32;-34,54;-15,59;-5,07;1,65;2,74;1,77;1,39;0;0;
406;-24,58;-37,11;-18,52;-6,25;1,37;2,72;1,59;1,51;0;0;
426;-23,88;-30,32;-16,11;-7,18;1,35;2,83;1,66;1,49;0;0;
447;-26,83;-30,99;-20,67;-5,95;1,45;3,19;1,72;1,48;0;0;
474;-21,82;-36,25;-16,1;-8,06;1,58;2,86;1,4;1,55;0;0;
496;-25,11;-37,49;-14,92;-4,72;1,5;2,81;1,5;1,64;0;0;
520;-20,91;-35,22;-17,35;-6,44;1,68;2,87;1,57;1,47;0;0;
542;-23,39;-35,96;-15,27;-4,75;1,8;2,75;1,72;1,51;0;0;
565;-24,3;-32,09;-15,3;-6,09;1,7;2,69;1,73;1,46;0;0;
587;-25,92;-39,18;-15,52;-7,43;1,72;2,55;1,68;1,57;0;0;
608;-24,95;-29,86;-15,38;-6,58;1,52;2,69;1,71;1,51;0;0;
638;-24,96;-41,79;-14,35;-7,22;1,58;2,84;1,73;1,5;0;0;
660;-21,45;-33,66;-13,38;-7,4;1,39;2,92;1,71;1,63;0;0;
680;-22,83;-35,1;-16,27;-6,35;1,45;2,93;1,55;1,56;0;0;
709;-20,29;-36,44;-20,13;-6,5;1,44;2,85;1,51;1,52;0;0;
730;-25,61;-34,07;-20,01;-11,08;1,48;3,01;1,58;1,5;0;0;
751;-24,48;-44,24;-9,99;-1,29;1,45;3;1,69;1,63;0;0;
778;-23,52;-40,75;-15,46;-4,55;1,65;3;1,87;1,61;0;0;
803;-24,85;-36,85;-15,7;-3,54;1,59;3,04;1,92;1,78;0;0;
827;-27,86;-37,94;-15,83;-9,13;1,61;2,85;2,17;1,83;0;0;
851;-23;-30,98;-15,77;-8,04;1,54;2,99;2,15;1,93;0;0;
875;-22,34;-42,16;-18,06;-7,23;1,3;2,94;2,16;1,7;0;0;
895;-21,03;-36,55;-14,41;-8,57;1,45;2,57;2,07;1,66;0;0;
919;-25,85;-41,36;-14,35;-4,6;1,45;2,62;2,08;1,66;0;0;
942;-23,34;-35,87;-13,53;-8,15;1,77;2,62;1,94;1,68;0;0;
974;-24,51;-39,47;-16,33;-7,11;1,66;2,57;1,89;1,55;0;0;
995;-22,56;-36,41;-19,33;-4,98;1,81;2,62;2,21;1,57;0;0;
1017;-21,08;-32;-14,76;-3,5;1,84;2,51;2,26;1,67;0;0;
1039;-23,27;-38,59;-18,37;-6,38;1,72;2,77;2,34;1,65;0;0;
1058;-26,58;-38,49;-13,31;-9,94;1,75;2,64;2,13;1,55;0;0;
1082;-26,35;-37,21;-18,59;-7,31;1,59;2,63;2,22;1,47;0;0;
1107;-22,28;-37,57;-17,83;-2,38;1,73;2,78;2,14;1,66;0;0;
1133;-26,84;-35,31;-16,91;-3,83;1,81;2,63;2,17;1,78;0;0;
1157;-23,78;-42,81;-16,68;-3,76;1,87;2,77;2,07;1,81;0;0;
1182;-25,86;-37,26;-18,28;-1,36;1,76;2,74;2,11;1,91;0;0;
1204;-24,97;-38,73;-14,65;-6,69;1,75;2,76;1,99;2,04;0;0;
1227;-20,17;-42,56;-17,31;-7,4;1,71;2,64;1,82;1,96;0;0;
1247;-24,51;-41,76;-14,46;-8,04;1,53;2,78;1,5;1,81;0;0;
1272;-28,04;-42,62;-15,96;-7,61;1,56;2,6;1,47;1,82;0;0;
1299;-25,18;-35,29;-19,4;-9,03;1,56;2,58;1,54;1,68;0;0;
1322;-23,72;-35,72;-15,28;-7,65;1,7;2,6;1,74;1,62;0;0;
1342;-21,9;-42,84;-13,95;-7,73;1,76;2,46;1,98;1,72;0;0;
1369;-22,17;-39,3;-14,55;-11,22;1,68;2,65;2,16;2,06;0;0;
1390;-24,31;-31,82;-19,27;-2,05;1,81;2,54;2,17;2,1;0;0;
1415;-20,31;-35,47;-15,68;-9,08;1,72;2,29;2,32;2,36;0;0;
1436;-25,38;-34,85;-14,3;-7,04;1,66;2,31;2,3;2,36;0;0;
1467;-21,5;-43,71;-17,22;-9,74;1,51;2,38;2,04;2,22;0;0;
1486;-27,97;-38,5;-19,86;-8,4;1,47;2,39;1,84;2,02;0;0;
1508;-24,25;-34,21;-14,12;-7,44;1,83;2,26;1,86;1,81;0;0;
1533;-22,14;-40,54;-15,52;-6,35;1,97;2,37;1,78;1,6;0;0;
1557;-23,16;-37,66;-14,75;-6,79;1,92;2,45;1,66;1,38;0;0;
1580;-27,19;-37,8;-18,52;-6,57;2;2,62;1,55;1,48;0;0;
1604;-27,19;-42,32;-11,85;-4,07;1,95;2,6;1,57;1,41;0;0;
1630;-21,44;-37,01;-16,58;-7,43;1,67;2,82;1,58;1,47;0;0;
1650;-25,9;-40,28;-19;-4,47;1,55;2,78;1,57;1,53;0;0;
1674;-26,33;-35,29;-19,46;-6,86;1,38;2,7;1,75;1,54;0;0;
1699;-24,36;-35,97;-16,33;-6,58;1,29;2,56;1,8;1,46;0;0;
1724;-20,82;-31,45;-15,49;-8,76;1,47;2,6;1,86;1,56;0;0;
1749;-25,23;-37,04;-17,62;-7,65;1,51;2,7;1,78;1,69;0;0;
1776;-25,23;-38,61;-18,29;-9,15;1,54;2,7;1,7;1,74;0;0;
1806;-27,33;-39,35;-13,43;-8,29;1,52;2,68;1,88;1,66;0;0;
1831;-26,84;-40,95;-16,15;-7,39;1,56;2,78;1,6;1,75;0;0;
1851;-26,86;-42,26;-18,6;-6,07;1,59;2,92;1,6;1,59;0;0;
1876;-24,37;-38,23;-13,43;-8,12;1,5;2,65;1,62;1,47;0;0;
1900;-28,18;-39,32;-16,04;-6,46;1,52;2,6;1,77;1,54;0;0;
1924;-22,1;-35,96;-17,73;-7;1,65;2,53;1,84;1,54;0;0;
1949;-26,48;-38,79;-17,66;-7,4;1,7;2,44;1,69;1,62;0;0;
1977;-29,16;-38,3;-13,34;-6,19;1,81;2,4;1,87;1,58;0;0;
2011;-22,19;-38,92;-18,34;-10,86;1,8;2,36;1,87;1,76;0;0;
2032;-23,31;-40,34;-14,64;-3,64;1,87;2,2;1,94;1,96;0;0;
2055;-25,51;-41,64;-11,73;-5,89;1,64;2,21;2,16;1,74;0;0;
2081;-24,62;-36,74;-15,9;-6,31;1,66;2,54;2,12;1,57;0;0;
2107;-21,96;-40,62;-14,29;-4,47;1,61;2,98;2,23;1,61;0;0;
2134;-27,52;-36,89;-20,32;-3,4;1,67;3,05;2,29;1,58;0;0;
2154;-23,15;-36,72;-21;-7,38;1,51;3,14;2,55;1,52;0;0;
2180;-25,84;-33,78;-17,27;-4,71;1,55;3,18;2,35;1,52;0;0;
2205;-25,19;-41,05;-19,8;-9,56;1,57;3,41;2,08;1,67;0;0;
2226;-23,15;-34,2;-14,99;-5,18;1,65;2,93;1,87;1,77;0;0;
2250;-22,86;-35,4;-15,84;-10,1;1,53;2,78;1,81;1,88;0;0;
2283;-22,31;-33,79;-17,99;-6,38;1,52;3,12;1,74;1,92;0;0;
2311;-23,53;-41,75;-13,71;-6,61;1,59;3,44;1,53;2,11;0;0;
2336;-26,45;-37,81;-14,46;-7,37;1,43;3,39;1,63;2,11;0;0;
2365;-23,36;-29,81;-15,74;-10,19;1,42;3,54;1,73;2,27;0;0;
2388;-28,18;-43,35;-17,5;-4,73;1,48;3,56;1,66;2,33;0;0;
2418;-25,13;-38,63;-16,88;-5,2;1,58;3,52;1,51;2,18;0;0;
2439;-21,57;-34,07;-14,19;-2,53;1,71;3,02;1,45;2,42;0;0;
2468;-24,7;-34,93;-16,7;-6,94;1,67;2,86;1,53;2,28;0;0;
2493;-24,09;-38,4;-17,87;-9,1;1,69;2,73;1,5;2,65;0;0;
2519;-22,42;-36,48;-14,8;-10,08;1,68;2,49;1,54;2,53;0;0;
2541;-26,53;-37,59;-16,33;-3,17;1,78;2,32;1,77;2,54;0;0;
2572;-26,2;-36,54;-14,02;-4,6;1,66;2,28;1,84;2,35;0;0;
2592;-22,16;-36,44;-16,94;-7,01;1,59;2,54;1,86;2,13;0;0;
2621;-23,74;-38,29;-11,33;-3,56;1,64;2,57;1,68;2,04;0;0;
2642;-22,3;-34,4;-17,72;-8,4;1,68;2,88;1,85;1,79;0;0;
2668;-24,28;-34,96;-16,11;-3,73;1,84;2,98;1,95;1,85;0;0;
2692;-22,72;-35,93;-19,09;-7,51;1,72;2,97;2,09;1,75;0;0;
2724;-24,29;-39,92;-15,92;-8,03;1,82;3,04;2,08;1,73;0;0;
2744;-24,96;-38,92;-17,74;-7,13;1,72;3,13;2,19;1,65;0;0;
2777;-22,39;-33,27;-19,04;-6,66;1,86;3,02;2,17;1,67;0;0;
2801;-26,22;-38,87;-14,01;-4,19;1,81;2,66;2,13;1,59;0;0;
2824;-25,14;-40,41;-16,75;-7,05;1,6;2,84;1,91;1,59;0;0;
2844;-22,31;-34,11;-15,12;-5,1;1,59;2,85;1,93;1,68;0;0;
2871;-24,96;-39,21;-16,85;-5,67;1,54;2,72;2,1;1,75;0;0;
2895;-23,54;-36,41;-16,84;-7,91;1,57;2,63;2,11;1,75;0;0;
2927;-27,18;-31,1;-19,33;-11,89;1,45;2,94;2,16;1,67;0;0;
2947;-24,09;-40,03;-15,22;-7,11;1,34;3,02;2,26;1,74;0;0;
2972;-21,59;-41,79;-14,76;-4,13;1,35;3,11;2,24;1,5;0;0;
3000;-20,83;-43,57;-20,3;-7,74;1,35;2,97;2,13;1,69;0;0;
3023;-24,77;-38,56;-18,54;-5,32;1,48;2,8;2,05;1,67;0;0;
3043;-25,85;-36,95;-17,72;-9,82;1,28;2,79;2,15;1,82;0;0;
3070;-25,72;-34,71;-17,44;-3,37;1,4;2,61;2,13;1,68;0;0;
3095;-23,51;-38,47;-14,77;-7,31;1,5;2,48;2,07;1,81;0;0;
3119;-22,69;-35,64;-19,83;-7,13;1,63;2,78;2,3;1,95;0;0;
3141;-24,68;-33,89;-13,96;-4,66;1,52;2,89;2,33;1,82;0;0;
3168;-28,36;-38,38;-20,93;-6,59;1,55;3,05;2,45;1,88;0;0;
3192;-23,16;-33,54;-15,01;-6,94;1,48;3,05;2,44;1,71;0;0;
3218;-22,99;-42,4;-15,06;-9,38;1,6;3,12;2,43;1,71;0;0;
3242;-20,71;-40,95;-13,62;-5,53;1,65;2,83;2,13;1,61;0;0;
3274;-24,76;-34,5;-20,03;-7,22;1,65;2,67;2,08;1,4;0;0;
3298;-24,86;-33,87;-15,31;-2,92;1,57;2,8;1,79;1,49;0;0;
3324;-25,85;-33,21;-18,13;-4,44;1,53;2,59;1,65;1,42;0;0;
3348;-23,29;-36,48;-18,45;-7,65;1,51;2,42;1,64;1,52;0;0;
3374;-22,03;-36,51;-14,81;-6,08;1,31;2,37;1,52;1,4;0;0;
3396;-23,18;-39,71;-20,11;-9,13;1,21;2,52;1,63;1,42;0;0;
3422;-28,86;-38,87;-17,87;-7,33;1,42;2,57;1,62;1,48;0;0;
3447;-21,02;-30,72;-15,67;-8,96;1,53;2,6;1,77;1,45;0;0;
3475;-23,16;-39,95;-17,49;-4,46;1,47;2,67;1,74;1,42;0;0;
3496;-26,09;-38,51;-15,84;-5,41;1,38;2,54;2,07;1,53;0;0;
3519;-21,2;-39,75;-16,73;-7,41;1,57;2,54;2,12;1,53;0;0;
3543;-26,87;-35,28;-15,17;-5,71;1,6;2,48;2,2;1,45;0;0;
3572;-27,57;-40,11;-17,4;-10,36;1,44;2,43;2,21;1,66;0;0;
3596;-23,51;-38,85;-13,91;-5,69;1,41;2,44;2,15;1,62;0;0;
3620;-26,15;-40,64;-15,67;-5,73;1,58;2,36;1,96;1,46;0;0;
3642;-21,84;-36,95;-15,42;-9,8;1,65;2,73;1,74;1,49;0;0;
3663;-24,5;-37,94;-20,27;-6,18;1,53;2,73;1,92;1,53;0;0;
3683;-22,04;-36,71;-14,89;-6,89;1,63;2,43;1,89;1,45;0;0;
3705;-23,54;-36,7;-16,39;-7,06;1,58;2,54;1,85;1,38;0;0;
3727;-25,07;-34,92;-20,53;-9,28;1,42;2,63;2,27;1,36;0;0;
3749;-25,93;-40,19;-13,89;-11,58;1,29;2,68;2,12;1,46;0;0;
3773;-20,34;-33,99;-19,94;-6,13;1,42;2,88;2,06;1,54;0;0;
3796;-24,33;-33,64;-16,77;-6,74;1,62;2,83;2,05;1,51;0;0;
3822;-26,04;-38,44;-18,45;-7,64;1,51;2,79;2,02;1,62;0;0;
3842;-20,83;-38,2;-14,99;-7,64;1,7;2,77;1,93;1,76;0;0;
3867;-24,51;-36,2;-20,43;-7,78;2;2,87;1,58;1,77;0;0;
3891;-25,39;-33,06;-12,42;-8,38;1,84;2,7;1,67;1,52;0;0;
3919;-20,66;-34,06;-14,47;-8,39;1,63;2,63;1,64;1,68;0;0;
3940;-24,88;-43,73;-14,85;-11,08;1,53;2,81;1,75;1,78;0;0;
3968;-25,49;-37,77;-18,11;-5,72;1,44;2,76;1,76;1,86;0;0;
3988;-26,83;-35,25;-14,92;-5,94;1,33;2,57;1,83;1,83;0;0;
4015;-25,01;-37,22;-12,6;-5,79;1,37;2,48;1,77;1,84;0;0;
4037;-21,97;-35,18;-18,78;-5,81;1,45;2,59;1,7;1,69;0;0;
4065;-23,18;-34,85;-15,53;-11,59;1,43;2,38;1,74;1,84;0;0;
4089;-23,87;-37,57;-15,6;-10,01;1,58;2,44;1,71;1,8;0;0;
4116;-26,93;-39,01;-14,23;-6,87;1,57;2,6;1,9;1,7;0;0;
4134;-25,27;-40,06;-17,18;-7,08;1,51;2,7;1,93;1,71;0;0;
4160;-25,6;-39,68;-15,71;-5,64;1,71;2,51;2,19;1,79;0;0;
4185;-21,81;-34,92;-14,51;-9,37;1,68;2,56;2,08;1,94;0;0;
4207;-24,33;-42,47;-16,95;-4,42;1,68;2,54;2,15;1,79;0;0;
4236;-21,68;-39;-19,22;-9,02;1,7;2,39;2,1;1,83;0;0;
4259;-27,46;-41,37;-14,53;-2,73;1,84;2,44;2,02;2,12;0;0;
4283;-21,57;-42,97;-18,25;-7,43;1,95;2,43;2;2,02;0;0;
4303;-25,1;-42,21;-16,87;-4,9;2;2,62;1,66;1,89;0;0;
4326;-22,36;-33,64;-17,49;-5,08;1,89;2,65;1,71;1,86;0;0;
4346;-24,57;-34,54;-16,93;-5,45;1,8;2,68;1,67;1,74;0;0;
4369;-25,48;-33,27;-15,48;-10,37;1,67;2,85;1,79;1,56;0;0;
4392;-24,5;-41,61;-18,79;-9,07;1,66;2,91;1,82;1,49;0;0;
4421;-21,47;-40,93;-13,96;-8,41;1,42;2,88;1,78;1,5;0;0;
4440;-23,51;-39,15;-15,02;-6,93;1,5;2,94;1,84;1,55;0;0;
4464;-24,48;-43,34;-16,51;-5,44;1,43;2,7;2,07;1,48;0;0;
4486;-25,49;-36,98;-18,1;-10,41;1,47;2,62;1,99;1,62;0;0;
4511;-24,24;-32,9;-15,61;-7,65;1,43;2,59;1,82;1,81;0;0;
4534;-24,19;-39,92;-19,95;-4,34;1,26;2,67;1,99;1,88;0;0;
4558;-19,1;-38,4;-16,46;-5,3;1,23;2,4;1,9;1,83;0;0;
4581;-22,78;-36,27;-15,97;-10,45;1,36;2,51;1,72;1,93;0;0;
4603;-20,83;-31,36;-16,87;-5,17;1,4;2,52;1,64;1,91;0;0;
4629;-26,82;-39,18;-11,2;-10,28;1,41;2,68;1,55;1,75;0;0;
4650;-25,5;-38,17;-20,74;-3,35;1,6;2,75;2,06;1,65;0;0;
4673;-23,22;-37,93;-17,2;-3,37;1,72;2,6;1,9;1,7;0;0;
4695;-24,52;-37,27;-13,54;-6,26;1,51;2,75;1,97;1,61;0;0;
4721;-23,85;-31,69;-20,33;-7,78;1,64;2,89;2,14;1,58;0;0;
4741;-22,8;-38,92;-13,74;-8,4;1,65;2,91;2,39;1,83;0;0;
4766;-23,96;-37,61;-19,33;-9,23;1,51;2,87;2,27;1,84;0;0;
4787;-22,42;-34,92;-11,66;-6,89;1,43;2,86;2,34;1,83;0;0;
4810;-27,01;-41,13;-13,46;-4,19;1,5;2,82;2,37;1,93;0;0;
4833;-25,13;-39,29;-18,93;-9,37;1,56;2,72;2,53;2,05;0;0;
4856;-25,91;-33,72;-11,25;-8,04;1,47;2,68;2,39;2,24;0;0;
4880;-24,88;-39,42;-15,7;-9,37;1,41;2,5;2,22;2,12;0;0;
4901;-25,85;-40,28;-15,4;-7,42;1,62;2,33;2,17;2,16;0;0;
4927;-23,33;-36,88;-15,7;-6,44;1,48;2,29;2,1;2,18;0;0;
4947;-25,48;-34,66;-17,78;-8,39;1,39;2,21;1,83;2,27;0;0;
4972;-20,86;-30,43;-18,31;-2,77;1,52;2,55;1,68;2,21;0;0;
4991;-25,68;-35,79;-17,15;-7,59;1,61;2,6;1,58;1,98;0;0;
5020;-22,55;-36,23;-16,4;-4,75;1,75;2,72;1,49;1,95;0;0;
5041;-22,62;-35,63;-17,09;-3,85;1,56;2,95;1,62;1,88;0;0;
5072;-26,15;-33,31;-18,21;-12,05;2,87;2,87;1,83;2,22;0;0;
5096;-39,54;-33,79;-17,96;-7,65;8,73;3,1;1,88;2,07;0;0;
5121;-19,77;-43,7;-18,37;-5,46;12,91;2,83;2,04;2,08;0;0;
5143;54,32;-39,16;-20,22;-6,44;24,63;3,12;1,98;2,1;0;0;
5169;-68,28;-37,38;-13,42;-7,29;29,94;3,34;1,98;2,12;0;0;
5192;-82,26;-25,78;-15,47;-4,54;39,9;4,05;1,61;2,04;0;0;
5221;42,85;-49,47;-17,35;-1,68;67,51;5,03;1,66;1,85;0;0;
5240;5,04;-31,46;-18,66;-8,9;78,13;5,97;1,73;1,93;0;0;
5264;4,8;-29,08;-20,42;-5,74;99,47;7,32;1,94;2,1;0;0;
5288;-80,82;-52,63;-16,98;-5,44;104,04;7,85;1,94;1,88;0;0;
5317;19,93;-37,87;-20,05;-5,9;111,47;8,27;1,98;2,14;0;0;
5339;-53,81;-53,06;-15,71;-9,32;103,17;8,46;1,94;2,2;0;0;
5365;-21,45;-46,93;-14,53;-7,15;95,45;7,8;1,73;1,99;0;0;
5391;-60,63;-43,43;-15,3;-4,86;84,38;7,01;1,75;1,71;0;1;
5417;-97,84;-44,73;-15,52;-4,55;89,87;6,58;1,57;1,81;0;1;
5437;22,2;-37,14;-19,16;-4,97;85,32;6,25;1,67;1,76;0;1;
5457;-25,62;-46,96;-22,07;-6,49;104,92;6,02;1,65;1,61;0;1;
5478;81,7;-13,33;-14,54;-7,41;110,24;5,17;1,85;1,7;0;1;
5498;88,87;-33,56;-19,62;-5,84;123,99;6,4;1,98;1,7;0;1;
5523;106,21;-39,42;-14,8;-4,86;144,5;6,92;1,96;1,71;0;1;
5553;-211,65;-26,48;-15,67;-6,91;141,05;8,03;1,86;1,68;0;1;
5582;-364,94;-45,11;-17,72;-10,35;165,6;8,84;1,8;1,72;0;1;
5606;-51,15;-9,34;-16,72;-3,7;151,37;11,4;1,68;1,84;0;1;
5630;-36,39;-49,42;-18,66;-5,59;137,57;11,68;1,74;2,04;0;1;
5654;-337,04;-32,77;-14,22;45,84;141,97;11,48;1,65;5,03;0;1;
5680;-314,76;-64,46;-39,31;-0,73;139,5;11,36;2,77;12,75;0;1;
5708;-223,33;-51,77;-0,45;38,17;132,9;12,07;5,3;18,76;0;1;
5730;138,51;-30,27;-28,72;-11,06;138,22;12,1;7,32;21,78;0;0;
5752;276,12;-21,13;-21,48;-57,92;154,93;11,05;7,63;25,02;0;0;
5777;593,42;4,99;0,51;-136,51;166,21;11,04;10,36;36,98;0;0;
5803;-201,16;-55,74;-0,77;12,43;171,79;14,5;11,43;42,82;0;0;
5826;-170,23;-23,18;-23,2;-82,73;166,72;13,74;10,97;45,65;0;0;
5854;-35,09;-21,53;-20,98;54,24;160,93;11,87;10,41;50,39;0;0;
5886;-203,35;-31,79;-32,81;-50,62;157,79;11,35;10,88;58,25;0;0;
5912;-6,87;-49,34;-53,88;31,2;136,48;12,11;11,15;65,69;0;0;
5935;-18,98;-43,07;7,85;34,15;120,83;11,32;11,22;63,21;0;0;
5960;-50,8;-36,86;-15,79;2,95;114,24;9,73;11,61;60,17;0;0;
5981;-174,15;-39,98;-29,58;-4,61;101,33;10,69;12,6;55,05;0;0;
6006;-216,46;-45,12;-18,91;17,36;104,37;10,56;13,24;56,28;0;0;
6039;39,39;-43,45;-15,95;-21,48;116,48;10,1;12,86;52,04;0;0;
6064;2,95;-43,01;-25,09;3,87;132,38;10,22;13,54;48,19;0;0;
6082;-154,63;-48,4;-4,04;-15,99;134,04;10,38;12,08;41,42;0;0;
6104;-26,81;-44,2;-14,93;-83,48;148,91;9,72;10,28;41,53;0;0;
6128;-160,17;-36,46;-24,31;-5,02;141,97;10,22;9,59;34,17;0;0;
6146;256,02;-42,24;-11,51;49,67;133,39;9,68;8,26;27,34;0;0;
6175;-41,32;-37,34;-22,82;-17,02;105,14;8,18;6,91;20,25;0;0;
6202;-183,27;-41,9;-13,17;2,15;106,54;7,98;5,3;21,95;0;0;
6228;-16,29;-36,19;-13,32;-23,54;105,81;8,69;3,92;20,62;0;0;
6247;-3,95;-24,43;-18,41;-16,73;77,97;7,16;3,27;15,94;0;0;
6270;-16,3;-40,04;-12,28;12,21;83,55;7,21;2,62;16,95;0;0;
6295;-93,16;-39,27;-15,67;-14,27;74,26;6,89;2,27;14,59;0;0;
6319;-37,03;-37,76;-19,42;-3,63;67,67;6,1;2,04;12,4;0;0;
6339;-46,56;-40,66;-18,8;-6,15;46,36;4,03;2,44;6,13;0;0;
6367;26,12;-37,13;-12,67;-6,71;46,36;4,47;2,52;4,81;0;0;
6390;-23,5;-30,69;-18,01;-6,95;37,09;4,76;2,37;2,88;0;0;
6416;-25,22;-17,68;-13,53;-1,05;35,91;5,57;2,41;2,65;0;0;
6442;-21,03;-41,8;-18,94;-13,41;24,64;8,88;2,31;3,52;0;0;
6464;-24,99;-51,63;-18,5;-8,4;27,85;10,08;2,3;3,65;0;0;
6487;-21,02;-41,61;-14,39;-12,99;26,85;12,86;2,15;3,83;0;0;
6508;50,47;-37,76;-17,4;-4,63;32,04;12,37;1,98;3,85;0;0;
6533;-19,59;-31,39;-10,79;-5,43;32,4;12,57;2,03;4,21;0;0;
6558;32,89;-96,44;-11,88;-7,87;31,56;13,83;1,99;3,71;0;0;
6583;-26,73;27,82;-15,54;8,12;28,96;17,24;1,96;4,25;0;0;
6609;-26,73;27,82;-15,54;8,12;28,11;20,76;1,86;5,27;0;0;
6636;-25,52;-97,66;-15,63;-5,58;4,32;45,47;1,73;4,99;0;0;
6663;-20,73;5,33;-15,54;-6,7;4,33;53,3;1,81;3,85;0;0;
6694;-57,65;-87,38;-19,23;-6,42;18,28;52,44;1,9;2,36;0;0;
6720;-26,35;-15,4;-14,44;-6,8;18,94;35,96;1,75;1,31;0;0;
6742;-122,66;-28,4;-12,19;-3,63;26,38;23,95;1,99;1,25;0;0;
6770;-28,02;-25,78;-17,69;-5,94;31,71;16,81;1,75;1,29;0;0;
6789;-20,48;-51,83;-17,33;-1,62;20,1;15,95;1,66;1,27;0;0;
6820;27,58;-68,78;-20,82;-8,14;23,9;11,97;1,84;1,46;0;0;
6848;-22,18;-22,18;-16,62;-4,45;23,71;13,27;1,95;1,34;0;0;
6875;-24,49;-40,25;-17,57;-5,83;23,59;11,5;1,78;1,37;0;0;
6897;-39,44;-39,15;-19,92;-6,62;16,69;11,95;1,96;1,42;0;0;
6925;-32,63;-38,94;-21,21;-4,81;13,4;7,34;1,98;1,5;0;0;
6944;-21,03;-35,03;-17,65;-5,18;13,43;5;2,1;1,6;0;0;
6997;-21,47;-33,9;-15,01;-6,06;13,39;3,75;2,17;1,52;0;0;
7029;-20,1;-36,26;-15,94;-10,1;10,33;3,17;1,94;1,49;0;0;
7052;-23,03;-34,79;-13,89;-3,84;6,72;2,62;1,98;1,72;0;0;
7078;-20,33;-36,58;-14,09;-5,35;2,92;2,43;1,84;1,69;0;0;
7105;-27,79;-38;-18,9;-4,14;2,05;2,52;1,62;2,08;0;0;
7131;-20,48;-34,65;-15;-3,86;2,25;2,28;1,95;2,35;0;0;
7155;-23,53;-40,18;-13,75;-7,31;2,02;2,53;1,89;2,46;0;0;
7181;-23,96;-36,86;-17,1;-9,76;1,9;2,63;1,92;2,61;0;0;
7204;-23,24;-42,36;-12,3;-6,84;2,2;2,72;2,11;2,47;0;0;
7226;-22,11;-44,54;-16,77;-12,14;2,08;4,05;1,99;2,44;0;0;
7247;-24,5;-36,15;-13,27;-9;2;4,05;1,88;2,39;0;0;
7272;-22,99;-38,84;-18,31;-4,14;1,87;4,05;1,99;2,36;0;0;
7291;-22,84;-40,69;-17,22;-7,69;1,97;3,98;2,11;2,51;0;0;
7317;-22,67;-36,28;-14,2;-11,04;2,16;4,08;2,36;2,54;0;0;
7340;-19,47;-39,85;-15,7;-5,44;2,09;3,76;2,33;2,43;0;0;
7367;-26,1;-39,42;-10,3;-9,55;2,01;3,2;2,27;2,38;0;0;
7387;-20,3;-33,4;-16,09;-7,57;2,23;3,1;2,4;2,01;0;0;
7407;-27,28;-40,81;-17,78;-5,67;2,25;2,98;2,22;1,85;0;0;
7432;-26,93;-38,34;-14,03;-7,42;3,4;2,82;2,03;1,92;0;0;
7455;-20,3;-38,99;-17,93;-4,92;3,44;2,77;1,76;1,48;0;0;
7477;-26,28;-38,83;-15,4;-8,03;3,68;2,64;1,62;1,75;0;0;
7505;-25,38;-33,29;-16,27;-6,31;3,45;2,5;1,44;1,86;0;0;
7529;-23,95;-36;-19,33;-8,14;3,21;2,66;1,39;1,76;0;0;
7550;-24,34;-35,27;-15,28;-14,04;2,1;2,68;1,3;1,95;0;0;
7574;-21,61;-37,41;-16,47;-3,01;2,04;2,98;1,41;2,19;0;0;
7601;-23,67;-43,01;-15,47;-5,54;1,7;3,05;1,48;1,93;0;0;
7631;-23,76;-39,63;-15,01;-6,72;1,52;3,18;1,65;1,88;0;0;
7655;-24,44;-40,34;-15,71;-5,08;1,51;3,4;1,85;1,88;0;0;
7679;-25,23;-38;-19,42;-8,82;1,47;3,24;2,03;2,55;0;0;
7702;-23,39;-38,64;-14,9;-9,29;1,5;3,06;2,02;2,94;0;0;
7723;-20,79;-34,09;-21,5;-4,95;1,62;3,32;2,18;2,92;0;0;
7745;-27,52;-32,13;-14,59;-1,05;1,86;3,11;2,42;3,19;0;0;
7770;-23,26;-39,3;-19,22;-8,14;1,82;2,98;2,32;3,32;0;0;
7789;-24,18;-32,95;-14,45;-3,57;1,83;2,86;2,35;3,4;0;0;
7820;-45,25;-32,96;-13,66;-7,88;12,48;3,23;2,47;2,97;0;1;
7846;81,16;-35,73;-12,87;-3,76;28,48;3,91;2,53;2,51;0;1;
7872;-213,92;-31,33;-15,19;-5,27;39,34;4,16;2,21;2,64;0;1;
7893;-58,15;-30,26;-13,03;-9,17;55,27;4,5;2,14;2,92;0;1;
7918;60,51;-43,63;-18,7;-3,21;72,07;6,11;1,96;3,09;0;1;
7940;-214,19;-60,57;-16,25;-8,26;82,52;8,96;2,08;3,34;0;1;
7973;-89,49;-19,1;-17,3;-11,09;75,2;10,48;2,2;3,33;0;1;
7993;-11,05;-40,12;-17,49;-19,17;90,8;12,15;2,25;4,36;0;1;
8018;-94,67;-56,7;-9,66;1,85;101,73;13,9;3,22;6,29;0;1;
8040;-441,07;-46,31;-16,54;-21,74;108,82;14;3,62;9,18;0;1;
8062;-315,89;-45,81;-17,05;-44,89;123,77;13,35;4,06;12,63;0;1;
8090;-51,44;-34,07;-17,99;28,09;134,55;11,46;4,23;18,21;0;1;
8116;-27,07;-31,22;24,86;28,86;140,37;10,1;6,94;20,4;0;1;
8144;64,53;-50,88;-5,57;-92,71;137,67;10,07;10,61;35,52;0;1;
8169;-55,39;-41,88;-6,6;-105,8;154,94;10,42;11,02;38,81;0;0;
8192;-145,04;-5,86;-12,99;-108,84;131,94;11,1;11,88;47,64;0;0;
8220;-36,7;-29,97;-6,76;5,42;125,06;11,14;12,92;54,77;0;0;
8250;34,97;-37,21;19,84;-55,47;120,78;12,26;15,55;62,9;0;0;
8275;-31,85;-44,62;-17,94;79,04;135,78;11,91;14,7;59,15;0;0;
8302;-73,25;-36,46;-15,1;-44,88;118,39;10,09;13,93;67,82;0;0;
8326;126,83;-35,21;-16,18;14,3;113,37;8,37;12,38;69,94;0;0;
8347;143,43;-41,9;-12,31;-8,75;128,6;8,94;11,37;54,04;0;0;
8369;89,32;-32,52;-23,9;-0,09;114,09;8,05;8,94;42,87;0;0;
8391;187,16;-63,76;-21,32;-36,74;102,96;9,19;6,86;37,1;0;0;
8415;-267,02;-37,44;-9,61;10,94;89,84;9,37;4,9;22,3;0;0;
8434;-19,18;-40,36;-38,77;-1,99;96,72;10,8;6,86;15,67;0;0;
8461;339,99;-28,39;-16,13;10,33;99,9;11,02;7,55;10,2;0;0;
8483;198,45;-43,36;-11,06;-4,84;99,98;10,65;8,1;10,19;0;0;
8503;-63,67;-40,27;-10,18;-7,53;117,35;14,05;9,1;9,45;0;0;
8526;30,69;-40,07;-4,54;-6,19;124,36;11,78;9,36;6,89;0;0;
8546;28,26;-50,16;-28,13;-10,46;123;13,18;10,21;5,9;1;0;
8572;4,29;-39;26,79;-5,5;132,76;12,41;13,15;5,03;1;0;
8592;-129,11;-35,1;-126,47;-14,23;137,97;12,54;19,91;4,01;1;0;
8620;-137,09;-40,32;-73,43;-6,69;127,27;11,84;26,43;4,07;1;0;
8644;28,47;-41,81;57,04;1,8;118,9;9,93;35,56;2,58;1;0;
8665;-44,79;-37,97;-86,65;-7,51;100,63;9;51,16;2,9;1;0;
8689;-19,37;-39,23;122,54;2,5;81,29;6,69;73,41;4,1;1;0;
8713;-25,29;-31,52;-113,58;-4,61;63,04;6,22;79,13;4,72;1;0;
8735;-23,79;-37,56;-29,11;-18,8;35,73;4,11;91,02;5,2;1;0;
8762;-27,6;-41,43;-277,77;-0,91;24,64;4,59;123,15;5,41;1;0;
8790;-42,02;-64,97;-199,68;-1,51;15,59;6,83;130,98;6,2;0;0;
8829;-27,33;39,77;154,53;6,6;14,2;10,79;134,58;6,3;0;0;
8883;-167,15;-81,86;-3,27;-20,29;25,49;17,46;147,16;6,39;0;0;
8938;-16,09;-13,72;25;-24,95;25,9;21,1;154,29;6,62;0;0;
8999;-24,08;-23,67;-22,85;-7,97;25,98;26,45;139,52;6,35;0;0;
9049;-23,48;34,9;74,81;-8,61;22,16;40,24;113,98;5,9;0;0;
9088;-35,41;34,33;-8,61;-5,68;18,11;45,55;103,94;5,22;0;0;
9147;-26,94;-15,91;18,03;1,44;15,37;49,32;94,84;5,2;0;0;
9203;-18,69;-180,79;-58,69;-2,04;5,73;52,72;75,16;4,27;0;0;
9238;-27,23;-2,54;48,29;-13,13;5,82;58,94;71,33;4,2;0;0;
9279;-24,29;-9,17;-33,66;-19,09;6,28;52,56;67,14;4,11;0;0;
9319;-30,14;-39,24;-296,48;-6,15;5,68;49,94;59,42;6,23;0;0;
9360;-24,73;-103,01;-49,16;-0,49;5,37;46,93;46,5;8,7;0;0;
9396;-27,81;69,4;-30,44;-7,3;5,15;46,91;37,93;9,26;0;0;
9441;-25,54;-7,82;-26,59;-4,85;4,91;40,61;27,31;13,5;0;0;
9487;-44,73;-183,91;44,4;-1,25;4,67;42,12;23,29;13,77;0;0;
9520;-26,04;-19,96;7,34;-4,21;5,14;40,64;22,12;12,41;0;0;
9553;-22,06;-28,97;-28,95;-11,57;4,88;36,7;18,8;11,23;0;0;
9591;-30,59;-53,21;-18,88;-8,92;4,98;34,01;15,38;11,82;0;0;
9641;-26,8;-23,84;-5,11;-8,87;4,77;25,91;13,49;8,14;0;0;
9671;-26,16;-29,68;-25,03;-8,16;4,21;20,04;9,6;7,3;0;0;
9723;-22,91;-30,67;-17,5;-6,39;4,35;24,24;6,32;6,53;0;0;
9763;-24,92;-32,5;-14,26;-8,6;3,81;21,22;4,26;5,03;1;0;
9783;-19,34;-30,21;-22,74;-8,74;4,77;22,45;4,34;2,69;1;0;
9819;-26,91;7,75;-11,67;-6,46;4,6;29,23;5,83;2,41;1;0;
9880;-25,43;-19,73;-24,03;-10,1;4,14;28,93;5,04;2,01;1;0;
9916;-34,57;30,18;-3,92;-6,57;4,73;32,39;6,63;1,78;1;0;
9939;-23,64;-10,15;-59,13;-7,17;5,44;34,66;14,47;1,87;1;0;
9980;-20,01;-37,3;-39,4;-11,99;6;49,73;34,09;2,42;1;0;
10027;-29,57;-113,8;56,56;-10,08;5,38;44,96;46,91;2,49;1;0;
10048;-24,53;-32,68;71,33;-1,23;5,72;48,57;64,27;2,94;1;0;
10085;-22,03;7,73;195,77;-3,18;5,53;48,24;83,5;3,45;0;0;
10128;-22,9;-24,74;135,16;8,88;4,61;43,79;102,19;3,79;0;0;
10179;-18,68;-113,2;-77,25;-6,66;4,43;42,18;110,72;4,1;0;0;
10213;-21,7;-41,54;211,09;1,26;4,15;26,63;144;4,99;0;0;
10242;-29,12;-38,12;-88,82;-3,88;4,86;21,99;168,97;5,1;0;0;
10291;-8,83;-19,27;272,8;10,21;6,2;31,54;171,03;5,72;0;0;
10311;-24,14;-14,92;-20,94;0,41;6,39;32,65;170,43;5,28;0;0;
10333;-42,87;-53,17;268,13;-4,45;6,91;39,98;155,99;5,4;0;0;
10364;-36,95;-19,03;-143,4;-8,46;7,78;46,24;151,61;5,44;0;0;
10388;-24,71;-4,67;-70,48;-4,02;6,94;46,66;128,32;4,73;0;0;
10412;-24,68;-36,81;107,08;2,69;6,2;43,92;119,58;4,65;0;0;
10437;-24,31;-41,52;19,49;-6,14;4,67;28,12;99,78;4,15;0;0;
10460;-24,25;-31,28;15,4;-6,34;5,89;27,47;90,94;4,07;0;0;
10482;-28,4;-61,65;-95,18;-6,18;6,35;23,16;62,71;3,85;0;0;
10510;-22,27;-43,46;12,22;35,57;6,69;24,96;53,06;6,47;0;0;
10538;-22,81;-27,25;-12,95;1,27;7,4;26,61;43,46;7,36;0;0;
10563;-34,97;-68,97;-27,75;-7,33;8,28;32,94;37,74;7,77;0;0;
10584;-11,54;-101,41;-33,72;3,25;8,13;35,98;26,54;11,05;0;0;
10612;-33,63;-27,93;-11,08;23,14;7,46;31,94;22,78;13,58;0;0;
10638;-34,87;-28,74;-17,15;-13,2;6,85;28,15;19,9;14,83;0;0;
10663;-30,8;-85,29;-39,26;-9,03;6,62;31,98;20,25;13,16;0;0;
10691;-26,39;-23,68;-19,14;-13,13;6,22;28,9;19,41;13,85;0;0;
10715;-21,11;-56,53;-53,17;-14,45;7,81;28,79;16,46;14,41;0;0;
10739;-17,01;14,9;-56,6;-12,08;8,41;36,45;24,6;13,7;0;0;
10768;-22,83;-138,78;-12,44;-13,55;8,14;35,23;20,9;14,03;0;0;
10790;-29,24;-53,21;0,19;-21,16;8,86;34,78;17,36;14,86;0;0;
10812;-24,68;-47,52;-17,57;-3,71;6,94;32,87;17,26;11,82;0;0;
10837;-23,62;-13,62;30,31;-5,71;5,76;31,4;25,23;10,93;0;0;
10858;-12,5;-32,56;-29,61;-8,58;5,61;25,13;23,24;7,64;0;0;
10881;-31,6;-48,87;-10,54;2,14;8,06;20,41;20,89;9,32;0;0;
10902;-25,23;-52,28;-2,93;-11;6,72;19,02;21,69;8,06;0;0;
10926;-27,8;-25,17;-14,76;-10,38;6,38;17,89;24,16;6,56;0;0;
10949;-36,75;-39,66;-21,21;-17,89;6,92;15,09;27,54;6,22;0;0;
10972;-24,88;-55,05;-12,38;-9,61;6,87;13,91;14,91;6,2;0;0;
10995;-23,04;-37,3;-30,83;-9,39;4,68;15,91;14,61;5,35;0;0;
11020;-24,88;-41,45;-12,72;-4,11;3,4;13,95;15,57;4,82;0;0;
11043;-29,83;-39,46;-21,78;-7,18;3,12;10,26;17,24;4,63;0;0;
11068;-39,45;-59,87;-20,46;-6,42;3,29;9,58;11,98;4,87;0;0;
11090;-21,31;-27,83;-13,26;-7,75;2,72;10,36;11,2;6,15;0;0;
11112;-25,85;-67,92;-18,33;-7,4;2,7;11,41;10,52;5,62;0;0;
11132;-23,27;-26,84;-22,15;-2,89;2,59;11,92;8,87;5,11;0;0;
11159;-23,15;-31,11;-12,19;-9,63;2,55;12,31;6,99;3,99;0;0;
11182;-25,49;-70,48;-19,4;-3,16;2,56;13,67;4,54;3,76;0;0;
11210;-31,31;-24,08;-13,72;-9,74;2,23;13,1;4,32;2,76;0;0;
11237;-20,9;-39,59;-14,7;-5,26;3,78;9,97;3,9;1,92;0;0;
11267;21,06;-40,18;-14,27;-8,1;15,74;6,59;3,08;1,67;0;0;
11288;-58,96;-50,37;-13,1;-8,86;19,21;7,15;1,97;1,59;0;0;
11314;-24,03;-34,17;-14,09;-7,28;25,48;6,85;2,06;1,64;0;0;
11338;-56,62;-32,78;-9,02;-3,79;29,53;5,65;2,61;1,84;0;0;
11361;-55,5;-46,12;-29,94;-11,09;38,16;6,81;3,4;2,12;0;0;
11384;-25,48;-35,62;-26,81;-4,19;30,7;6,83;4,58;2,38;0;0;
11408;-25,47;-34,3;-13,71;-5,79;25,14;6,5;10,35;2,35;0;0;
11431;-24,96;-24,65;-8,37;-9,32;17,5;6,13;12,37;2,33;0;0;
11456;-22,3;-61,85;21,05;-5,38;16,64;6,95;16,26;2,35;0;0;
11486;-9,7;-11,05;-13,27;-8,47;8,99;8,74;16,64;2,24;0;0;
11504;-9,7;-11,05;-13,27;-8,47;7,58;10,01;16,46;2,09;0;0;
11530;-2,76;-43,44;-23,61;-3,39;12,82;9,55;13,12;1,79;0;0;
11551;-25,89;-46,78;-20,66;-8,24;12,8;10,53;8,96;1,81;0;0;
11576;-21,63;-35,64;-16,36;-7,6;12,56;10,78;7,81;1,72;0;0;
11595;-25,6;-43,58;-16,7;-10,77;12,16;9,74;4,82;1,96;1;0;
11621;-18,28;-27,47;-12,15;-9,55;9,66;8,47;4,33;1,9;1;0;
11648;-28,19;-38,6;-17,94;-4,06;5,17;8;4,3;1,9;1;0;
11672;-21,38;-43,61;-16,63;-7,8;2,11;8,21;4,7;1,96;1;0;
11694;-26,5;-31,54;-29,93;-6,68;2,24;6,49;4,83;2,01;1;0;
11722;-25,41;-40,02;-24,94;-8,26;2,17;5,86;7,46;2,09;1;0;
11740;-28,04;-46,52;19,31;-6,8;2,54;5,62;14,1;2,07;1;0;
11762;-21,88;-24,62;-87,55;-4,29;2,34;6,19;19,39;2,1;1;0;
11785;-23,48;-23,43;63,81;-10,1;2,33;7,28;34,19;2,07;1;0;
11814;-25,09;-27,71;-16,64;-5,94;2,19;7,56;43,52;2,27;1;0;
11840;-22;-38,23;37,82;-5,7;2,01;10,43;58,09;2,44;1;0;
11859;-23,66;-30,62;22,98;-4,49;2,13;9,69;59,91;2,76;1;0;
11882;-22,69;-37,39;-74,78;-8,44;1,99;8,22;59,42;2,86;1;0;
11908;-26,87;-20,24;-437,87;-1,54;2,04;8,76;72,06;3,32;1;0;
11933;-23,31;-38,21;-137,7;-7,39;2,5;8,38;92,12;3,22;1;0;
11958;-28,14;-81,39;143,55;-6,72;2,73;10,13;97,54;4,13;0;0;
11984;-15,59;-29,93;94,18;0,94;3,34;16,5;103,62;4,25;0;0;
12009;-29,71;-60,15;39,57;-14,15;3,6;22,14;120,68;4,74;0;0;
12030;-8,35;-150,67;-35,44;-9,09;4,45;36,8;119,43;5,03;0;0;
12054;-17,51;-86,49;-192,06;0,58;5,44;39,59;106,96;5,14;0;0;
12079;-14,14;6,03;-151,09;-12,12;6,58;47,42;106,94;5,05;0;0;
12102;-33,11;-137,88;-95,63;-2,13;6,97;50,65;118,4;5,07;0;0;
12127;-3,72;-48,06;-17,72;-11,73;7,96;49,07;104,56;4,89;0;0;
12149;-32,26;48,33;-38,31;-14,25;8,38;55,18;95,1;4,68;0;0;
12177;-39,24;25,56;-67,27;-6,92;8,24;50,02;94,21;4,8;0;0;
12201;-36,35;-198,05;-91,09;-7,24;8,13;57,71;67,24;4,39;0;0;
12229;-18,41;-48,13;-40,44;-15,5;7,11;66,02;50,36;4,48;0;0;
12249;-26,57;-119,21;-17,7;0,17;6,49;63,3;55,13;4,19;0;0;
12274;-24,84;0,58;-249,42;-10,41;6,61;58,31;51,81;4,58;0;0;
12294;-21,81;-36,82;-168,14;-12,42;6,1;51,3;48,14;3,94;0;0;
12324;-24,5;25,15;-20,77;-12,32;6,62;51,56;45,31;4,01;0;0;
12348;-28,84;38,74;-14,82;-0,44;6,1;35,3;42,62;4,18;0;0;
12370;-51,11;-104,18;-18,16;-11,01;6,73;36,17;36,26;5,05;0;0;
12392;-20,9;-26,66;268,89;-7,96;5,43;30,88;39,72;5;0;0;
12418;-42,91;-196,17;-18,64;-6,14;5,28;34,15;35,13;7,22;0;0;
12439;-27,38;-5,62;-10,24;70,7;5,16;39,06;31,37;11,69;0;0;
12462;-26,2;-45,58;-0,1;-7,77;5,05;36,94;30,73;14,14;0;0;
12491;-28,08;5,72;-48,97;-9;5,75;36,15;42,33;13,42;0;0;
12517;-23,48;-7,84;-21,4;-10,92;5,47;32,96;39,79;15,72;0;0;
12541;-23,93;-34,82;-14,76;29,63;5,74;32,49;22,52;17,35;0;0;
12565;-27,48;-56,37;-12,53;-20,19;5,13;28,16;21,33;17,75;0;0;
12589;-33,13;-61,49;20,52;-11,14;5,19;28,85;27,93;13,26;0;0;
12622;-19,77;-41,59;-30,16;-1,19;5,2;32,75;20,63;14,24;0;0;
12648;-19,1;-30,54;-15,24;19,44;6,1;35,43;17,71;14,96;0;0;
12668;-19,77;-9,33;-64,53;-5,96;5,65;32,43;16,31;12,56;0;0;
12692;-19,83;-48,39;-49,24;-15,59;5,99;31,78;23,43;11,3;0;0;
12722;-19,04;-17,73;-15,59;-13,37;6,01;30,75;21,06;9,56;0;0;
12742;-14,87;-49,69;-23,59;10,92;6,11;30,57;15,88;10,41;0;0;
12765;-34,27;-66,71;-19,22;-8,2;4,95;27,53;12,97;7,69;0;0;
12788;-23,61;-38,39;2,27;-2,74;4,58;23,07;13,18;6,21;0;0;
12816;-28,34;-63,62;-12,89;-5,04;4,65;24,47;6,1;6,24;0;0;
12836;-16,06;-39,41;-18,07;-7,31;4,64;21,68;4,65;5,12;0;0;
12860;-25,72;-12,16;-19,92;-9,72;4,58;20,93;4,33;4,09;0;0;
12887;-24,48;-72,85;-19,09;-0,71;4,2;18,94;4,24;3,97;0;0;
12915;-25,76;-58,44;-18,63;-18,93;3,81;16,59;3,81;4,18;0;0;
12935;-29,11;-70,6;-14,95;-4,48;4,09;17,16;2,39;3,92;0;0;
12960;-19,96;-21,82;-11,43;-0,14;3,84;16,58;4,19;4,19;0;0;
12987;-22,58;-25,74;-16,08;-6,64;3,86;15,66;3,84;3,69;0;0;
13011;-22,19;-41,65;-22,66;-5,72;3,45;13,23;3,99;3,75;0;0;
13032;-25,84;-40,67;-14,6;-5,72;3,47;11,04;3,97;3,7;0;0;
13055;-16,64;-46,22;-17,36;-8,26;3,22;7,95;3,85;3,62;0;0;
13077;-29,49;-16,69;-17,69;-3,21;3,62;6,35;2,46;3,9;0;0;
13099;-22,27;-60,1;-12,08;-3,78;3,56;7,36;1,94;3,37;0;0;
13127;-22,87;-37,69;-22,29;-8,32;3,23;6,93;2,1;3,27;0;0;
13150;-25,18;-26,8;-10,79;18,69;2,93;7,5;2,18;3,09;0;0;
13175;-24,03;-47,21;-17,92;-3,35;2,66;9,04;2,5;3,32;0;0;
13197;-24,14;-37,46;-19,82;-9,22;2,06;8,43;2,54;3,4;0;0;
13219;-18,47;-27,43;-20,49;-10,46;1,53;7,91;2,59;4,36;0;0;
13238;-24,78;-27,81;-16,95;-13,78;1,49;7,3;2,38;4,85;0;0;
13260;-27,26;-49,86;-15,96;-9,23;1,5;8,63;2,22;5,42;0;0;
13286;-24,16;-20,21;-18,51;-6,7;1,57;8,12;2,01;4,68;0;0;
13316;-22,3;-37,86;-25,99;-7,65;1,65;7,31;4,68;4,43;0;0;
13339;-23,94;-48,97;11,96;-6,24;1,63;7,24;6,19;3,2;0;0;
13362;-21,83;-30,01;-11,5;-12,45;1,72;7,01;16,2;2,7;0;0;
13391;-24,33;-37,03;138,14;-5,22;1,58;5,47;29,43;1,9;0;0;
13414;-26,38;-13,58;36,58;-2,62;1,61;6,16;37,33;1,96;0;0;
13438;-21,83;-37,91;-152,69;-8,24;1,88;6,28;43,86;2,47;0;0;
13463;-22,3;-37,63;32,51;-7,68;2;6,49;53,59;2,75;0;0;
13486;-25,11;-39,53;-65,64;-3,93;2,06;6,17;66,62;3,29;1;0;
13510;-21,82;-35,93;-35,12;-9,41;2,16;6,01;65,42;3,19;1;0;
13533;-28,41;-49,4;6,75;3,38;2,14;5,88;73,65;3,17;1;0;
13559;-23,94;-63,82;65,68;-11,08;1,74;6,8;92,01;2,95;1;0;
13583;-26,46;-49,12;62,32;-11,95;1,81;7,61;114,77;2,71;1;0;
13605;-23,22;-33,8;63,11;-1,05;1,85;7,94;125,88;3,35;0;0;
13631;-24,22;-38,55;24,64;-4,51;1,97;8,17;139,72;4,23;0;0;
13664;-22,66;-27,5;-47,81;-10,05;1,93;8,32;152,84;4,57;0;0;
13724;-23,59;-43,64;-301,88;1,5;1,92;8,19;153,53;5,45;0;0;
13745;-23,24;-18,25;35,56;-9;1,83;7,17;140,77;5,84;0;0;
13790;-28,17;-36,79;-204,41;0,54;1,79;6,49;132,8;5,93;0;0;
13822;-25,6;-38,3;172,28;6,14;2,11;7,68;122,83;5,54;0;0;
13845;-25,69;-57,73;50,31;-6,17;2,47;11,18;121,72;5,46;0;0;
13887;-23,95;-47,66;-52,28;-6,61;3,58;15,57;119,81;4,87;0;0;
13930;-53,68;-93,06;-115,4;-11,37;4,73;23,65;104,63;4,32;0;0;
13978;-41,68;18,9;3,7;-9,83;6,01;31,51;102,58;4,03;0;0;
14030;-29,67;51,33;-91,65;-9,72;7,13;43,82;101,31;3,85;0;0;
14078;-44,32;18,33;81,83;-11,2;8,18;49,56;94,07;3,2;0;0;
14124;-29,68;-24,38;-13,38;-3,98;8,39;63,71;89,51;3,4;0;0;
14143;-9,35;42,75;113,81;-10,54;8,58;65,66;83,64;3,31;0;0;
14175;-26,32;4,38;90,13;-6,05;7,89;59,03;68,5;3,24;0;0;
14209;-21,31;-43,15;-19,61;-0,33;8,66;57,7;57,57;3,34;0;0;
14233;-29,21;19;44,5;-4,06;7,79;54,82;50,71;3,61;0;0;
14251;-29,85;-62,84;-24,6;-7,82;7,27;44,68;31,15;3,96;0;0;
14277;-18,41;-38,46;-24,39;-17,01;7,41;42,92;34,85;4,51;0;0;
14298;-23,45;23,15;-20,98;32,25;7,94;40,21;32,1;5,6;0;0;
14372;-31,76;10,56;-8,36;-10,92;9,39;44,58;24,74;6,29;0;0;
14400;-39,45;-21,2;23,46;-4,44;8,65;41,83;29;7,09;0;0;
14434;-33,27;-30,79;-16,87;-4,94;9,2;41,26;28,22;6,62;1;0;
14458;-26,28;-48,98;-14,44;-2,26;12,36;39,75;23,03;7,27;1;0;
14505;-46,62;-19,52;-33,16;-12,77;14,82;36,68;22,62;6,42;1;0;
14539;-26,74;-31,42;-26,6;-7,16;13,59;28,94;21,11;4,93;1;0;
14562;-17,92;-31,51;24,38;-7,03;12,71;27,54;26,32;3,76;1;0;
14586;-25,86;-57,5;-48,65;-3,9;11,8;25,37;25,66;3,25;1;0;
14604;-25,86;-57,5;-48,65;-3,9;8,99;25,71;28,85;3;1;0;
14629;-43,76;-41,51;13,15;-6,05;10,84;20,21;48,33;3,48;1;0;
14670;-26,47;-39,12;-509,41;-11,3;7,26;18,94;79,63;4,65;1;0;
14694;-25,48;-38,55;-199;-9,97;6,66;17,64;90,1;5,38;1;0;
14722;-29,46;-39,97;76,37;-18,82;6,41;17,03;102,67;5,91;1;0;
14745;-23,03;-50,81;70,31;-14,98;6,22;16,47;121,44;6,96;1;0;
14769;-26,89;-93,93;-214,4;-8,41;4,75;19;123,69;6,65;1;0;
14794;-30,16;47,55;-167,18;-6,89;3;27,98;134,84;6,67;0;0;
14826;-34,33;-179,19;50,57;-0,24;3,5;60,6;122,6;5,85;0;0;
14848;-52,09;-43;-38,56;-6,27;4,8;89,78;133,39;6,14;0;0;
14882;-20,98;36,68;-61,16;-4,38;5,98;94,24;136,76;6,27;0;0;
14908;-54,47;-31,23;-83,61;1,1;7,22;107,47;127,54;5,6;0;0;
14937;-33,03;62,19;143,91;-7,45;12,1;105,21;129,81;4,79;0;0;
14960;-2,89;-156,23;-157,82;-6,92;13,48;74,92;134,77;4,26;0;0;
14986;-33,5;40,15;-11,63;-8,36;12,8;69,18;136,32;3,71;0;0;
15010;-12,09;75,05;97,53;-2,45;12,98;64,46;139,73;3,38;0;0;
15032;-23,45;38,94;78,07;1,44;12,11;67,13;131,49;4,06;0;0;
15057;-5,18;37,81;-83,53;-8,75;10,04;70,98;133,15;3,59;0;0;
15082;-10,74;-52,3;32,75;-8,93;9,59;73,05;124,1;3,27;0;0;
15106;-22,89;-67,05;-13,77;-6,01;9,79;69,35;102,49;3,75;0;0;
15128;-28,16;-36,08;-27,68;-15,34;10,12;72,15;104,37;3,96;0;0;
15155;-13,42;-18,3;84,82;4,25;9,4;62,59;91,76;3,71;0;0;
15181;-27,41;155,47;-18,83;-5,33;10,24;63,07;80,33;3,62;0;0;
15201;-16,47;-60,66;-117,19;-1,96;10,29;58,17;70,04;3,69;0;0;
15227;-22,29;-39,07;-25,65;-11,35;10,83;46,24;54,55;3,49;0;0;
15249;-12,22;-28,66;11,22;2,07;9,65;40,71;51,65;3,49;0;0;
15275;-38,22;-0,9;7,23;-11,55;10,4;46,71;48,05;4,38;0;0;
15294;-28,26;137,62;2,54;-16,08;10,44;42,14;41,85;4,54;0;0;
15320;-51,42;-34,68;-29,11;-6,8;9,4;37,6;37,73;5,2;0;0;
15343;-34,19;-80,7;-99,04;-7,67;9,23;42,95;37,19;5,99;0;0;
15364;-9,47;-33,06;-3,52;-8,53;9,86;39,82;50,39;6,03;0;0;
15389;35,74;-32,36;-155,61;-8,42;13,5;37,48;47,68;5,28;0;0;
15414;-39,17;-62,35;-18,69;-3,6;13,65;37,55;43,21;4,85;0;0;
15439;36,72;-20,67;-71,62;-4,24;22,86;38,97;43,51;3,9;1;0;
15465;-61,18;-33,05;-17,79;-9,72;35,78;30,9;44,42;3,07;1;0;
15489;-18,1;-42,74;-86,58;-5,89;35,26;27,29;33,73;2,71;1;0;
15512;-7,75;-2,17;-13,48;-5,89;37,43;31,65;31,13;3,44;1;0;
15536;-29,07;-37,21;-26,11;-1,3;33,44;28,22;24,64;3;1;0;
15563;-19,1;25,41;-14,9;-1,51;33,41;28,21;24,38;3,92;1;0;
15586;-21,46;-39,4;58,13;-6,41;12;25,84;33,57;4,06;1;0;
15609;-21,96;-57,62;-21,65;-7,41;7,96;26,1;39,94;3,96;1;0;
15631;-23,74;-22,01;-25,79;-6,69;6,14;24,49;32,34;3,53;1;0;
15655;-23,05;-26,67;-18,01;-6,44;3,79;19,12;29,36;2,9;1;0;
15680;-22,75;-55,57;-15,27;-6,52;3,81;15,98;27,19;2,57;1;0;
15705;-22,28;-51,93;-11,2;-11,96;3,53;12,91;21,94;1,75;1;0;
15732;-31,97;-70,32;-170,84;-7,77;3,35;15,94;15,12;1,71;1;0;
15755;-20,93;-39,8;32,31;-18,1;3,16;13,75;25,54;2,4;1;0;
15778;-27,47;-58,48;-58,41;2,51;3,33;13,92;50,38;3,6;1;0;
15799;-24,99;-28,59;-93,34;-0,99;3,57;15,8;67,27;4,34;0;0;
15828;-19,39;-71,97;316,1;3,77;4,09;17,57;105,91;5,27;0;0;
15853;-17,72;-62,81;-24,74;-13,52;4,88;27,04;132,29;6,74;0;0;
15882;-27,88;18,39;-63,73;2,4;7,22;32,13;139,1;7,37;0;0;
15908;-11,09;-65,71;-225,96;-0,75;8,63;42,33;139,01;7,99;0;0;
15933;-15,88;35,59;-81,75;-8,47;10,26;46,79;154,99;8,52;0;0;
15956;-31,7;-109,23;34,36;4;10,89;58,48;150,53;8,73;0;0;
15982;-39,02;52,62;-59,93;-8,89;10,89;66,85;127,41;8,26;0;0;
16007;-24,3;-109,87;229,13;-6,58;10,47;62,89;139,73;8,39;0;0;
16030;-36,8;24,53;-183,92;-6,14;9,47;62,68;142,81;7,43;0;0;
16050;-32,64;-73,62;-47,72;-4,73;8,09;57,1;144,35;7,87;0;0;
16080;-29,93;20,26;11,13;-0,86;7,5;54,03;145,95;7,07;0;0;
16106;-30,6;-39,68;-83,49;0,39;6,36;40,34;134,02;6,91;0;0;
16129;-1,48;-243;-272,88;-3,36;7,17;42,36;144,2;7,1;0;0;
16160;-24,23;-57,45;-82,18;-3,94;6,55;37,43;128,19;6,51;0;0;
16181;-19,78;62,23;79,94;-7,01;6,54;43,07;92,36;5,11;0;0;
16205;-24,98;23,55;21,98;-0,08;6,67;42,94;86,32;5,03;0;0;
16229;-32,04;-28,16;-11,13;-3,75;6,36;41,32;79,76;4,14;0;0;
16251;-14,16;-42,59;-113,25;-1;6,64;42,33;68,27;3,63;0;0;
16275;-24,82;-43,59;-37,49;-12,23;5,51;37,37;51,04;2,68;0;0;
16301;-33,75;15,58;54,11;-8,98;6,36;33,66;49,25;2,9;0;0;
16330;-20,25;-36,1;-4,07;0,99;6,58;33,2;42,39;3,22;0;0;
16352;-21,26;60;87,23;-10,93;6,78;36,04;49,6;3,51;0;0;
16379;-22,28;-45,67;-22,32;-3,71;7,57;33,58;45,28;4,42;0;0;
16403;-16,89;-14,2;78,45;8,15;8,54;38,83;48,18;6,37;0;0;
16431;-46,68;62,33;-50,96;-35,12;10,18;46,92;44,82;10,98;0;0;
16453;-14,96;-4,75;-90,27;-15,39;9,13;46,31;45,17;12,24;0;0;
16481;-9,99;-2,64;-9,07;8,1;9,84;42,49;40,39;13,95;0;0;
16507;-25,74;-17,04;42,28;-19,82;9,38;42,55;35,65;16,97;0;0;
16534;-24,73;-109,28;-5,39;-18,93;9;41,88;33,45;16,35;0;0;
16556;-28,61;-44,6;-179,93;-19,94;8,89;37,64;36,37;15,39;0;0;
16578;-89,65;-50,59;-47,83;4,39;8,92;30,09;35,28;12,07;0;0;
16602;-26,92;16,89;7,54;-18,31;12,81;22,66;34,18;12,31;0;0;
16624;-39,37;13,64;-149,14;-4,8;12,61;23,02;45,55;7,83;0;0;
16650;-30,93;-37,39;-8,1;4,84;12,68;23,83;44,79;7,8;0;0;
16676;-25,48;-59,26;-15,55;-15,25;11,88;19,59;44,13;6,74;0;0;
16699;-26,45;-94,18;0,19;-11,14;11,54;16,51;38,8;6,5;0;0;
16721;-23,28;-27,18;22,75;-2,28;5,23;18,31;49,76;6,34;0;0;
16745;-22,77;-30,01;-25,26;-3,24;4,77;19,56;45,61;6,16;0;0;
16769;-23,72;-37,92;5,22;-9,39;3,26;14,93;48,21;5,73;0;0;
16792;-23,3;-29,3;53,19;-9,46;2,69;12,3;49,63;4,18;0;0;
16817;-23,98;-34,79;-52,21;-7,47;2,57;11,46;58,51;3,83;0;0;
16842;-23,02;-33,89;-19,14;-7,69;2,32;8,88;54,17;4,38;0;0;
16866;-24,61;-34,77;-23,16;-12,66;2,01;5,72;38;3,72;0;0;
16892;-21,81;-35;-92,81;-8,5;1,81;4,56;36,45;3,91;0;0;
16914;-26,17;-38,1;-19,4;-7,5;1,81;3,96;22,5;4,39;0;0;
16936;-27,63;-38,38;-20,82;-20,34;1,64;3,74;13,82;4,83;0;0;
16959;-23,2;-39,37;-14,21;-11,88;1,38;3,58;9,62;5,98;0;0;
16986;-24,51;-41,32;-10,6;-4,98;1,59;3,93;10,62;5,54;0;0;
17013;-23,17;-29,84;-40,01;-14,74;1,6;4,13;11,61;5,17;0;0;
17035;-24,41;-42,73;-13,71;-10,9;1,65;4,82;10,27;5,91;0;0;
17058;-25,23;-33,68;-18,72;1,06;1,58;4,53;10,15;6,11;0;0;
17080;-24,15;-36,59;4,58;-6,44;1,74;4,53;10,91;5,27;0;0;
17101;-24,13;-33,11;-68,13;-6,07;1,87;5,15;16,63;4,58;0;0;
17128;-23,21;-42,4;34,37;-0,87;1,88;6,06;24,01;4,79;0;0;
17153;-24,53;-51;-36,5;-5,42;1,82;5,84;29,04;3,59;0;0;
17175;-21,81;-30,21;-14,78;-9,76;1,8;5,67;27,49;3,21;0;0;
17198;-28,79;-23,46;-14,47;-8,51;1,85;5,9;26,86;2,79;0;0;
17223;-23,28;-31,67;-9,02;-14,98;1,78;5,46;22,09;3,13;0;0;
17244;-23,35;-31,46;-33,83;-8,26;1,65;5,26;20,25;3,84;0;0;
17267;-21,49;-34,66;50,68;-9,29;1,76;5,72;12,73;4,47;0;0;
17292;-21,42;-103,21;-11,54;-10,47;1,84;8,32;12,28;4,69;0;0;
17320;-25,45;-44,86;-14,37;-12,69;2,08;10,17;11,82;5,32;1;0;
17337;-22,78;-28,14;-16,48;-8,35;1,97;10,24;12,08;4,78;1;0;
17361;-25,54;-61,22;-49;-13,74;2,25;12,27;16,29;4,24;1;0;
17387;-21,12;-19,35;-12,49;-7,56;2,85;14,81;13,38;3,3;1;0;
17410;-21,88;-36,78;-90,53;-2,73;2,86;15,68;12,27;2,67;1;0;
17432;-34,53;-34,82;-51,01;-5,8;3,03;12,81;16,42;2,43;1;0;
17455;-22,27;-28,15;-40,64;-3,01;2,84;12,15;24,78;1,89;1;0;
17479;-25,86;-42,12;-66,09;-3,03;2,94;11,96;26,11;1,74;1;0;
17501;-23,02;-41,59;-51,16;-9,15;2,65;8,61;24,19;1,6;1;0;
17527;-29,47;-85,15;-18,04;-4,21;2,24;9,57;29,42;1,87;1;0;
17543;-29,47;-85,15;-18,04;-4,21;2,28;11,8;29,93;2,03;1;0;
17567;-24,13;-28,66;-166,04;-15,42;1,96;11,98;25,75;2,51;1;0;
17591;-20,79;-47,1;-16,93;-2,39;2,36;14,17;45,69;2,82;1;0;
17612;-15,68;-44,83;-97,36;-1,09;2,6;13,69;50,13;3;1;0;
17638;-21,07;9,76;97,68;-10,97;3,37;11,78;69,02;3,27;1;0;
17662;-20,64;-54,56;-98,66;-7,98;3,49;12,8;72,81;3,34;1;0;
17688;-24,02;-39,77;248,05;4,1;3,37;12,77;91,19;3,91;0;0;
17711;-29,57;-40,61;56,55;-11,86;3,82;14,33;104,34;4,21;0;0;
17733;-15,94;-38,57;-266,2;-2,21;5,18;19,77;107,22;4,68;0;0;
17759;-28,22;-22,06;58,63;0,24;5,96;19,09;113,01;4,95;0;0;
17781;-27,05;-34,75;-82,53;-7,12;6,02;17,44;101,64;4,75;0;0;
17808;-36,51;-38,86;-248,95;-8,56;6,26;15,87;100,45;4,72;0;0;
17830;-14,02;-42,42;-38,83;1,53;7,21;15,54;94,22;4,43;0;0;
17855;-17,41;-34,26;-90,06;-6,9;7,53;10,71;91,09;4,16;0;0;
17880;-34,05;-24,75;-132,28;-7,15;6,98;12,52;97,02;4,24;0;0;
17903;-25,86;-43,81;-281,98;3,14;5,87;10,78;97,79;4,13;0;0;
17929;-12,72;-15,69;-122,86;0,75;6,82;10,41;107,19;4;0;0;
17954;-22,99;-40,93;128,86;6,1;6,58;10,81;107,2;4,36;0;0;
17981;-17,47;-82,38;-5,81;-11,08;5,71;12,59;107,35;4,61;0;0;
18004;-21,05;-12,72;107,09;-12,4;5,12;12,57;116,79;5,15;0;0;
18026;-15,97;-43,9;-33,5;-4,18;5,04;11,75;96,91;4,53;0;0;
18049;-17,33;-78,82;-46,27;-4,89;4,64;13,29;85,26;4,24;0;0;
18070;-21,22;-45,11;-128,78;-4,39;4,77;17,93;74,02;3,71;0;0;
18095;-29,96;-21,07;-23,24;-11,24;5,39;21,18;62,57;3,64;0;0;
18121;-31,09;5,1;-11,87;-15,8;5,79;21,54;30,43;4,83;0;0;
18149;-13,97;-112,15;-17,88;4,44;5,58;25,23;27,23;7,25;0;0;
18172;-27,26;-43,09;-2,37;-10,99;7,78;26,63;22,09;10,46;0;0;
18196;-26,63;74,83;-59,14;-12,21;7,68;31,35;22,18;11,92;0;0;
18221;-32,38;-22,9;-9,3;-6,61;9,12;33,5;22,5;12,38;0;0;
18241;-23,28;-24,98;-5,11;-18,12;9,05;37,03;25,98;12,57;0;0;
18262;-26,02;-93,05;-16,79;25,69;8,35;37,55;24,56;13,48;0;0;
18283;-29,11;-58,31;-7,62;0,43;7,94;38,77;23,69;13,23;0;0;
18308;-29,91;35,29;-10,53;-12,41;6,99;50,32;18,54;11,15;0;0;
18332;-23,21;-66,29;-32,58;0,65;4,7;40,22;21,62;10,05;0;0;
18354;-24,92;-37,82;-7,85;-16,32;4,57;39,77;22,21;10,58;0;0;
18374;-27,8;-40,13;-14,73;-7,55;4,87;40,47;21,08;9,62;0;0;
18397;-23,54;-38,79;-6,64;-15,9;3,66;28,19;20,57;8,11;0;0;
18421;-24,48;-55,25;-15,61;-2,15;2,81;17,88;20,19;8,06;0;0;
18442;-26,18;-43,04;-18,95;-1,96;3,13;19,83;14,32;8,08;0;0;
18468;-22,63;-10,57;-16,81;-13,74;2,95;18,36;6,83;8,59;0;0;
18488;-14,88;-48,69;-11,71;-6,93;2,61;15,74;5,48;5,91;0;0;
18510;-2,65;-87,69;-20,41;-1,92;3,39;18,74;4,31;5,14;0;0;
18532;-27,13;-48,89;-16,65;-7,55;4,43;24,81;3,2;4,29;0;0;
18553;-31,71;-33,01;-15,43;-5,71;6,1;26,89;2,19;4,11;0;0;
18576;-38,82;-44,09;-17,77;-10,32;7,37;30,09;2,14;4,17;0;0;
18598;-31,52;-41,38;-19,38;-3,18;8,76;33,84;2,12;4,32;0;0;
18627;0,17;-28,61;-15,81;-9,03;9,75;33,46;1,84;4,8;0;0;
18647;-31,02;-31,09;-13,22;3,21;11,4;26,59;1,82;5,78;0;0;
18671;-24,62;-31,6;-16,9;12,54;10,31;23,25;1,84;7,89;0;0;
18694;-34,64;-48,74;-15,89;-11,68;8,09;17,37;1,76;7,41;0;0;
18716;-16,57;-77,56;-19,04;-11,99;7,54;14,97;1,98;7,79;0;0;
18739;-41,91;-31,46;-18,47;-15,81;7,55;13,09;2,08;7,04;0;0;
18761;-23,88;-20,69;-15,98;-10,31;5,39;13,18;2,03;7,82;0;0;
18788;-28,95;-57,47;-15,37;-12,79;4,21;12,34;2,05;7,86;0;0;
18814;-20,69;-29,27;-15,13;1,36;4,46;13,52;1,89;8,86;0;0;
18835;-28,5;10,21;-17,55;-11,98;4,21;16,39;1,95;8,81;0;0;
18869;-23,61;-26,55;-16,1;-6,68;3,78;18,99;1,65;10,13;0;0;
18888;-27,16;-37,17;-15,38;-8,9;2,97;15,73;1,54;9,99;0;0;
18914;-24,36;-27,45;-15,71;-10,56;2,67;14,84;1,55;8,97;0;0;
18941;-22,8;-43,9;-15,95;-8,69;2,79;13,6;1,57;7,8;0;0;
18964;-26,99;-52,87;-18,77;8,85;2,55;12,84;1,6;6,38;0;0;
18986;-20,29;-37,43;-17,33;14,39;2,34;8,31;1,54;6,7;0;0;
19012;-27,53;-18,74;-19,15;-6,34;2,37;7,71;1,64;5,1;0;0;
19035;-25,87;-38,93;-17,8;-15,55;2,19;7,1;1,67;5,69;0;0;
19055;-23,39;-39,39;-11,45;-6,08;2,11;6,45;1,67;5,87;0;0;
19077;-22,45;-38,25;-18,37;-6,7;1,97;6,35;1,91;5,86;0;0;
19106;-24,78;-29,58;-16,08;-8,63;1,93;5,14;1,83;5,21;0;0;
19128;-31,03;-0,74;-13,81;-13,11;1,91;5,86;1,75;5,2;0;0;
19150;-25,09;-43,17;-16,74;-6,37;1,99;5,67;1,94;5,79;0;0;
19175;-21,31;-29,89;-17,48;-10,78;2,07;6,78;2,05;5,2;0;0;
19199;-27,3;-41,49;-14,61;-8,3;2,03;6,85;1,88;5,81;0;0;
19222;-27,17;-29,77;-17,13;-13,97;2,25;7,13;1,87;5,56;0;1;
19245;-24,32;-38,82;-16,78;-11,57;2,17;6,73;1,93;5,26;0;1;
19273;-57,94;-32,91;-19,22;-7,64;2,53;4,99;2,01;5,67;0;1;
19296;-24,93;-45,31;-20,77;19,51;6,01;3,95;2,08;6,66;0;1;
19320;-112,42;-35,25;-15,66;-7,74;10,15;3,49;2,03;7,39;0;1;
19342;-37,58;-34,76;-13,48;-2,79;24,88;3,56;2,11;9,68;0;1;
19365;-22,38;-34,08;-13,5;-17,05;26,85;3,55;2,4;10,39;0;1;
19389;-22,63;-36,19;-11,19;22,12;23,75;3,6;2,42;14,34;0;1;
19416;-22,36;-37,91;-22,12;-14,46;22,44;3,46;3,27;16,25;0;1;
19439;-25,74;-37,21;-43,97;42,24;8,44;3,28;4,08;22,73;0;1;
19463;-12,85;-37,46;-12,3;27,83;6,25;2,99;6,55;29,98;0;1;
19486;-25,87;-46,51;-17,79;-113,25;12,58;2,65;8,68;42,35;0;0;
19507;-43,59;-36,83;29,41;-11,78;17,45;2,35;11,85;48,99;0;0;
19535;-179,19;-45,17;-20,27;16,97;28,19;2,44;12,82;48,55;0;0;
19572;110,57;-23,85;-24,07;-98,08;56,6;3,88;14,58;49,97;0;0;
19599;-39,84;-38,98;-50,95;-32,93;73,93;4,71;15,8;57,1;0;0;
19625;-48,49;-42,62;-8,25;29,57;84,24;6,42;14,32;52,44;0;0;
19652;-80,98;-31,6;-15,8;67,11;110,12;7,54;13,04;51,19;0;0;
19677;-105,6;-30,14;2,49;1,69;125,5;9;12,02;49,21;0;0;
19724;-180,61;-19,8;0,08;-15,22;132,29;10,33;12,42;52,84;0;0;
19752;-311,26;-21,07;-14,14;-11,92;129,2;10,77;11,2;52,66;0;0;
19775;-388,85;-59,39;-18,1;45,6;134,44;11,28;10,44;52,78;0;0;
19797;-85,84;-26,24;-21,79;19,43;145,55;11,79;9,9;46,2;0;0;
19825;-6,85;-32,05;-9,14;-10,23;133,86;11,48;9,6;42,95;0;0;
19849;-48,46;-33;-11,62;-5,18;139,11;10,48;8,25;36,42;0;0;
19877;-9,25;-36,3;-8,56;11,05;110,52;10,23;6,31;30,87;0;0;
19906;135,3;-31,76;-10,2;-8,87;113,61;10,17;5,41;24,68;0;0;
19932;-27,65;-34,4;-10,75;-33,51;94,5;9,01;3,89;19,44;1;0;
19955;-28,68;-33,95;-9,92;-20,7;42,25;6,31;3,12;16,82;1;0;
19983;-23,74;-34,72;-15,42;-31,05;11,22;4,31;2,47;16,6;1;0;
20004;-21,47;-43,91;-17,91;-14,36;14,48;4,07;2,86;13,78;1;0;
20030;-45,78;-47,25;-17,06;-31,87;29,51;4,91;2,72;11,57;1;0;
20057;5,11;-43,92;-16,06;-2,93;31,26;5,67;2,67;11,71;1;0;
20076;29,77;-35,93;-15,69;-24,18;33,12;6,8;2,41;12,07;1;0;
20097;41,28;-77,82;-16,02;-23,81;50,99;8,45;2,47;10,39;1;0;
20121;-47,24;-44,04;-20,34;-7,33;58,44;9,83;2,35;10,78;1;0;
20143;-27,38;-12,29;-19,3;-17,54;42,99;10,49;2,1;11,1;1;0;
20166;63,89;-55,96;-14,29;-5,63;41,4;13,37;2,07;10,02;1;0;
20190;216,85;-5,4;-17,97;-10,54;52,34;15,11;2,07;7,89;1;0;
20219;-37,37;-28,09;-15,85;-1,65;62,26;16,01;1,92;6,26;1;0;
20241;-26,47;-66,18;-14,36;-7,09;44,09;15,49;1,85;3,94;1;0;
20267;-43,06;-23,41;-20,6;-6,36;54,39;14,65;1,75;2,96;0;0;
20307;-29,46;-34,52;-37,41;-4,25;75,82;12,16;2,74;2,69;0;0;
20333;-24,14;-35,89;-48,11;-13,43;72,13;10,49;19,89;2,73;0;0;
20357;-26,52;-37,94;161,09;-2,79;51,14;8,39;34,2;3,29;0;0;
20389;-5,24;-48,84;-55,87;-5,97;44,8;8,01;50,27;3,6;0;0;
20416;-21,26;-30,38;6,44;-8,2;28,96;7,01;82,82;5,22;0;0;
20441;-47,94;-42;-172,04;-2,79;11,95;6,45;120,01;6,64;0;0;
20467;-21,52;-33,29;29,85;-10,07;7,86;6,45;142,2;7,31;0;0;
20495;-26,23;-27,83;108,35;-8,75;7,83;7,17;155,77;8,16;0;0;
20526;-26,21;-25,79;-338,17;-12,32;7,83;7,55;164,72;8,49;0;0;
20557;-16,77;-31,59;-60,33;0,25;7,29;12,55;167,01;8,75;0;0;
20581;-19,39;-14,9;7,35;-12,93;5,59;14,34;156,9;8,39;0;0;
20607;-22,31;-47,15;-348,73;-8,56;4,57;18,67;142,62;8,09;0;0;
20632;-9,92;-89,75;-169,88;-8,81;6,66;21,13;134,69;7,7;0;0;
20655;-32,31;-30,9;-91,42;-21,21;8,2;29,18;128,96;7,11;0;0;
20679;-27,69;7,89;-102,31;-7,65;8,01;31,57;97,22;5,84;0;0;
20705;-18,4;-135,9;-17,25;-2,65;8,96;34,06;82,96;4,53;0;0;
20730;-17,68;-129,79;-8,48;-16,11;8,07;35,84;75,26;8,73;0;0;
20751;-29,09;24,93;23,56;-38,39;6,63;37,29;57,57;10,42;0;0;
20777;-21,37;-16,52;-41,26;17,47;4,81;31,79;39,65;13,65;0;0;
20797;-28,42;-11,98;-13,56;-16,11;3,99;30,31;31,15;15,56;0;0;
20820;-36,57;-114,68;5,33;30,8;4,51;26,88;24,1;19,58;0;0;
20846;-26,6;-35,73;-74,02;-11,33;3,55;22,09;26,09;21,01;0;0;
20873;-23,71;-26,24;-56,15;-19,66;4,98;22,83;32,1;19,1;0;0;
20893;-26,49;-28,58;2,68;-34,85;4,79;21,46;28,38;19,89;0;0;
20918;-24,87;-38,05;-17,23;22,96;4,49;18,68;28,87;20,65;0;0;
20947;-25,97;-3,51;43,96;9,34;4,24;18,62;33,33;20,45;0;0;
20974;-24,46;-16,24;-33,58;-3,22;3,52;21,73;32,2;17,44;0;0;
20994;-25,51;-93,7;-13,67;-15,13;3,36;25,5;22,21;19,33;0;0;
21017;-23,51;-14,7;-19,66;5,02;2,55;21,57;18,74;18,4;0;0;
21045;-10,45;-26,49;-42,42;0,9;4,22;23,57;15,74;15,56;0;0;
21069;-8,46;33,42;-15,19;-11,12;7,29;30,19;11,9;12,17;0;0;
21091;-17,31;-1,99;13,02;-7,8;8,44;36,9;7,23;10,13;0;0;
21117;-26,16;-119,5;-72,72;-27,56;8,87;38,25;9,64;9,27;1;0;
21136;-24,46;32,63;-17,93;-4,66;9,2;37,87;17,2;6,93;1;0;
21160;-35,17;-20,9;-51,36;-1,35;9,86;43,87;21,68;7,19;1;0;
21184;-19,11;-14,56;-5,6;-25,33;8,79;41,52;22,36;7,7;1;0;
21211;-21,64;40,79;-108,36;-7,68;7,38;41,2;26,15;7,76;1;0;
21235;-21,02;-61,65;23,12;-2,44;6,44;36,38;33,38;7,7;1;0;
21263;-26,66;-52,58;-57,41;-3,72;5,62;32,35;45,35;6,03;1;0;
21282;-16,18;-39,44;-2,86;-8,4;5,28;23,45;44,7;4,99;1;0;
21305;-23,62;-68,85;-12,02;-9,46;4,53;19,36;42,44;3,15;1;0;
21327;-31,93;-19,34;-41,52;-4,56;3,61;17,11;61,17;2,68;1;0;
21350;-20,64;-52,97;111,83;-20,22;3,38;14,38;73,09;3,31;1;0;
21379;-25,67;-44,77;-144,97;-0,84;3,39;12,75;84,94;4,03;1;0;
21398;-21,35;-22,71;169,41;-15,57;3,35;12,07;107,13;4,91;1;0;
21426;-25,47;-40,63;-107,97;-2,46;2,92;11,32;120,44;5,4;0;0;
21452;-22,19;-35,34;-35,87;-9,97;2,68;9,37;129;6,09;0;0;
21480;-24,86;-27,16;-78,97;-12,9;2,34;7,29;132,07;6,85;0;0;
21512;-33,33;-34,19;-17,25;-2,61;2,5;8,41;145,66;6,33;0;0;
21539;-27,65;-26,39;-43,08;0,21;3,09;11,52;155,64;6,95;0;0;
21568;-21,75;-11,03;-11,82;0,18;2,89;13,1;155,6;7,44;0;0;
21592;-30,27;79,78;-83,3;-15,36;3,84;19,53;158,21;7,65;0;0;
21626;-11,35;-56,95;-244,26;-5,55;4,95;24;156,25;7,55;0;0;
21655;-18;0,79;-1,09;-10,77;7,44;39,74;143,16;7,49;0;0;
21687;-17,37;-91,55;-9,44;-4,96;7,77;42,13;126,88;7,18;0;0;
21738;-14,28;-120,48;29,05;-25,02;9,62;56,83;93,28;6,41;0;0;
21762;-5,19;57,1;38,71;-2,16;11,63;67,88;72,44;7,1;0;0;
21787;-14,79;-83,62;28,17;10,59;12,15;80,76;57,11;7,21;0;0;
21814;-34,34;126,25;-10,24;-10,72;11,16;86,73;39,55;9,57;0;0;
21836;-11,16;-141,13;-26,48;-8,39;9,7;84,85;25,57;13,64;0;0;
21866;-18,79;-30,15;-20,3;-20,01;10,58;79,54;17,4;14,58;0;0;
21890;-17,58;-60,83;-26,46;18,09;9,95;64,76;14,07;16,3;0;0;
21918;-21,51;-34,81;-11,49;-22,85;8,94;59,34;10,38;17,24;0;0;
21945;-26,36;-42,54;-56,33;-31,07;7,58;43,14;12;19,3;0;0;
21979;-43,48;-122,44;31,45;-8,89;6,52;44,05;21,3;15,65;0;0;
22000;-27,21;-64,82;-3,6;5,08;6,53;45,35;22,53;14,76;0;0;
22026;-45,37;-60,12;-3,93;-9,72;7,67;43,32;20,85;13,79;0;0;
22053;-54,68;1,31;-8,52;-11,18;9,55;43,43;21,45;12,88;0;0;
22079;-32,33;86,67;-13,26;-7,03;10,17;45,58;21,01;7,17;0;0;
22103;-25,3;-41,71;-10,74;-10,99;11,52;53,86;13,77;6,55;0;0;
22124;-25,25;-26,99;-17,76;-5,09;11,79;50,26;7,13;6,46;0;0;
22147;-15,79;-11,36;-12,93;-5,04;11,63;47,54;5,74;4,5;0;0;
22175;-44,05;-32,05;-14,69;-2,89;12,14;42,93;5,93;2,78;0;0;
22196;-6,14;-45,09;-13,73;2,97;10,45;35,35;4,12;3,34;0;0;
22223;-29,67;-3,79;-17,84;-15,91;9,4;26,87;2,81;4,16;0;0;
22247;-22,54;-19,59;-17,25;-8;8,06;17,84;2,62;4,24;0;0;
22272;-23,55;-45,21;-17,26;-4,52;7,36;16,4;2,54;4,04;0;0;
22292;-46,83;-70,34;-12,8;-6,12;5,82;17,16;2,18;3,82;0;0;
22317;-3,95;-23,33;-15,53;-4,81;8,24;18,32;2,17;3,57;0;0;
22337;-24,25;-30,57;-17,12;-2,78;7,53;19,7;2,22;3,9;0;0;
22363;-24,51;-14,1;-14,67;-9,01;7,43;17,8;2,35;3,98;0;0;
22406;-23,46;-23,82;-17,81;-1,36;6,87;17,04;2,48;3,9;0;0;
22433;-27,34;-47,77;-19,96;-9,11;6,89;15,44;2,46;4,1;0;0;
22457;-25,7;-35,65;-15,61;-4,43;5,26;12,41;2,03;4,19;0;0;
22484;-20,96;-53,91;-16,82;-2,19;3,61;10,89;1,91;3,8;0;0;
22510;-22,58;-63,79;-18,79;-21,53;3,6;11,34;1,78;3,35;0;0;
22535;-25,24;-21,71;-17,37;-7,86;3,3;10,57;1,69;3,81;0;0;
22561;-23,42;-40,89;-16,93;0,82;3,33;9,82;1,59;4,22;0;0;
22585;-18,47;-54,25;-16,9;-3,72;2,76;10,83;1,62;4,47;0;0;
22608;-30,8;-27,02;-16,86;-5,45;3,68;10,97;1,64;4,24;0;0;
22630;10,74;-37,73;-15,91;-7,4;5,98;9,86;1,65;5,53;0;0;
22654;-26,4;-36,32;-15,15;-5,37;6,55;6,21;1,58;4,72;0;0;
22676;-19,58;-38,7;-19,21;-7,43;6,64;5,5;1,73;4,78;0;0;
22698;-22,19;-30,23;-15,65;-6,83;6,48;4,56;1,71;4,51;0;0;
22723;-26,73;-36,74;-19,02;17,16;5,61;2,85;1,78;5,53;0;0;
22747;-26,05;-32,18;-16,56;-2,35;4,58;2,53;1,81;5,04;0;0;
22773;-22,42;-38,42;-15,5;-18,55;2,46;2,67;1,97;4,39;0;0;
22795;-24,22;-38,97;-12,72;-7,11;2,02;2,73;2,07;6,38;0;0;
22821;-24,5;-37,1;-14,44;-17,08;1,99;2,88;2,05;8,96;0;0;
22843;-21,93;-35,53;-12,95;6,76;2,08;2,72;2,2;10,3;0;0;
22871;-21,82;-35,63;-14,94;4,6;1,96;2,63;2,24;10,02;0;0;
22900;-24,53;-40,99;-21,76;-11,61;1,97;2,58;2,09;10,45;0;0;
22922;-24,15;-37,25;-20,21;-36,17;1,77;2,58;2,15;11,82;0;0;
22948;-25,13;-39,15;-9,97;-0,14;1,68;2,52;2,36;12,13;0;0;
22973;-25,32;-33,23;-20,78;-41,91;1,67;2,68;2,33;13,83;0;0;
22993;-23,75;-35,76;-17,96;-27,09;1,59;2,66;2,56;17,44;0;0;
23018;-24,94;-40,17;-16,78;20,69;5,45;2,84;2,48;18,63;0;1;
23045;-37,55;-37,45;-24,72;19,08;7,54;2,99;3,35;20,54;0;1;
23074;-28,65;-40,7;-16,62;-139,91;8,79;3,11;3,74;29;0;1;
23092;-24,92;-41,56;-18,45;-77,64;8,96;3,02;4,52;34,67;0;1;
23118;-25,22;-36,49;-21,95;-39,95;8,83;3,2;5,48;37,65;0;1;
23143;-26,65;-32,24;-23,75;-5,44;6,04;3,46;7,28;46,37;0;0;
23171;-92,03;-37,53;-18,87;30,37;6,02;3,41;8,54;53,22;0;0;
23195;-13,57;-39,76;-29,01;-7,74;7,82;3,27;10,03;52,09;0;0;
23221;12,69;-35,98;-14,25;-46,48;13,54;3,16;12,06;48,14;0;0;
23244;13,7;-42,34;-10,82;-141,96;23,91;3,57;12,06;52,61;0;0;
23270;-137,66;-28,94;10,43;-43,09;48,14;3,89;14,74;57,42;0;0;
23295;19,89;-40,04;0,73;36,23;63,3;4,8;16,01;58,93;0;0;
23321;315,57;-30,5;13,69;-109,59;88,55;5,67;16,79;56,62;0;0;
23349;-77,08;-36,97;-5,87;-8,68;107,39;7,92;17,23;54,61;0;0;
23378;-54,42;-34,19;-37,71;110,68;115,69;8,57;18,06;55,1;0;0;
23402;274,6;-50,84;-18,66;-14,12;115,11;10,21;17,65;46,02;0;0;
23427;43,37;-23,91;-3,65;-0,6;115,21;10,53;16,45;39,23;0;0;
23448;-358,28;-39,05;-15,24;-54,1;128,09;12,59;14,6;36,48;0;0;
23476;-189,26;-43,32;-15,03;-1,98;110,14;11,63;12,32;32,43;0;0;
23499;228,93;-25,18;-12,84;9,21;123,38;11,55;9,77;30,06;0;0;
23532;-117,13;-41,88;-7,65;13,5;139,53;12,44;7,57;23,25;0;0;
23552;-275,75;-46,57;-14,02;-47,63;144,04;12,25;4,74;23,48;0;0;
23577;23,59;-29,47;-21,09;29,56;160,23;11,91;3,76;21,94;0;0;
23605;185,86;-20,41;-9,55;6,84;155,03;10,96;3,6;21,4;0;0;
23626;42,69;-35,6;-21,01;-20,1;163,45;12,11;3,84;19,88;0;0;
23647;10,56;-44,98;-18,12;20,44;143,37;11,72;3,52;20,9;0;0;
23676;-91,15;-21,4;-13,18;26,53;171,33;12,1;3,39;21,57;0;0;
23705;-67,32;-38,17;-15,1;-9,27;178,11;12,25;3,24;19,32;0;0;
23728;-32,86;-35,12;-20,15;-16,61;143,38;10,62;2,98;20,44;1;0;
23750;-58,36;-51,81;-20,5;-11,46;138,62;10,91;2,78;19,82;1;0;
23780;-22,48;-37,12;-14,63;-14,24;116,28;9,57;2,86;17,32;1;0;
23804;-28,55;-36,8;-17,71;-11,2;84,8;8,68;2,54;12,24;1;0;
23829;-25,26;-33,9;-20,66;-9,76;40,5;6,44;3,68;10,17;1;0;
23858;-24,85;-37,78;-87,53;-11,42;34,38;5,32;7,08;5,63;1;0;
23879;-25,83;-38,08;79,79;-1,41;32,86;4,77;21,6;3,67;1;0;
23901;-92,74;-39,71;19,88;-4,65;22,5;3,27;28,18;2,84;1;0;
23929;-21,64;-17;290,91;-4,97;23,48;4,5;52,8;2,98;1;0;
23950;-100,31;-45,7;33,61;0,46;34,46;9,3;70,39;3,96;1;0;
23974;-15,35;-43,74;-232,02;-9,34;34,65;10,41;93,38;4,43;1;0;
23993;-22,67;-33,51;27,17;-15,71;28,59;11,34;102,77;5,55;1;0;
24022;-15,6;-83,5;-68,36;-13,52;27,93;16,26;123,1;5,83;0;0;
24050;-27,01;56,68;295,55;6,55;39,9;27,67;126,88;6,27;0;0;
24081;-32,42;-42,79;122,24;-6,69;23,99;38,85;125,43;5,51;0;0;
24101;-20,32;-210,08;-13,45;-7,54;23,19;52,35;109,71;5,25;0;0;
24125;-30,49;37,16;-71,74;9,03;21,85;64,21;108,92;4,92;0;0;
24150;23,52;4,21;-82,79;15,76;20,61;61,46;108,02;5,13;0;0;
24175;-54,67;-47,08;-245,55;-19,05;29,29;52,71;111,37;5,3;0;0;
24205;33,09;-23,32;-207,58;-10,67;32,95;50,06;116,27;5,12;0;0;
24233;-15,8;-34,1;-82,97;-6,11;33,02;38,61;124,05;5,62;0;0;
24253;-22,64;-32,59;-42,47;-2,36;39,8;21,75;135,68;5,61;0;0;
24274;-23,76;-52,37;-16,68;-4,74;29,75;13,05;123,83;5,44;0;0;
24298;-22,18;-23,8;-223,83;-9,58;18,72;12,11;120,68;4,95;0;0;
24328;-30,27;-92,97;83,13;1,68;15,24;11,98;109,89;3,96;0;0;
24347;-39,48;-10,63;-40,49;-9,99;11,35;15,74;76,78;5,28;0;0;
24376;-29,46;-2,37;-12,24;-3,82;5,07;19,49;65,33;6,55;0;0;
24399;26,52;-107,28;-114,72;-11,38;7,06;36,04;60,12;7,33;0;0;
24423;-18,58;-36,45;-100,28;-10,54;7,53;43,84;61,04;7,56;0;0;
24443;-31,55;48,75;-18,92;-8,73;7,81;46,36;46,34;12,15;0;0;
24470;-25,96;17,69;-16,97;-44,08;7,66;54,47;34,14;14,49;0;0;
24494;-24,07;8,49;-28,96;-1,06;7,71;54,68;35,74;13;0;0;
24519;-30,86;29,62;30,15;-17,14;6,48;52,67;38,91;13,09;0;0;
24539;-15,78;-49,85;-5,31;27,57;5,51;46,29;28,03;14,88;0;0;
24566;-22;-6,91;-15,64;-18,32;5,79;52,05;21,05;14,14;0;0;
24586;-28,65;-50,58;-70,49;0,49;5,05;43,29;22,86;11,51;0;0;
24609;-27,18;15,45;-31,58;29,63;6,55;47,28;25,67;10,44;0;0;
24631;-27,14;-20,43;-20,89;-5,43;6,12;43,87;23,93;9,52;0;0;
24654;-28,64;-31,38;-21,3;-12,94;6,52;46,29;17,08;10,36;0;0;
24680;-28,88;3,37;-26,7;-4,01;5,16;31,69;16,5;8,93;0;0;
24699;-11,8;-51,5;-23,34;-6,31;5,73;32,96;20,18;8,44;0;0;
24724;-24,84;-37,81;-4,19;-1,19;4,28;25,33;17,16;9,65;0;0;
24742;-25,7;19,62;-15,33;-6,67;3,82;21,45;10,66;11,27;0;0;
24767;-24,3;-41,42;47,09;-0,28;3,87;22,56;23,65;9,27;0;0;
24788;-22,25;-87,45;-86,59;-5,69;3,61;27,19;30,41;9,05;0;0;
24815;-23,77;-35,66;-35,91;-7,82;3,07;27,28;34,46;8,89;0;0;
24836;-29,5;-28,94;-2,66;-5,81;3,51;33,37;34,17;6,33;0;0;
24855;-42,87;-0,26;-18,33;-14,23;4,74;34,28;33,99;4,55;0;0;
24880;-29,44;-97,42;-18,12;-8,81;5,09;37,89;26,77;4,97;0;0;
24901;-27,71;-20,98;-20,19;-4,35;6,6;38,24;13,68;4,62;0;0;
24925;-25,23;-59,32;-19,11;-8,39;6,55;37,24;7,66;4,49;1;0;
24943;-25,23;-59,32;-19,11;-8,39;6,42;40,94;5,76;4,21;1;0;
24972;-33,79;-56,05;-16,11;-6,78;7,07;37,16;5,58;3,73;1;0;
24991;-18,3;-32,03;-5,5;-5,52;7,47;32,65;5,64;3,14;1;0;
25014;-23,51;-37,8;-1,49;-5,64;6,95;23,99;8,36;2,53;1;0;
25043;-29,61;-54,57;-191,15;-9,25;5,98;21,53;24,19;2,96;1;0;
25066;-21,09;-40,3;208,94;-17,77;6,53;16,82;50,53;4,55;1;0;
25088;-19,42;-34,15;-69,65;-6,29;6,24;13,5;91,55;5,12;1;0;
25112;-26,57;-26,86;168,74;-6,46;3,6;13,08;115,64;5,83;1;0;
25136;-24,74;-37,93;-64,81;-5,44;3,69;10,77;139,44;7,43;0;0;
25161;-25,16;-44,52;-8,78;-12,05;3,27;8,55;157,75;8,27;0;0;
25187;-22,8;-48,28;-4,92;-8,81;2,5;6,09;159,13;8,46;0;0;
25206;-26,6;-44,69;-2,44;-5,12;2,51;6,51;143,4;7,83;0;0;
25231;5,13;-297,07;191,8;-12,79;3,1;37,25;136,92;8,07;0;0;
25250;-27,19;319,32;-34,98;-15,24;4,29;74;118,01;7,58;0;0;
25272;-27,19;319,32;-34,98;-15,24;5,25;111,43;114,47;6,64;0;0;
25298;-22,33;361,29;127,66;-3,58;6,2;160,42;121;5,5;0;0;
25324;-19,57;144,11;-59,4;-16,33;8,6;212,24;109,7;4,28;0;0;
25347;-15,2;22,47;290,21;1,74;8,56;189,65;116,94;4,5;0;0;
25373;-16,05;-93,32;12,86;-14,17;9,63;175,2;116,02;4,33;0;0;
25393;-1,9;-171,97;-122,34;-6,15;10,04;144,99;104,86;4,18;0;0;
25418;-14,34;-140,83;61,7;-12,42;10,56;111,49;97,39;4,06;0;0;
25443;-24,84;17,28;154,48;-0,18;11,56;100,49;89,8;3,84;0;0;
25474;-18,85;-92,43;-3,16;4,79;11,75;88,02;76,96;3,78;0;0;
25496;-31,53;-42,15;-31,2;20,5;11,68;85,64;59,11;7,08;0;0;
25523;-15,77;65,71;-28,27;12,64;10,92;86,53;48,97;9,28;0;0;
25540;-21,56;-25,99;-2,85;-5,73;11,04;76,53;37,45;13,21;0;0;
25563;-33,17;1,09;-99,01;-22,46;9,45;69,94;43,89;15,26;0;0;
25582;-23,11;-160,8;-33,2;14,05;8,48;65,71;33,08;16,57;0;0;
25604;-20,66;-71,69;-34,6;-8,37;8,59;57,54;34,73;15,52;0;0;
25631;-27,19;-30,06;21,14;0,71;7,62;48,44;35,14;11,9;0;0;
25652;-27,81;-50,75;-31;0,68;7,22;36,19;36,48;8,87;0;0;
25675;-21,27;-72,62;-23,99;19,62;6,73;32,37;28,42;9,71;0;0;
25695;-25,77;-54,16;4,78;-5,25;7,98;39,87;18,63;10,07;0;0;
25721;-25,86;-63,34;1,53;-9,52;7,37;36,23;18,77;9,02;0;0;
25742;-25,63;56,34;-24,52;-2,37;7,39;39,26;16,39;8,82;0;0;
25769;-41,56;-2,05;-5,34;-11,21;8,32;43,12;12,01;8,66;0;0;
25792;-12,68;-62,83;-8,23;-10,04;7,64;38,06;10,27;6,98;0;0;
25817;-16,85;-66,29;-14,94;-11,34;7,46;32,32;9,69;4,41;0;0;
25841;-23,58;-59,43;-14,34;-7,92;7,29;34,94;9,09;3,58;0;0;
25863;-44,68;20,47;-14,33;-4,97;7,16;37,63;7,45;3,14;0;0;
25883;-44,53;-33,76;-15,32;-5,61;8,86;35,16;6,46;3;0;0;
25903;-43,27;31,21;-13,91;-6,54;10,21;34,98;5,59;2,47;0;0;
25930;-23,19;-62,25;-18,45;-5,9;10,84;36,82;4,01;1,72;0;0;
25959;-12,23;-41,94;-16,1;-4,86;9,29;29,96;3,34;1,57;0;0;
25981;-84,04;-46,49;-11,82;-3,18;11,17;26,14;1,97;1,57;0;0;
26003;18,92;-43,55;-19,83;-6,58;13,79;18,48;1,64;1,47;0;0;
26029;-30,52;15,05;-14,74;-5,94;11,96;17,18;1,48;1,47;0;0;
26049;-21,76;-52,89;-19,47;-8,02;10,26;20,64;2;1,59;0;0;
26074;-24,26;-1,91;-42,54;-7,42;9,71;23,04;3,58;1,58;0;0;
26095;-28,18;-1,15;-26,08;-6,93;11,23;25,23;6,24;2,01;0;0;
26127;-26,84;-43,83;-15,95;-7,79;7,76;23,97;6,2;2,09;0;0;
26146;-19,79;-49,79;-16,86;-8,57;5,32;26,85;6,23;2,09;0;0;
26171;-25,76;-0,56;-18,04;-7,3;5,16;24,75;6,18;2,32;0;0;
26196;-23,91;-62,73;-17,35;-8,57;5,01;26,97;5,43;2,12;0;0;
26222;-28,4;7,26;-16,76;-4,09;3,97;25,96;3,22;2,19;0;0;
26244;-23,41;-59,3;-13,19;-4,92;2,48;26,4;1,69;1,97;0;0;
26266;-23,95;-35,6;-13,74;-2,75;2,56;25,83;1,71;2,09;0;0;
26285;-25,17;-42,73;-16,2;-2,03;2,11;20,26;1,74;2,22;0;0;
26312;-22,15;-37,69;-14,31;-5,67;1,77;10,3;1,67;1,94;0;0;
26333;-22,54;-26,25;-18,78;-9,57;1,58;8,03;1,86;1,88;0;0;
26355;-23,76;-43,37;-16,56;-5,57;1,52;6,7;1,75;1,79;0;0;
26379;-23,37;-27,49;-16,45;-2,65;1,59;7,1;1,97;1,84;0;0;
26398;-25,97;-45,77;-13,65;-4,6;1,85;7,52;2,13;1,95;0;0;
26422;-22,74;-40,06;103,82;-3,74;1,81;7,3;7,81;2,01;0;0;
26445;-24,17;-35,76;-17,55;-6,41;1,86;6,23;7,98;2,09;0;0;
26466;-26,3;-37,33;-15,78;-3,62;1,85;4,56;8,23;2,14;0;0;
26488;-22,22;-39,06;-11,77;-5,66;1,73;4,36;8,24;1,94;0;0;
26514;-25,85;-34,05;-18,12;-10,92;1,62;3,38;8,12;2,06;0;0;
26535;-24,45;-30,85;-18,83;-4,98;1,42;3,4;7,66;2,05;0;0;
26556;-25,27;-43,36;-12,91;-5,35;1,58;3,69;2,08;1,89;0;0;
26579;-23,3;-35,38;-17,13;-11,34;1,49;3,88;1,73;1,92;0;0;
26600;-21,31;-42,24;-14,4;-3,63;1,45;3,91;1,6;1,96;0;0;
26628;-25,71;-30,62;-11,96;-8,7;1,57;3,67;1,51;1,86;0;0;
26647;-27,96;-37,72;-15,29;-7,58;1,92;3,48;1,39;1,75;0;0;
26668;-24,85;-38,68;-17,47;-5,8;1,89;3,36;1,35;1,91;0;0;
26689;-23,39;-36,25;-11,15;-5,93;2,02;3,12;1,5;1,94;0;0;
26713;-24,86;-37,68;-17,98;-7,07;2,11;2,97;1,64;1,98;0;0;
26740;-24,26;-41,11;-19,64;-5,82;2,28;2,94;1,75;1,96;0;0;
26762;-24,46;-34,73;-17,41;-8,04;2,2;2,89;1,77;1,72;0;0;
26782;-23,6;-44,79;-12,2;-7,58;2,17;3,1;1,94;1,6;0;0;
26803;-24,52;-47,06;-16,44;-7,03;2,06;3,27;1,9;1,62;0;0;
26827;-24;-28,91;-15,16;-7,58;1,97;3,6;1,88;1,56;1;0;
26847;-23,3;-40;-17,04;-8,1;1,84;4,3;1,79;1,51;1;0;
26871;-26,47;-40,9;-9,78;-7,03;1,76;4,85;2,56;1,45;1;0;
26900;-24,86;-40,36;-8,95;-5,72;1,68;5,47;3,23;1,56;1;0;
26927;-29,18;-45,92;-22,52;-5,22;1,87;5,74;4,39;1,41;1;0;
26947;-26,99;-38,63;-44,38;-5,22;2,05;5,51;11,47;1,37;1;0;
26978;-23,37;-39,23;54,6;-3,98;2,08;4,69;20,44;1,37;1;0;
27000;-23,66;-38,46;28,51;-4,4;2,08;4,46;26,92;1,69;1;0;
27019;-22,84;-39,1;20,05;-0,89;2;4,64;36,38;1,78;1;0;
27041;-23,77;-74,73;161,47;-7,51;2,03;8,5;62,28;2,53;1;0;
27073;-27,56;-42,19;-89,73;-8,64;2,03;9,65;78,46;3,08;1;0;
27093;-29,77;42,74;-408,33;-10,71;3,59;17,72;99,43;3,76;1;0;
27120;-49,78;25,03;-43,43;1,61;5,95;39,71;131,44;5,2;0;0;
27141;-11,08;-115,93;-202,99;-1,09;7,88;52,27;140,75;5,47;0;0;
27171;-43,9;-47,67;17,54;-12,42;9,65;57,59;150,34;6,19;0;0;
27190;-26,13;99,97;-149,81;-11,92;11,18;62;151,92;6,09;0;0;
27211;-5,91;18,16;75,11;-6,07;13,49;72,65;160,43;6,3;0;0;
27236;-19,72;35,34;-415,7;-5,93;11,69;68,17;138,19;5,67;0;0;
27259;-19,94;-87,24;98,89;-3,02;10,84;53,02;141,94;5,08;0;0;
27283;-17,12;5,17;-198,36;-0,08;10,99;62,6;145,31;4,64;0;0;
27312;-13,5;5,85;-60,67;-4,64;10,1;73,59;130,25;4,35;0;0;
27332;-30,6;-7,12;51,95;-14,45;9,42;68,13;129,35;4,15;0;0;
27354;-30,21;-69,74;68,08;-8,13;7,78;58,91;110,37;4,04;0;0;
27375;-26,97;-51,06;-19,55;-9,66;7,59;56,75;83,93;3,91;0;0;
27399;-29,06;-14,78;7,02;-7,58;6,18;49,74;74,78;3,53;0;0;
27423;-47,03;-8,45;-20,37;2,16;5,7;38,88;54,43;4,96;0;0;
27451;-37,49;16,18;-11,66;2,42;5,74;34,51;42,77;8,65;0;0;
27474;-18,4;-71,03;-19,56;-8,76;7,62;33,76;43,24;9,95;0;0;
27496;-24,88;-54,2;-50,07;25,05;7,51;31,46;36,69;15,41;0;0;
27520;-21,58;-2,01;-35,77;-9,8;7,56;31,1;40,72;15,63;1;0;
27544;-33,48;-24,34;-26,46;-7,04;8,55;28,37;32,34;16,78;1;0;
27574;-21,25;-24,04;-20,59;-7,08;8,8;27,19;31,73;15,68;1;0;
27595;-16,06;-6,59;-74,57;-1,11;8,16;26,62;27,89;11,84;1;0;
27619;-19,01;-58,98;-43,34;-51,26;7,2;29,76;29,64;9,93;1;0;
27642;-48,51;-26,61;-23,48;-16,74;8,34;31,89;22,92;13,83;1;0;
27664;-25,15;-65,79;-16,26;-11,5;8,72;33,81;20,26;13,55;1;0;
27685;-22,72;-61,63;15,27;-13,27;6,97;31,47;20,49;11,68;1;0;
27712;-27,17;-83,96;-15,68;-13,79;6,05;32,95;27,32;11,45;1;0;
27738;-22,93;-30,66;-37,6;-8,17;8,27;24,64;38,55;12,28;1;0;
27759;-49,14;-55,71;-77,76;-6,1;8,59;24,69;48,79;7,08;1;0;
27779;-26,97;-6,39;-49,16;-13,23;7,91;23;66,75;5,92;1;0;
27802;-36,09;-46,09;-1,53;-16,3;7,23;25,7;85,34;6,71;1;0;
27826;-23,88;-108,59;-144,16;-3;7,93;29,81;97,7;7,19;1;0;
27847;-18,86;-69,84;125,45;-11,08;6,67;31,76;98,72;7,5;1;0;
27871;-24,14;-48,92;-134,2;-6,16;4,87;29,67;99,43;7,16;0;0;
27895;-24,33;-24,02;-146,05;-21,71;3,64;28,64;102,21;7,19;0;0;
27918;-27,21;-47,89;124,16;1,28;3,14;23,39;102,54;7,92;0;0;
27940;-24,68;0,28;-131,76;-7,53;2,24;19,93;101,59;7,59;0;0;
27964;-38,39;-58,12;-17,86;-14,09;3,11;12,05;120,91;8,24;0;0;
27988;-31,22;-76,34;-192,55;-14,62;4,22;21,61;136,3;8,5;0;0;
28007;0,25;-138,52;-232,91;7,01;6,64;34,1;143,78;8,94;0;0;
28033;-45,23;-120,05;192,7;-11;8,09;48,27;158,24;8,15;0;0;
28057;-40,69;171,19;-27,72;-8,43;10,68;63,77;143,67;7,04;0;0;
28081;-21,17;44,87;-26,32;-12,81;11,42;78,35;121,39;6,64;0;0;
28108;-37,61;-99,33;80,88;5,42;11,59;78,16;123,32;5,84;0;0;
28130;-26,67;71,81;17,7;-13,57;11,9;74,28;109,66;4,48;0;0;
28156;-33,47;5,38;-2,34;-3,85;10,18;62,73;88,71;4,24;0;0;
28179;-13,84;-68,2;-55,28;-6,7;9,8;61,13;59,69;3,79;0;0;
28201;-10,86;-11,8;7,98;-25,87;8,5;46,97;53,94;6,18;0;0;
28227;-31,02;-202,31;22,31;-4,31;8,46;52,48;54,41;7,65;0;0;
28249;-26,31;-37;-110,68;-12,92;7,18;57,18;43,35;7,61;0;0;
28270;-13,17;-26,26;-15,55;-16,25;8,03;51,93;35,82;8,81;0;0;
28291;-11,9;-119,21;-22,91;-10,45;8,16;47,57;35,5;12,57;0;0;
28316;5,51;61,54;-22,13;-11,61;8,61;45,94;37,19;11,2;0;0;
28335;-20,1;-73,55;-203,55;-3,03;9,74;45,8;39,29;9,86;0;0;
28359;-32,97;-18;-32,69;-11,02;10,3;40,14;25,92;10,31;0;0;
28386;-21,39;-43,28;-66,41;-14,54;10,2;37,95;22,11;10,11;0;0;
28408;-36,98;-51,74;-6,2;-5,69;9,79;38,98;21,15;5,96;0;0;
28429;-22,39;-198,52;15,64;-5,87;11,75;41,57;27,72;5,26;0;0;
28452;-28,61;-29,53;-10,86;-11,64;14;37,42;25,16;4,8;0;0;
28473;-29,68;-24,52;-27,7;-3,95;14,56;32,78;20,08;4,42;0;0;
28495;-47,77;-54,52;-27,55;-17,87;18,14;24,1;20,48;9,25;0;0;
28520;-45,93;-67,55;-17,26;-7,28;20,92;24,76;19,08;9,93;0;0;
28548;-22,02;-186,45;-9,81;-6,69;17,75;28,44;13,39;11,79;0;0;
28574;-20,63;39,25;5,15;-12,92;14,56;40,78;13,45;12,16;0;0;
28591;-23,79;-44,92;-8,54;-7,77;13,19;46,63;11,43;11,47;0;0;
28615;-25,36;13,44;-18,95;-6,05;10,38;52,61;9,01;6,5;0;0;
28636;-24,05;-42,84;-44,83;-1,91;4,96;51,19;7,62;5,01;0;0;
28658;-14,14;-55,82;-53,28;-5,01;2,39;46,22;8,96;3,24;0;0;
28681;-28,27;-5,02;57,79;-10,06;2,67;28,65;19,82;2,75;0;0;
28706;-22,77;-20,18;-63,61;-4,58;2,35;20,78;22,23;2,61;0;0;
28729;-25,97;-53,46;-84,94;-3,75;2,34;17,11;27,08;2,76;0;0;
28747;-22,98;-29,36;-246,52;-1,67;2,35;12,43;38,37;2,85;1;0;
28774;-25,38;-43,57;-125,01;-3,1;2,2;11,37;50,4;3,36;1;0;
28796;-26,7;-42,65;151,58;-4,37;1,93;8,66;67,11;3,72;1;0;
28817;-24,48;-36,74;-71,82;-11,68;2,02;7,68;76,75;3,93;1;0;
28839;-24,69;-42,42;-227,27;-5,09;1,85;6,45;92,73;4,45;1;0;
28863;-25;-24,45;-64,43;-6,51;1,84;4,89;104,58;4,84;1;0;
28885;-27,68;-42,57;-270,26;2,68;1,86;4,9;110,83;5,98;0;0;
28919;-22,99;-31,08;275,58;2,13;1,95;4,94;129,18;6,34;0;0;
28941;-23,87;-36,41;-492,3;-13,02;1,73;5,62;132,91;6,16;0;0;
28963;-27,41;-32,23;35,85;-8,02;1,71;6,54;137,77;7,25;0;0;
28987;-28,12;-15,32;418,01;5,59;1,77;7,35;133,29;7,08;0;0;
29006;-24,87;-31,98;-340,4;5,89;1,96;7,7;151,2;6,9;0;0;
29034;-24,49;-24,17;-62,63;-11,83;1,68;8,35;151,99;6,26;0;0;
29054;-23,88;-32,86;86,34;-0,42;1,6;10,95;130,93;6,34;0;0;
29080;-21,09;-41,21;232,56;-19,47;2,32;11,58;118,04;6,11;0;0;
29102;-28,44;-63,84;-275,19;5,79;2,33;12,13;126,14;6,04;0;0;
29126;-23,23;-32,91;-67,86;-6,34;2,21;12,01;99,71;5,33;0;0;
29149;-27,9;-36,28;-21,56;-1,12;2,42;11,13;80,97;4,37;0;0;
29175;-26,82;0,06;-52,45;-8,02;2,79;10,65;70,49;3,98;0;0;
29200;-33,34;-85,33;1,46;-6,32;3,78;12,7;67,71;4,14;0;0;
29227;-56,14;-24,89;-9,97;-9,36;6,88;25,02;53,39;5;0;0;
29250;-45,04;36,8;-43,87;-3,23;10,05;42,4;45,81;7,98;0;0;
29275;-27,61;66,99;-15,62;-19,87;11,25;52,84;44,46;10,41;0;0;
29295;-26,15;-55,1;-7,99;13,76;12,11;66,99;41,94;11,66;0;0;
29321;-29,99;-332,24;-15,89;-4,96;13,42;82,22;32,33;12,74;0;0;
29346;-26,18;-2,08;95,2;-8,24;11,95;80,84;40,53;11,97;0;0;
29371;13,92;-118,08;-35,56;-4,45;11,69;78,94;36,99;12,12;0;0;
29391;-21,22;46,28;5,01;7,76;11,32;71,7;40,51;10,56;0;0;
29417;-24,27;-16,3;-33,4;-3,29;10,26;66,28;41,06;9,76;0;0;
29438;-20,44;99,78;-108,57;-35,16;9,14;60,22;38,74;10,2;0;0;
29460;-13,19;-7,64;20,44;-10,21;8,62;55,04;37,46;9,7;0;0;
29484;-32,86;-12,94;-46,74;-10,84;8,45;53,08;38,31;9,23;0;0;
29504;-43,83;49,84;-13,8;-6,5;6,65;44,18;26,68;8,83;0;0;
29529;-24,93;-89,31;-16,13;-11,58;8,15;45,67;23,99;8,91;0;0;
29549;-9,64;-73,28;-11,14;-9,37;8,97;46,62;20,76;8,89;0;0;
29573;-26,55;-33,38;-44,77;-4,96;9,31;38,88;26,51;7,56;0;0;
29592;-29,81;-6,29;-35,47;-8,4;9,49;35,66;23,19;6,77;0;0;
29616;-17,97;-97,61;-9,37;-14,85;8,97;36,34;18,81;6,75;0;0;
29635;-22,3;-48,08;-17,43;-6,7;7,97;31,56;18,86;7,59;0;0;
29656;-39,31;-48,86;-17,88;-5,7;8,6;29,14;18,27;5,61;0;0;
29685;-22,86;-19,69;-19,54;-7,82;8;30,19;13,68;4,91;0;0;
29708;-26,55;-22,54;-13,05;-3,2;7,16;29,48;5,25;4,94;0;0;
29731;-30,22;-12,95;-20,25;-7,85;6,74;28,56;2,77;4,7;0;0;
29755;-24,82;-54,43;-19,27;-5,03;6,28;24,91;2,34;3,27;0;0;
29777;-4,66;-18,86;-16,28;-6,86;6,86;24,49;1,9;2,15;0;0;
29796;-24,11;-39,87;-19,06;-4,93;5,2;19,06;1,71;2,34;0;0;
29820;-35,08;8,36;-18,7;-5,46;5,56;16,96;1,83;2,47;0;0;
29846;-21,84;-28,22;-13,46;-5,52;5,52;17,31;2,03;2,17;0;0;
29866;-23,74;-58,58;-15,12;-6,46;4,79;20,44;1,97;1,94;0;0;
29888;-21,82;-3,56;-19,48;-9,85;4,51;20,13;2,13;1,89;0;0;
29912;-21,2;-43,5;-15,1;-4,9;2,68;17,33;2,55;2,01;0;0;
29933;-28,15;-28,43;-15,6;-3,94;2,61;16,45;2,78;2,07;0;0;
29955;-22,99;-24,25;-13,14;-4,79;1,7;13,61;2,62;2,22;0;0;
29978;-24,2;-19,58;-16,71;-4,56;1,67;12,59;2,67;2,22;0;0;
30002;-21,9;-64,55;-12,34;-4,58;1,68;13,03;2,65;2,32;0;0;
30025;-27,46;-9,1;-20,81;-5,99;1,82;12,01;2,66;2,03;0;0;
30047;-23,26;-4,13;-15,26;-4,94;1,78;17,17;2,19;1,66;0;0;
30070;-23,48;-28,28;-15,6;-7,14;2,12;22,02;1,9;1,63;0;0;
30091;-21,89;0,84;-17,99;-6,15;2,17;28,42;1,74;1,48;0;0;
30119;-23,55;-62,04;-16,88;-10,54;2,09;27,88;1,62;1,46;0;0;
30140;-25,98;-33,36;-13,09;-8,34;1,95;28,05;1,65;1,86;0;0;
30168;-23,77;-16,29;-19,89;-9,14;1,76;22,75;1,79;2;0;0;
30187;-25,12;-40,05;-16,63;-4,58;1,61;21,15;1,87;2,23;0;0;
30208;-23,08;-33,22;-14,63;-3,34;1,71;15,37;2,14;2,29;0;0;
30231;-26,53;-41,24;-13,6;-11,97;1,78;13;2,42;2,52;0;0;
30250;-24,69;-34,86;-7,16;-7,06;1,79;9,43;2,96;2,4;0;0;
30275;-28,79;-38,24;-20,74;-6,95;1,51;6,75;3,69;2,08;0;0;
30296;-26,2;-44,18;-14,66;-8,76;1,6;3,76;4,12;1,99;0;0;
30327;-23,95;-35,65;-18,1;-6,99;1,43;3,26;4,11;1,96;0;0;
30345;-23,95;-35,65;-18,1;-6,99;1,28;3,29;3,84;1,88;0;0;
30372;-26,09;-36,03;-15,36;-3,28;1,28;3,25;3,77;1,76;0;0;
30391;-22,92;-36,34;-16,49;-6,72;1,33;3,28;2,81;1,94;0;0;
30415;-21,4;-34,3;-13,4;-8,39;1,41;3,29;2,35;2,22;0;0;
30435;-23,76;-38,84;-17,27;-8,14;1,33;3,06;2,06;2,23;0;0;
30457;-28,25;-37,81;-15,35;-6,52;1,66;2,87;2,22;2,17;0;0;
30482;-26,2;-38,69;-18,98;-6,68;1,73;2,89;2,17;2,42;0;0;
30501;-44,13;-44,77;-10,71;-6,41;1,89;2,91;2,02;2,56;0;0;
30523;2,26;-34,51;-14,33;8,02;3,19;3;2,05;3,44;0;0;
30543;-11,91;-32,32;-13,66;-49,33;10,8;2,94;2,25;6,35;0;0;
30567;-23,69;-39,83;-22,32;-24,24;13,47;2,95;2,41;10,2;0;0;
30587;-27,18;-32,96;-15,26;-8,34;13,93;2,95;2,47;10,4;0;0;
30610;-7,2;-33,2;-23,76;-53,24;14,98;3,14;2,53;13,48;0;0;
30635;54,98;-44,71;-13,66;-59,4;27,54;3,44;3,32;17,42;0;1;
30658;-72,21;-38,29;-2,61;0,71;35,59;3,25;4,59;21,45;0;1;
30682;48,79;-37,33;-19,55;30,8;41,77;3,8;5,01;22,88;0;1;
30703;44,35;-33,49;-17,74;-30,51;68,25;4,19;5,04;24,98;0;1;
30726;-0,37;-34,09;-14,66;33,11;88,07;4,6;5,43;30,81;0;1;
30747;-33,62;-37,82;-12,55;2,69;91,38;4,73;4,95;31,83;0;1;
30769;-50,31;-33,01;-6,15;-38,91;87,26;4,53;7,96;43,13;0;0;
30793;-177,06;-39,38;-22,03;61,21;101,82;5,1;8,18;54,05;0;0;
30821;121,93;-33,52;15,32;-75,65;105,73;5,45;12,03;54,32;0;0;
30854;-148,28;-26,27;5,59;-49,66;97,17;6,41;14,96;67,18;0;0;
30883;-33,92;-49,75;-24,88;-115,13;90,19;6,88;16,43;70,36;0;0;
30907;2,05;-6,37;-17,43;87,24;93,95;7,05;14,83;75,5;0;0;
30928;78,49;-55,17;4,87;-13,76;124,32;9,38;14,9;65,62;0;0;
30954;-23,13;-15,95;-13,57;24,73;111,8;9,71;13,83;59,85;0;0;
30980;-150,62;-49,66;-13,93;-20,53;121,38;9,69;11,75;60,72;0;0;
31002;-23,49;-47,92;-9,18;-85,15;125,17;10,04;9,57;47,1;0;0;
31026;-299,3;-47,97;-19,13;-18,16;147,55;11,47;8,82;43,7;0;0;
31049;-359,6;-45,7;-15,4;-5,96;138,48;11,11;8,7;34,77;0;0;
31074;-263,91;-39,12;-17,01;10,88;137,33;10,59;7,94;34,49;0;0;
31093;-63,89;-51,85;-16,21;-24,36;141,1;9,99;6,97;29,02;0;0;
31119;380,42;-50,27;-16,22;9,27;147,96;11,45;6,35;26,56;0;0;
31141;-84,72;-41,6;-11,61;13,31;136,68;10,41;6,1;24,48;0;0;
31168;10,8;-39,52;-18,2;-13,87;133,57;9,62;5,39;21,62;0;0;
31194;-61,83;-45,54;-12,41;36,32;149,17;10,5;4,68;20,68;0;0;
31219;-38,39;-35,49;-5,98;0,38;129,43;8,98;4,62;23,18;0;0;
31240;-15,92;-53,88;-22,62;-9,01;125,77;9,67;5,34;19,85;0;0;
31263;-27,35;-32,88;-17,09;-17,79;88,79;7,31;5,12;18,07;0;0;
31290;-20,08;-34,63;-18,06;-24,86;77;7,26;4,81;19,72;0;0;
31315;138,33;-32,31;-14,11;-17,37;64,45;5,71;4,81;18,91;0;0;
31334;-16,37;-35,28;-17,7;-7,56;30,51;5,73;4,09;16,45;0;0;
31357;-37,21;-37,98;-23,49;-25,48;24,09;5,74;3,47;16,39;0;0;
31379;-17,76;-49,18;-26,61;40,6;15,59;5,26;3,7;23,13;0;0;
31403;-20,5;-41,27;-15,23;-2,41;16,57;5,47;4,05;23,37;0;0;
31431;-174,07;-33,8;-13,11;12,66;21,24;5,72;4,16;21,22;0;0;
31456;-38,3;-38,39;-17,27;-8,8;18,97;5,87;4,37;21,35;0;0;
31479;-101,61;-45,53;-17,15;-9,95;37,3;6,32;4,33;18,93;0;0;
31498;-22,85;-27,03;-19,72;-4,87;37,22;6,43;4;15,53;0;0;
31524;-25,49;-37,08;-18,9;-6,56;36,6;6,56;3,3;8,9;0;0;
31545;-60,9;-46,77;-18,59;21,52;44,26;7,49;2,36;10,7;0;0;
31571;-31,87;-41,52;-13,73;9,12;41,19;7,82;1,94;10,66;0;0;
31591;-28,06;-27,76;-17,93;-9,14;42,8;7,5;1,81;10,66;0;0;
31617;4,86;-37,53;-16,76;-18,56;26,18;6,87;1,74;12,81;0;0;
31643;15,21;-43,43;-12,18;12,71;29,51;6,92;1,92;12,19;0;0;
31668;-16,09;-27,11;-21,44;-6,25;26,2;7,44;2,36;10,97;0;0;
31692;-25,38;-48,04;-17,04;-25,48;19,55;6,57;2,28;9,22;0;0;
31721;-29,1;-40,29;-17,28;-11,06;19,65;6,32;2,41;7,6;0;0;
31740;-17,2;-30,09;-16;-4;15,64;7,34;2,5;8,12;0;0;
31764;-43,69;-39,34;-12,93;1,38;10,34;7,1;2,51;6,27;0;0;
31789;-19,02;-37,11;-13,65;-6,36;8,75;5,08;2,03;6,75;0;0;
31813;-27,88;-31,76;-18,17;-10,28;6,9;5,04;1,92;5,4;0;0;
31834;-25,96;-38,92;-15,35;-4,24;6,24;4,59;1,96;3,56;0;0;
31858;-24,68;-27,81;-16,5;-9,14;5,62;4,64;1,76;3,64;0;0;
31881;-22,98;-22,64;-13,13;-5,82;3,47;5,13;1,78;2,81;0;0;
31900;-24,63;-31,46;-17,14;-9,89;2,61;5,44;1,6;2,19;0;0;
31926;-26,58;-41,6;-13,01;-4,47;2,14;5,29;1,82;2,13;0;0;
31952;-24,94;-37,76;-17,89;-8,36;1,56;5,13;1,63;2,37;0;0;
31977;-21,79;-40,86;-19,5;-5,88;1,46;5,19;1,82;2,76;0;0;
31997;-25,97;-38,41;-16,1;-7,4;1,59;4,04;1,7;2,77;0;0;
32022;-22,47;-36,87;-11,97;-5,86;1,89;4,22;1,67;2,85;0;0;
32041;-26,67;-32,62;-13,62;-3,72;2,04;4,61;1,6;2,58;0;0;
32066;-23,41;-54,53;-17,11;-9,38;2,12;6,55;1,85;2,28;0;0;
32086;-22,57;-34,57;-14,99;-5,9;2,38;7,62;1,78;1,54;0;0;
32114;-26,93;-42,23;-16,81;-10,6;2,2;7,6;1,72;1,59;0;0;
32134;-26,37;-37,94;-17,65;-9,08;2,02;7,4;1,82;1,59;0;0;
32158;-23,84;-31,51;-10,22;-6,14;1,97;7,38;2,05;1,54;0;0;
32182;-24,85;-35,44;-17,49;-6,92;1,79;6,02;1,89;1,57;0;0;
32202;-24,68;-36,35;-14,68;-3,8;1,88;4,94;1,78;1,53;0;0;
32227;-21,63;-29,9;-19,3;-3,26;1,68;4,5;1,89;1,54;0;0;
32251;-23,55;-36,56;-16,16;-11,75;1,76;4,42;1,86;1,6;0;0;
32280;-25,11;-36,34;-16,4;-7,89;1,67;4,52;1,84;1,73;0;0;
32299;-26,46;-36,92;-15,89;-3,96;1,71;4,3;1,67;2,17;0;0;
32326;-26,47;-36,99;-14,29;-6,85;1,59;4,12;1,71;2,18;0;0;
32345;-26,47;-36,99;-14,29;-6,85;1,54;3,87;1,72;2,21;0;0;
32374;-25,44;-35,89;-18,62;-6,7;1,37;4,92;1,94;2,17;0;0;
32395;-21,45;-38,04;-14,34;-4,18;1,34;4,42;1,95;2,07;0;0;
32416;-24,45;-32,77;-16,88;-10,2;1,37;4,24;1,87;2;0;0;
32444;-25,96;-34,86;-17,98;-4,99;1,35;4,19;1,94;2,02;0;0;
32471;-22,8;-36,65;-15,28;-9,56;1,44;4,02;1,78;1,88;0;0;
32488;-23,55;-37,6;-16,41;-8,11;1,48;2,91;1,74;1,86;0;0;
32510;-23,38;-35,61;-12,84;-5,93;1,67;2,63;1,79;1,79;1;0;
32529;-26,26;-37,64;-17,43;-7,22;1,69;2,72;1,84;1,91;1;0;
32555;-22,41;-35,22;-26,82;-6,38;1,67;2,64;2,63;1,56;1;0;
32576;-24,68;-45;-7,09;-5,67;1,84;3,01;3,24;1,62;1;0;
32599;-26,32;-33,41;-16,3;-10,59;1,8;3,11;3,44;1,87;1;0;
32626;-22,66;-31,66;-16,25;-5,33;1,86;3,26;3,55;1,63;1;0;
32644;-22,66;-31,66;-16,25;-5,33;1,86;3,71;3,46;1,62;1;0;
32670;-23,38;-25,81;-14,78;-2,83;2,01;3,59;3,34;1,61;1;0;
32691;-20,85;-38,49;-15,95;-7,88;2,12;4,18;2,33;1,62;1;0;
32713;-24,56;-39,18;-18,19;-5,62;1,92;4,11;1,92;1,57;1;0;
32739;-23,79;-42,68;-14,35;-6,2;1,73;4,63;1,69;1,65;1;0;
32769;-20,77;-29,95;50,68;-4,61;1,89;5,98;5,9;1,86;1;0;
32789;-21,82;-36,71;-38,98;-12,12;1,84;6,31;17,23;1,94;1;0;
32812;-22,26;-31,61;107,24;-2,04;2,19;6,86;27,93;2,11;1;0;
32841;-25,38;-60,31;117,87;-4,57;2,82;8,76;45,64;3,02;1;0;
32865;-40,31;-36,22;122,77;-0,11;4,34;13,79;64,73;3,56;0;0;
32886;-27,45;-70,37;143,02;-1,52;4,97;18,51;92,59;4,02;0;0;
32910;-28,58;-79,2;-323,3;-2,79;5,85;32,3;113,21;4,57;0;0;
32937;-36,75;-50,57;84,26;-9,81;7,66;51,74;136,88;6,07;0;0;
32961;-24,05;10,05;-213,62;-8;7,29;54,44;140,38;7,06;0;0;
32985;-21,55;-18,73;76,11;-6,71;8,55;61,43;151,24;6,65;0;0;
33012;-27,01;-34,64;85,7;-12,08;7,76;60,85;165,14;6,99;0;0;
33033;-17,41;-91,63;282,58;16,19;7,41;54,77;169,01;6,93;0;0;
33058;-27,92;-15,19;100,73;-12,01;6,79;40,19;150,14;6,22;0;0;
33082;-26,88;-31,45;131,31;-10,44;5,66;32,3;153,04;5,12;0;0;
33107;-14,39;-45,46;259,49;0,9;5,25;32,94;151,24;4,92;0;0;
33128;-21,71;-34,88;-32;-9,94;3,88;23,58;119;4,66;0;0;
33150;-22,93;-31,6;-6,74;-2,61;3,87;23,25;95,8;4,16;0;0;
33170;-29,14;-44,35;-58,03;-5,56;3,42;19,38;66,4;3,78;0;0;
33192;-29,7;-58,32;-15,53;4,78;3,3;18,1;50,93;4,62;0;0;
33214;-20,18;-5,56;137,51;-46,51;3,58;22,93;34,1;10,76;0;0;
33235;-37,88;5,63;-7,32;-19,91;4,21;32,65;21,6;15,09;0;0;
33266;-24,58;-84,24;-59,8;-2,02;4,48;38,91;28,23;15,49;0;0;
33288;-32,78;20,89;23,89;-11,03;5,95;49,64;33,11;16,08;0;0;
33310;-21,59;-42,75;-25,64;-3,78;6,37;49,3;33,07;16,58;0;0;
33331;-29,55;16,08;-58,99;-35,83;6,84;52,92;35,38;13,27;0;0;
33357;-20,73;-19,64;-55,52;-16,77;8,15;46,11;26,92;9,68;0;0;
33379;-4,1;-35,71;-63,63;-6,11;8,75;36,31;24,56;6,55;0;0;
33401;-20,84;-38,87;-2,96;-13,82;8,73;25,21;19,24;7,55;0;0;
33430;-26,4;-23,06;-18,14;-22,96;7,82;18,16;14,98;10,76;0;0;
33449;-23,76;-48,93;-15,34;-7,4;7,32;18,66;12,83;10,33;0;0;
33476;-28,04;-41,07;-19,29;-7,42;6,85;15,95;9,66;8,87;0;0;
33497;-25,56;-57,58;-19,95;-7,27;4,47;16,68;8,28;7,75;0;0;
33520;-21,47;-42,98;-15,78;-4,34;3,54;17,88;3,05;7;0;0;
33537;-25,5;-36,1;-21,36;-6,07;2,8;17,25;2,01;3,33;0;0;
33562;-22,37;-8,57;-13,33;-8,17;2,48;15,34;2,18;1,58;0;0;
33591;-22,08;-44,63;-21,05;-8,39;2,46;15,6;2,08;1,8;0;0;
33615;-23,86;-32,14;-17,75;-9,66;2,08;13,66;2,05;3,99;0;0;
33635;-27,01;-44,96;-14,22;-4,98;1,8;10,92;1,99;4,15;0;0;
33659;-20,84;-46,5;-16,02;-6,07;1,85;11,54;1,7;4,22;0;0;
33679;-25,01;-32,59;-17,9;-2,38;2,06;9,57;1,51;4,16;0;0;
33701;-22,66;-35,47;-18,07;-7,77;1,85;7,06;1,59;2,99;0;0;
33726;-22,3;-36,38;-14,38;-4,82;2,01;6,48;1,6;1,92;0;0;
33750;-23,51;-35,49;-17,59;1,41;1,96;5,38;1,88;1,83;0;0;
33776;-26,47;-42,1;-16,49;-3,8;1,91;4,72;1,88;2,07;0;0;
33798;-24,23;-41,2;-17,44;-7,61;1,76;4,27;1,82;1,95;0;0;
33824;-20,11;-41,18;-14,61;-18,15;2,74;3,31;1,9;3,27;0;0;
33841;-27,42;-36,32;-16,47;-4,72;2,93;2,68;2,09;3,71;0;0;
33869;-22,34;-37,24;-16,08;-0,12;2,96;2,82;1,84;3,98;0;0;
33888;-26,6;-35,51;-14,58;-6,13;2,9;2,51;1,92;3,88;0;0;
33917;-18,1;-42,36;-15,85;-2,5;5,4;2,75;2,04;4,17;0;0;
33936;-22,2;-36,1;-18,64;-7,82;4,52;2,57;2,13;3,87;0;0;
33957;-18,37;-40,71;-12,42;-5,04;5,54;2,66;2,12;2,71;0;0;
33979;-31,29;-33,84;-19,82;-7,11;6,06;2,86;2,16;2,4;0;0;
34000;-88,67;-32,26;-31,23;-10,55;11,59;3,01;2,4;2,24;0;0;
34027;-55,84;-36,95;-16,84;-6,02;17,33;3,23;2,77;2,48;0;0;
34048;-29,57;-42,84;-7,63;-6,56;16,32;2,97;4,68;2,07;0;0;
34073;-22,74;-38,79;-16,52;-12,06;19,03;3,04;4,66;2,23;0;0;
34093;-19,72;-36,25;-20,18;-9,28;18,94;2,88;4,79;2,31;0;0;
34115;37,33;-38,29;-14,26;-3,96;19,79;2,58;4,76;2,56;0;0;
34135;-28,3;-42,24;-16,1;-3,58;14,51;2,17;3,98;2,57;0;0;
34156;-23,02;-42,35;-14,02;-10,79;11,83;2,33;3,06;2,56;0;0;
34182;-16,31;-38,08;-16,77;-5,5;10,51;2,44;2,03;2,61;0;0;
34201;-23,38;-38,33;-17,23;-8,78;8,01;2,53;1,93;2,34;0;0;
34230;-24,13;-38,75;-14,03;-5,72;5,54;2,75;1,87;2,22;0;0;
34248;-22,8;-36;-15,15;-8,4;2,36;2,92;1,76;2,02;0;0;
34274;-24,49;-34,8;-16,52;-4,71;1,9;2,89;1,86;1,81;0;0;
34310;-21,04;-39,06;-14,57;-8,02;3,99;2,85;2,01;1,72;0;0;
34341;-19,71;-34,4;-15,83;-0,96;4,11;2,75;2,08;1,69;0;0;
34369;72,22;-37,97;-17,75;0,5;9,97;2,7;1,98;1,8;0;0;
34400;4,22;-33,64;-14,33;-15,4;12,27;2,72;2,08;2,33;0;0;
34433;-24,92;-35,82;-16,15;-5,78;13,45;2,74;1,95;2,65;0;1;
34459;-39,36;-41,36;-15,89;-11,47;13,14;2,96;1,64;3,24;0;1;
34483;-22,01;-40,48;-15,83;-5,71;13,5;2,82;1,54;3,7;0;1;
34512;-15,96;-38,33;-16,17;-6,9;9,98;2,76;1,49;3,53;0;1;
34540;-19,92;-34,27;-13,3;-6,33;9,51;2,63;1,68;3,36;0;1;
34571;-26,99;-39,16;-20,7;-14,29;9,75;2,29;1,85;2,88;0;1;
34594;-14,66;-34,49;-16,79;-1,45;9,88;2,25;2,01;3,07;0;1;
34618;-13,81;-37,32;-21,92;1,27;8,16;2,48;2,4;3,69;0;1;
34640;-26,13;-43,7;-14,77;-6,29;7,9;2,66;2,51;4,27;0;1;
34664;-24,01;-39,15;-18,46;-0,5;6,25;2,69;2,59;5,32;0;1;
34687;-25,58;-35,22;-17,23;-44,77;6,48;2,73;2,57;9,19;0;1;
34711;-20,92;-38,2;-12,28;-31,38;6,89;2,81;2,92;10,91;0;1;
34736;-74,1;-32,68;-35,47;8,64;9,89;2,84;3,53;16,88;0;1;
34754;74,6;-47,35;1,85;36,44;16,72;3,24;5,21;21,78;0;1;
34776;-97,84;-41,85;-16,7;57,54;25,15;3,47;6,78;31,54;0;1;
34796;-171,92;-33,96;0,14;64,61;47,89;4,05;8,18;36,66;0;0;
34827;9,96;-38,74;-48,19;57,22;61,02;5,38;10,55;48,01;0;0;
34849;-65,78;-22,14;-8,11;64;84,31;7,16;12,17;59,73;0;0;
34877;-448,97;-61,47;15,09;205,08;96,63;9,09;13,97;68,55;0;0;
34905;-366,4;-46,22;-17,29;17,05;138,42;11,51;15,61;74,19;0;0;
34928;-149,19;-63,79;-34,73;-23,59;152,16;15,05;16,86;69,29;0;0;
34950;458,08;-24,46;-9,48;-11,98;185,46;15,43;15,01;62,49;0;0;
34979;336,36;-24,9;-21,24;-14,57;197,85;16,83;14,04;53,76;0;0;
34999;258,28;8,24;-21,27;-3,24;212,9;17,36;11,91;39,08;0;0;
35021;6,02;-36,25;-34,47;-21,33;177,62;15,88;5,68;15,42;0;0;
35042;141,21;-20,79;-21,94;-24,63;167,44;15,01;5,29;13,56;0;0;
35069;-129,77;-63,43;-14,19;-2,98;140,07;13,97;4,5;10,15;0;0;
35091;150,97;21,56;-16,3;37,08;128,26;13,26;4,51;10,79;0;0;
35113;438,55;-26,3;-38,48;1,77;115,42;10,17;5,14;11,85;0;0;
35133;-235,24;-26,6;-26,35;-15,55;110,41;9,49;5,65;10,32;0;0;
35158;-27,9;-36,98;-20,21;-6,33;90,83;8,21;6,37;8,96;1;0;
35180;-19,37;-33,34;-10,55;1,03;73,96;6,7;5,91;8,84;1;0;
35203;-28,9;-39,3;-17,01;-1,72;50,62;5,11;5,59;10,04;1;0;
35232;-89,41;-22,77;-13,5;-5,2;49,94;6,64;5,3;8,2;1;0;
35252;-14,44;-25,22;-17,79;-19,38;40,03;7,87;3,94;6,33;1;0;
35273;-44,01;-45,4;-16,48;-9,14;38,2;13,38;2,13;6,25;1;0;
35294;-78,47;-111,5;-16,58;-9,89;38,97;18,57;2,15;8,93;1;0;
35320;-11,97;8,25;-16,29;-9;41,6;26,18;2,27;7,55;1;0;
35339;56,13;-157,55;-29,89;-2,03;44,74;37,17;3,5;6,82;1;0;
35364;-18,88;51,62;-2,98;-15,52;41,29;43,22;6,77;7,27;1;0;
35390;-31,93;-19,17;7,17;-1,85;42,81;44,83;12,27;6,8;1;0;
35413;-21,75;-52,91;-111,73;-8,34;37;47,55;15,36;4,89;1;0;
35434;-13,86;-24,68;34,83;-9,04;36,53;46,56;22,52;3,13;1;0;
35456;20,71;9,29;-34,57;-5,4;47,24;53,53;26,37;2,28;1;0;
35479;-16,55;-37,03;-16,57;-6,41;42,47;48,21;27,25;2,39;1;0;
35499;-21,19;-27,83;-58,57;-7,04;36,79;45,82;33,7;2,24;1;0;
35525;-13,16;-24,1;-75,76;-12,68;32,8;43,46;50,99;2,39;0;0;
35551;-29,81;-78,89;104,14;-5,69;28,22;39,09;67,36;3,42;0;0;
35574;-28,43;-24,71;539,25;9,28;25,57;33,55;97,24;4,16;0;0;
35595;-19,82;-37,73;-160,24;-12,15;8,49;16,97;117,83;4,93;0;0;
35621;-26,64;-38,49;51,35;-3,22;8,26;11,83;133,78;5,22;0;0;
35640;-23,16;-30,95;-157,9;-0,99;4,9;9,55;136,23;6,09;0;0;
35662;-29,47;-28,22;-19,02;-7,13;3,79;10,26;126,05;6,39;0;0;
35684;-20,62;-61,5;109,43;-6,89;3,05;8,46;140,03;6,31;0;0;
35713;-42,4;0,65;-18,34;-12,46;3,91;12,34;130,12;6,05;0;0;
35736;36,26;-63,23;-242,03;1,11;8,16;22,37;128,79;6,76;0;0;
35762;-14,08;-40,54;-70,73;-8,43;10,18;27,49;133,82;6,65;0;0;
35786;-24,14;-9,03;82,65;-0,65;10,38;31,16;140,45;6,38;0;0;
35806;-12,8;-83,45;-175,1;-0,55;11,28;31,85;135,11;5,55;0;0;
35828;-27,5;51,73;9,81;-7,31;13,04;37,94;97,89;4,34;0;0;
35852;-19,65;-2,6;-53,07;-6,03;11,13;31,81;83,27;4,01;0;0;
35882;-23,97;22,52;-32,89;-7,7;8,08;29,15;58,85;5,64;0;0;
35901;-24,58;-16,71;64,68;26,96;7,59;32,69;48,3;7,89;0;0;
35927;-26,2;-33,84;-40,56;-22,83;7,37;30,02;31,25;13,78;0;0;
35946;-20,49;-30,18;-30,21;-23,11;5,19;27,62;31,72;15,31;0;0;
35966;-25,87;26,04;-30,08;92,77;5,16;29,11;28,78;19,47;0;0;
35988;-26,25;-52,14;-18,74;-12,16;4,59;26,91;27,45;24,91;0;0;
36014;-29,77;-22,81;-6,35;-24,52;4,96;23,55;31,9;24,57;0;0;
36034;-33,77;-33,51;-171,51;3,26;5,38;21,35;33,27;17,86;0;0;
36057;-13,27;-58,86;-23,07;8,96;5,93;26,12;27,62;23,18;0;0;
36079;-21,84;-107,11;-13,31;-23,25;6,59;29,4;20,58;28,67;0;0;
36098;-49,78;-72,82;-23,76;-3,41;7,91;32,52;21,47;24,58;0;0;
36124;12,96;-54,24;0,22;-6,06;10,62;34,49;21,84;20,06;0;0;
36141;-7,28;-62,56;-19,3;-5,91;18,07;36,35;16,31;19,1;0;0;
36166;94,83;-65,63;-20,98;-3,11;23,52;37,55;9,39;17,07;0;0;
36191;-25,77;-80,57;-10,31;-6,26;22,99;33,97;8,59;6,07;0;0;
36212;-19,57;-18,37;-16,93;-6,89;22,89;27,76;7,38;3,59;0;0;
36232;-16,58;-49,01;-14,47;-4,06;25,56;24,4;4,2;3,1;0;0;
36256;-63,5;-61,31;-20,22;-9,48;34,05;23,2;3,1;3,37;0;0;
36277;-44,26;-4,45;-15;-14,51;39,02;19,59;2,52;3,56;0;0;
36298;-13,01;-26,57;-20,55;-15,87;34,34;15,82;2,18;4,36;0;0;
36324;12,74;-0,06;-18,54;16;35,8;17,02;2,27;8,17;0;0;
36350;-36,93;-57,04;-21,53;-10,01;36,92;19,05;2,19;10,43;0;1;
36371;-36,49;-11,53;-14,89;-45,62;37,58;20,16;3,21;16,15;0;1;
36394;-21,06;-48,79;-18,1;105,85;32,51;17,21;4,1;26,74;0;1;
36419;-36,47;-35,68;-9,27;-41,78;25,94;17,07;5,94;31,12;0;1;
36438;-116,66;-63,58;-26,68;-42,45;29,6;19,18;7,87;39,42;0;0;
36463;-46,99;-35,04;2,71;-17,94;30,49;17,1;8,82;51,03;0;0;
36485;-71;-43,94;-9,73;-9,15;36,19;15,78;10,34;62,86;0;0;
36515;-36,71;-24,85;-14,11;66,01;39,83;14,79;10,99;64,89;0;0;
36541;-89,72;-50,38;-27,81;195,04;40,46;15,64;11,56;70,3;0;0;
36567;-84,08;-37,77;-20,54;43,9;54,23;12,87;11,64;67,84;0;0;
36587;-134,25;-37,96;-5,8;-41,17;61,88;8,04;11,75;59,61;0;0;
36614;28,38;-43,25;-36,88;-11,34;57,77;6,85;11,75;45,74;0;0;
36637;-176,24;-39,85;-21,33;-18,6;60,3;6,43;13,07;40,92;0;0;
36664;-279,76;-53,6;-24,04;95,78;71,51;6,12;10,97;38,76;0;0;
36683;18,5;-32,38;-29,01;88,37;71,34;6,45;9,79;39,07;0;0;
36708;241,08;-12,94;-12,7;1,06;89,23;6,76;8,94;39,93;0;0;
36731;826,91;-5,05;2,58;-19,03;119,06;8,16;7,81;34,45;0;0;
36752;168,41;-34,11;-31,86;21,68;136,2;9,11;6,87;31,96;0;0;
36783;129,54;-53,16;-11,08;-4,92;154,49;10,42;5,73;32,76;0;0;
36803;89,43;-64,78;-12,33;-8,51;175,15;11,5;5,35;24,09;0;0;
36829;156,47;23,78;-15,83;-14,3;184,26;13,14;4,99;19,35;0;0;
36857;-288,27;-38,56;-35,17;-16,33;183,1;13,8;6,19;17,65;0;0;
36879;65,25;-50,55;-0,55;-22,95;155,18;12,49;7,22;16,77;0;0;
36902;-61,31;-44,98;-55,33;-31,5;167,76;14,22;8,44;13,21;0;0;
36925;5,37;-37,83;-17,65;-12,58;143,94;13,38;10,52;10,25;0;0;
36946;161,77;-67,71;-24,15;-14,65;133,71;14,14;12,62;8,71;0;0;
36971;407,65;1,5;-25,43;-33,72;129,76;13,08;13,13;8,87;0;0;
36993;-13,5;-37,39;-16,09;-6,57;125,91;14,46;12,41;8,23;0;0;
37017;-13,5;-37,39;-16,09;-6,57;105,55;14,77;9,8;6,77;0;0;
37041;-109,01;-41,85;-19,47;-21;101,77;13,87;7,28;6,5;0;0;
37061;-126,18;-31,33;-18,68;-28,54;101,15;13,18;6,42;7,56;0;0;
37081;-41,36;-39,08;-9,75;-5,61;84,04;10,72;4,39;7,81;0;0;
37104;-17,59;-53,38;-19,44;-9,57;89,43;11,38;3,43;6,31;0;0;
37126;-11,14;-30,12;-17,4;-5,46;75,6;9,25;2,95;6,51;0;0;
37149;-28,73;-39,17;-11,09;-1,94;64,11;8,7;2,61;6,95;0;0;
37174;-7,74;-29,07;-19,25;31,84;53,85;8,38;2,64;7,81;0;0;
37192;-10,92;-39,54;-14,17;-16,28;39,07;7,74;2,2;10,32;0;0;
37215;-24,24;-38,29;-17,41;8,28;40,26;7,77;1,8;11,39;0;0;
37238;-4,83;-38,96;-17,55;-10,09;27,04;4,73;1,77;13,78;0;0;
37258;-36,79;-37,39;-16,79;-13,75;27,77;4,29;1,92;15,37;0;0;
37277;23,02;-41,25;-14,26;-2,59;29,01;4,78;2,01;14,52;0;0;
37304;-42,19;-65,89;-17,63;-7,05;33,61;6,98;1,91;9,61;0;0;
37326;52,4;-27,65;-15,51;-8,82;28,67;9,84;1,86;8,07;0;0;
37346;-24,12;-51,78;-18,83;-8,03;28,85;11,94;1,85;5,57;0;0;
37371;2,3;-7,25;-16,37;-10,15;32,24;15,3;1,55;2,4;0;0;
37391;-54,2;-68,41;-20,75;-7,4;32,53;16,98;1,57;1,65;0;0;
37414;94,88;-48,16;-13,58;-7,37;30,26;19,06;1,81;1,48;0;0;
37440;-53,27;-27,65;-18,03;-6,38;27,71;16,71;1,68;1,51;0;0;
37468;-28,9;-47,59;-17,58;-6,71;22,63;18,05;1,75;1,48;0;0;
37487;-27,45;-43,85;-18,04;-4,35;21,4;15,58;1,8;1,39;0;0;
37513;-62,36;-45,64;-15,64;-8,77;30,55;15,55;1,97;1,37;0;0;
37531;-25,15;-39,57;-17,44;-5,94;28,93;13,08;1,9;1,28;0;0;
37551;-27,74;-53,59;-14,9;-6,57;25,16;13,67;1,86;1,29;0;0;
37576;-21,95;-37,75;-15,42;-2,63;20,17;11,23;1,93;1,4;0;0;
37596;-25,24;-31,51;-13,3;-6,88;19,83;10,58;2,02;1,65;0;0;
37622;-20,45;-45,58;-15;-8,42;3,52;8,52;1,9;1,65;0;0;
37641;-23,28;-43,02;-15,4;-6,58;3,44;6,91;1,85;1,76;0;0;
37664;-26,02;-40,29;-11,97;-5,87;3,16;5,69;1,85;1,79;0;0;
37682;-21,82;-31,41;-21,48;-4,5;2,4;5,91;1,91;1,6;0;0;
37706;-21,02;-55,94;-14,05;-6,07;2,45;6,62;1,84;1,54;0;0;
37727;-22,99;-37,71;-18,51;-7,32;2,42;7,32;1,82;1,5;0;0;
37749;-19,28;-32,64;-19,7;-6,57;2,28;6,97;1,81;1,4;0;0;
37777;-21,58;-38,99;-20,45;-5,47;2,67;7,26;1,9;1,49;0;0;
37802;-31,13;-30,41;-15,39;-6,67;2,6;9,37;1,71;1,56;0;0;
37823;-25,35;-34,24;-16,79;-7,33;2,62;8,84;1,64;1,56;0;0;
37843;-28,64;-39,37;-20,18;-4,94;2,55;7,07;1,69;1,72;0;0;
37867;-24,15;-41,23;-12,69;-6,41;2,18;6,56;1,88;1,79;0;0;
37886;-25,23;-27,14;-16,28;-7,83;1,95;6,05;2,02;1,82;0;0;
37913;-24,12;-20,49;-19,5;-5,81;1,73;6,34;2,05;1,8;0;0;
37937;-23,78;-28,32;-20,18;-7,3;1,5;5,56;2,15;1,84;0;0;
37957;-22,98;-36,12;-11,67;-5,6;1,41;5,51;2,34;1,8;0;0;
37983;-25,4;-38,78;-15,97;-5,14;1,62;6,17;2,34;1,8;0;0;
38000;-18,84;-34,05;-16,69;-6,31;1,67;7,1;2,04;1,69;0;0;
38025;-25,89;-35,16;-14,43;-5,89;1,62;6,91;1,93;1,45;0;0;
38045;-21,82;-45,32;-17,16;-7,06;1,59;5,85;2,01;1,55;0;0;
38068;-20,19;-57,75;-19,82;-5,32;1,69;6,14;2,13;1,6;0;0;
38093;-22,25;-26,58;-15,89;-4,82;1,71;7,47;1,93;1,57;0;0;
38116;-26,21;-42,46;-13,72;-4,41;1,55;6,86;1,91;1,62;0;0;
38134;-24,32;-42,9;-18,09;-5,96;1,49;7,13;1,98;1,8;0;0;
38155;-27,77;-31,73;-16,09;-7,04;1,77;7,57;1,91;1,84;1;0;
38176;-22,79;-38,74;-19,97;-10,89;1,66;7,23;1,81;2,19;1;0;
38195;-23,49;-35,09;-12,8;-18,05;1,63;5,63;1,75;3,69;1;0;
38222;-25,01;-35,51;-13,51;-3,69;1,73;4,97;2,02;3,87;1;0;
38247;-25,47;-36,61;-15,93;-10,12;1,83;4,55;2,03;4,07;1;0;
38269;-22,98;-45,03;-15,61;-8,03;1,82;4,61;2,13;4,07;1;0;
38292;-22,84;-36,3;-11,27;-6,22;1,62;3,8;2,24;4,19;1;0;
38319;-24,69;-34,32;-18,82;-8,19;1,7;4,92;2,17;2,75;1;0;
38337;-21,64;-33,57;-17,91;-8,22;1,83;5,54;1,8;1,94;1;0;
38358;-27,21;-33,68;-15;-7,54;1,89;5,21;1,7;1,61;1;0;
38382;-20,53;-56,44;-17,35;-5,68;2,03;5,49;1,79;1,49;1;0;
38405;-24,13;-34,48;-32,69;-3,94;2,17;6,38;2,93;1,32;1;0;
38430;-25,9;-42,78;-54,28;-6,8;2,87;8,41;9,96;1,66;1;0;
38448;-20,1;-122,74;-4,13;-8,73;3,19;12,77;15,61;2,02;1;0;
38470;-31,33;-61,52;-41,74;-6,12;3,84;21,8;30,42;2,17;1;0;
38494;-25,25;-8,73;-161,27;-4,6;4,04;26,43;42,48;2,46;1;0;
38520;-11,68;-87,9;89,49;-8,63;4,9;33,02;59,19;2,72;0;0;
38539;7,83;-89,29;13,85;4,28;5,27;43,53;74,42;2,99;0;0;
38568;-20,33;-1,75;397,61;-6,78;5,57;51,13;100,9;3,69;0;0;
38589;-38,73;-173,93;331,34;-1,98;6,38;52,53;123,68;4,46;0;0;
38616;-24,69;14,17;-59,05;-1,14;6,82;54,11;132,37;5;0;0;
38639;-24,07;-64,24;45,57;-4,25;6,38;52,27;144,09;5,36;0;0;
38666;-23,37;-27,44;74,1;1,4;6,73;45,82;151,86;5,82;0;0;
38694;-28,22;-28,1;-162,57;-5,7;5,76;40,29;150,56;5,45;0;0;
38721;-24,3;-59,82;-70,46;-7,15;5,22;36,49;147,39;5,18;0;0;
38745;-21,49;-51,34;-3,47;-2,79;4,41;32,62;130,79;4,76;0;0;
38771;-26,22;9,13;-104,1;-10,76;5,04;35,23;137,24;4,3;0;0;
38790;-27,4;-51,74;68,61;-9,43;4,92;38,06;118,88;3,88;0;0;
38812;-23,31;-41,82;-84,94;-8,34;5,53;38,91;103,14;3,58;0;0;
38831;-24,98;-12,43;-37,06;-7,66;6,82;37,84;88,52;4,09;0;0;
38851;-37,57;-47,43;-2,95;-25,95;10,92;35,72;59,9;4,5;0;0;
38880;-67,05;-29,44;-16,49;-1,95;24,83;28,5;50,18;5,9;0;0;
38902;-18,88;-84,84;-36,09;-1,5;24,11;28,42;43,3;6,76;0;0;
38925;9,79;16,38;-17,01;18,52;28,21;28,39;42,04;7,67;1;0;
38945;-24,63;-49,21;-95,94;-15;27,19;26,99;28,59;9,65;1;0;
38968;-52,41;-41,96;-17,83;-22,26;25,49;24,17;28,88;10,24;1;0;
38987;-24,16;-27,43;-68,17;-15,26;11,25;22,15;38,11;9,24;1;0;
39014;-23,86;-25,61;-11,92;18,33;8,53;20,1;30,82;8,25;1;0;
39036;-20,78;-37,72;-16,46;-0,38;6,27;10,55;23,91;9,44;1;0;
39059;-20,46;-42,62;-12,74;-1,23;3,49;7,83;20,4;9,62;1;0;
39080;5,37;-29,96;-51,31;-13,05;4,99;7,04;29,51;7,91;1;0;
39099;-23,5;-35,06;-138,75;-24,72;4,09;7,86;60,83;7,57;1;0;
39127;-25,38;-30,42;-175,76;5,78;3,96;7,57;68,27;7,97;1;0;
39148;-23,88;-53,46;28,9;-7,2;4,1;8,56;77,46;6,36;1;0;
39172;-15,81;-28,96;10,56;-18,5;5,88;8,95;110,53;6,14;1;0;
39192;-20,77;-24,89;59,78;-4,69;5,65;10,63;115,96;5,07;1;0;
39213;-28,43;-45,01;-106,97;-5,5;3,84;10,08;102,02;4,99;1;0;
39237;-20,83;-39,6;-401,54;-9,14;3,99;9,33;103,81;4;1;0;
39255;-20,72;-38,14;189,88;12,19;3,87;9,14;121,82;5,26;1;0;
39280;-24,71;-44,39;8,57;-18,52;3,33;10,17;128,53;5,96;0;0;
39303;-26,91;-45,71;122,68;-9,52;1,93;9,88;135;5,93;0;0;
39327;-23,52;-38,44;-102,13;7,52;2,02;7,84;146,55;7,03;0;0;
39353;-24,14;-45,7;11,88;-17,07;1,74;7,94;152,21;7,37;0;0;
39380;-24,41;-35,75;267,33;-24,17;1,51;6,94;159,66;7,98;0;0;
39403;-21,43;-57,7;-89,75;2,35;1,46;6,84;144,04;7,86;0;0;
39428;-12,86;-63,9;98,69;-3,45;2,32;9,62;135,63;6,86;0;0;
39448;-9;-86,87;-107,56;-5,32;3,03;13,44;123,97;5,84;0;0;
39470;-74,53;107,06;-20,23;-3,28;4,7;23,35;97,17;5,42;0;0;
39491;-31,52;57,6;117,43;-24,34;8,7;39,4;80,4;5,71;0;0;
39519;-27,01;-56,63;146,39;-19,75;9,84;50,46;70,15;5,2;0;0;
39543;-30,61;-3,55;-2,83;-5,52;10,08;52,93;58,2;4,43;0;0;
39567;-51,64;31,11;-19,26;-4,26;10,49;67,67;39,76;5,42;0;0;
39588;-24,05;-78,32;-101,47;2,93;10,68;76,72;36,02;5,95;0;0;
39612;-21,76;-158,27;-21,37;19,66;7,19;69,99;36,48;7,72;0;0;
39631;-22,52;-78,49;-38,55;-22,09;7,36;63,27;23,25;7,9;0;0;
39656;-29,58;-74,69;-21,36;-19,32;7,22;64,97;10,94;10,68;0;0;
39684;-31,43;-30,39;-17,61;-62,66;7,51;54,07;11,48;13,11;0;0;
39704;-40,59;25,04;54,88;-22,42;7,97;47,37;19,98;13,23;0;0;
39728;-23,01;-54,85;-35,13;-7,91;7,29;41,23;23,09;12,8;0;0;
39746;-33,77;18,8;-69,08;-7,06;7,14;36,38;27,18;10,95;0;0;
39770;-31,67;-62,95;-138,36;-2,87;6,97;35,94;29,16;8,08;0;0;
39788;-16,22;-94,53;35,72;-4,11;8,67;41,26;40,63;7;0;0;
39812;-23,86;-29,38;278,22;24,71;8,1;37,38;64,16;5,94;0;0;
39838;-19,14;-44,91;-279,5;-8,79;8,94;38,87;67,1;5,89;0;0;
39856;-29,79;-10,99;-46,37;-2,93;9,31;37,95;91,2;6,52;0;0;
39880;-18,75;-18,29;588,88;-4,4;8,83;35,57;119,78;6,51;0;0;
39898;-20,13;-68,97;-41,64;0,83;7,82;37,44;145,19;7,31;0;0;
39922;-17,07;-40,31;-17;-22,78;7;30,91;159,63;7,34;0;0;
39945;-12,63;-50,25;78,44;-3,14;7,43;31,47;163,03;7,82;0;0;
39970;-26,37;5,1;-151,03;-4,27;6,37;34,46;184,25;8,13;0;0;
39991;-9,84;-134,61;-80,68;-0,63;6,64;34,35;178,06;8,88;0;0;
40014;-17,72;-5,75;129,56;-13,97;6,56;29,51;163,63;8,17;0;0;
40032;-20,25;-34,92;-105,45;6,79;5,93;22,91;145,35;8,05;0;0;
40053;-28,77;-17,06;94,36;-11,58;5,54;24,39;146,31;6,99;0;0;
40075;-22,78;-28,44;155,76;13,43;5,4;19,66;146,1;6,54;0;0;
40095;-24,46;-32,41;110,83;3,85;5,38;16,54;129,16;6,06;0;0;
40118;-29,75;-54,65;-51,56;-2,35;4,38;16,46;145,38;6,46;1;0;
40138;-31,33;-20,13;13,31;-12,66;3,99;19,14;144,11;6,19;1;0;
40169;-29,07;-38,46;434,85;2,02;3,71;17,27;147,35;5,97;1;0;
40188;-22,65;-40,05;-132,33;-8,49;2,84;15,17;143,3;6,41;1;0;
40210;-23,26;-48,9;-10,13;-2,56;2,71;16,85;136,05;5,81;1;0;
40232;-16,77;-63,28;252,78;2,14;2,73;19,38;122,48;5,43;1;0;
40251;-21,71;-10,55;43,2;0,5;2,52;20,03;97,12;4,78;1;0;
40278;-25,19;-33,15;-74,32;-7,76;2,23;17,49;94,78;4,2;1;0;
40299;-22,68;-42,78;-140,79;3,39;1,96;15,37;67,14;3,55;1;0;
40325;-29,35;-36,74;67,13;-5,68;2,17;13,44;62,73;3,76;1;0;
40347;-24,31;-36,58;-113,71;5,9;2,22;11,23;61,08;3,49;1;0;
40371;-28,19;-40,26;-109,53;-3,62;1,96;6,91;65,88;4,11;1;0;
40389;-24,97;-38,08;21,12;-11,3;1,8;4,18;83,53;5,32;1;0;
40412;-27,01;-35,24;38,08;-9,79;1,82;3,96;87,5;5,72;1;0;
40436;-24,71;-28,73;86,41;-5,25;1,72;3,64;99,97;6,2;1;0;
40455;-29,05;-41,49;-51,5;-9,73;1,69;3,08;109,93;6,53;0;0;
40482;-24,09;-39,66;79,14;-12,02;1,5;3,15;97,21;6,18;0;0;
40501;-23,96;-37,24;-36,72;-4,11;1,59;2,97;88,08;5,52;0;0;
40525;-25,49;-25,83;-72,9;-4,38;1,79;3,37;75,66;5,02;0;0;
40547;-19,37;-49,91;144,77;-8,88;1,84;4,96;70,58;4,74;0;0;
40574;-30,56;38,4;-29,28;0,22;2,73;10,53;50,62;3,7;0;0;
40604;-14,95;-38,89;-43,36;2,99;4,39;22,57;51,27;4,03;0;0;
40628;-46,95;50,45;26,35;-11,2;6,78;33,68;70,43;4,24;0;0;
40651;-36,81;-21,48;-12,55;-0,07;8,46;42,67;69,96;4,52;0;0;
40680;20,96;-115,18;-27,29;-7;11,21;51,26;68,32;4,81;0;0;
40706;-24,68;-120,32;-7,61;-4,85;11,37;65,44;59,43;4,71;0;0;
40725;-4,67;-151,73;-56,73;-16,61;11,39;70,23;62,61;4,81;0;0;
40746;-19,42;-121,86;6,06;-5,61;10,11;65,85;47,01;4,54;0;0;
40768;-23,87;-27,19;-172,37;-7,69;9,07;58,7;46,41;3,98;0;0;
40787;-23,44;32,6;104,81;-12,78;8;55,09;56,84;3,61;0;0;
40815;-34,3;75,36;15,32;-12,48;8,92;50,32;56,02;3,88;0;0;
40838;-29,73;-79,34;-9,97;-4,01;9,25;38,63;48,33;3,82;0;0;
40859;-6,66;-130,52;-107,61;-12,78;8,64;35,92;41,25;4,56;0;0;
40880;-26,02;2,15;33,51;-6;10,15;38,99;37,77;5,49;0;0;
40901;-25,12;-55,85;-20,02;1,19;12,11;42,13;26,98;5,86;0;0;
40923;-25,55;-43,33;-16,21;-7,04;11,76;39,78;18,68;5,5;0;0;
40941;-25,23;-27,78;12,18;-12,28;9,85;33,26;22,87;5,59;0;0;
40970;-23,61;-32,45;-13,23;-7,16;11,67;29,96;21,97;5,35;0;0;
40989;-34,86;-31,4;60,6;12,19;10,2;23,03;17,87;6,03;0;0;
41015;-34,81;-68,11;-47,65;-15,17;8,99;24,54;15,7;7,76;0;0;
41039;-36,61;-9,72;-59,25;-8,82;10,02;22,39;25,31;7,64;0;0;
41061;-30,46;-23,4;-16,89;-8,76;9,1;23,94;21,25;7,39;0;0;
41082;-14,83;-25,71;-16,37;-7,81;8,64;21,56;17,52;6,91;0;0;
41105;-18,41;-54,79;-15,47;-4,14;6,93;21,91;17,43;6,35;0;0;
41128;-24,25;-34,64;-1,92;-3,63;5,79;19,38;14,43;2,83;0;0;
41149;-18,53;-12,83;9,07;-1,76;5,03;15,55;14,06;2,47;0;0;
41174;-19,97;-69,9;-20,16;-5,09;3,62;15,41;9,04;2,34;0;0;
41198;-19,13;-57,29;-17,39;-0,69;3,29;15,12;8,95;2,28;0;0;
41220;-24,18;-77,47;-16,46;-8,39;2,97;15,23;8,79;2,18;0;0;
41240;-28,9;-30,95;-13,92;-4,97;3,02;12,85;8,95;1,92;0;0;
41267;-25,55;-40,28;-16,91;-10,36;2,89;12,4;6,58;1,93;0;0;
41295;-23,45;-38,77;-14,95;-6,25;2,6;11,36;1,9;1,79;0;0;
41317;-25,34;-21,55;-16,07;-6,32;2,8;11,58;1,64;1,78;0;0;
41338;-28,28;-55,81;-11,76;-9,39;2,53;11,48;1,57;1,82;0;0;
41361;-17,65;-28,62;-19,75;-4,71;2,47;9,72;1,6;1,75;0;0;
41381;-24,15;-42,41;-9,67;-6,64;2,05;9,63;1,77;1,78;0;0;
41404;-24,5;-37,06;-15,69;-6,4;2,1;8,04;1,79;1,89;0;0;
41424;-25,17;-33,21;-18,75;-3;2,28;7,52;1,91;1,94;0;0;
41450;-24,89;-41,23;-19,8;-3,82;1,89;5,35;2,12;2,16;0;0;
41476;-24,88;-39,01;-13,34;-7,65;1,52;3,19;2,16;1,99;0;0;
41500;-22,79;-33,07;-19,41;-6,04;1,43;2,97;1,97;1,89;0;0;
41522;-24,4;-31,99;-16,08;-7,31;1,39;3,15;1,95;1,73;0;0;
41547;-20,48;-37,99;-15,49;-4,91;1,55;3,56;1,91;1,55;0;0;
41573;-23,43;-46,18;-12,37;-5,71;1,61;3,7;1,83;1,27;0;0;
41596;-2,96;-41,48;-18,21;-2,63;3,59;4,25;1,84;1,36;0;0;
41623;-24,88;-38,05;-14,76;-7,14;3,85;4,96;1,85;1,47;0;0;
41650;-28,36;-35,93;-13,27;-3,91;4,37;5,15;1,8;1,53;0;0;
41672;-23,24;-39,28;-16,63;-5,09;5,72;4,62;1,9;1,64;0;0;
41693;7,89;-37,87;-17,03;-3,94;7,23;4,02;1,84;1,88;0;0;
41718;-70,69;-33,65;-14,1;-5,67;8,69;3,66;1,93;1,92;0;0;
41742;-22,2;-40,75;-13,86;-3,2;7,89;2,94;1,81;1,98;0;0;
41766;-21,98;-36,18;-21,28;-6,02;7,55;2,55;1,84;1,85;0;0;
41788;-26,9;-35,65;-14,31;-2,03;6,46;2,81;1,83;1,79;0;0;
41814;-23,55;-37,1;-16,73;-8,53;6,35;2,84;1,87;1,7;0;0;
41831;-24,33;-39;-16,09;-5,58;4,58;3,1;1,75;1,82;0;0;
41850;-22,51;-36,98;-15,56;-9,74;2,59;3,1;1,74;1,73;0;0;
41872;-25,69;-40,24;-15,41;-4,69;2,39;3,12;1,74;1,82;0;0;
41897;-23,16;-37,72;-20,4;-8,41;1,97;3,19;1,51;2,04;0;0;
41923;-19,84;-29,62;-10,04;-5,44;1,96;3,19;2;1,94;0;0;
41948;-25,47;-33,97;-14,6;-7,91;1,99;3,22;2,11;1,75;0;0;
41973;-24;-41;-18,17;-6,43;2,04;3,39;2,19;1,71;0;0;
41997;-24,87;-32,05;-16,45;-8,5;2,05;3,74;2,24;1,94;0;0;
42019;-24,15;-37,59;-17,72;-4,72;2,02;3,5;2,46;1,9;0;0;
42040;-23,86;-36,77;-15,18;-5,76;2,06;3,32;2,47;2;1;0;
42065;-24,61;-38,17;-19,37;-2,74;1,97;3,34;1,82;2,09;1;0;
42082;-24,61;-38,17;-19,37;-2,74;1,93;2,91;1,82;2,09;1;0;
42113;-26,67;-36,7;-16,89;-10,25;1,96;2,93;1,7;1,82;1;0;
42136;-23,96;-28,33;-16,72;-8,13;1,97;3,45;1,7;1,66;1;0;
42157;-22,78;-32,69;-17,68;-10,1;2,23;4,17;1,45;1,77;1;0;
42181;-23,96;-37,31;-125,17;-6,26;2,59;5,35;5,62;1,66;1;0;
42204;-26,2;-38,07;140,37;-2,03;2,81;6,21;21,14;1,81;1;0;
42226;-23,5;-36,14;11,27;-5,69;2,96;6,59;26,44;2,08;1;0;
42249;-23,33;-34,03;114,59;-20,09;3,29;7,8;46,49;2,78;1;0;
42276;-27,19;21,31;102,23;7,09;3,6;11,53;60,99;3,34;1;0;
42296;-18,51;13,59;12,25;-14,77;3,65;12,75;76,92;3,77;1;0;
42319;-37,64;-17;-276,53;-3,21;4,4;18,51;87,48;4,71;1;0;
42340;-32,57;-7,34;28,6;-3,44;5,86;26,27;91,47;5,14;1;0;
42371;-18,69;-55,82;-202,08;-5,7;6,24;34,19;106,94;5,7;0;0;
42392;-34,33;-32,45;-95,85;-4,73;6,1;37,3;102,97;5,39;0;0;
42419;-37,02;-175,68;15,49;-17,37;7,68;43,99;97,25;5,11;0;0;
42449;-21,97;-93,14;-162,23;-8,63;8,61;47,36;102,65;4,8;0;0;
42477;-41,77;-173,86;10,07;-5,8;9,83;58,89;83,06;3,79;0;0;
42505;-40,21;-1,73;-79,35;-6,6;10,82;59,8;81,42;4,13;0;0;
42524;-44,17;3,51;-0,04;-7,44;12,12;61,27;68,71;2,98;0;0;
42556;-27,08;-138,25;-29,15;-2,88;12,22;60,23;52;2,58;0;0;
42581;-26,69;-42,65;-28,72;-7,91;10,48;45,97;43,63;3,44;0;0;
42609;-16,16;-63,23;-11,97;-40,1;9,94;41,16;32,19;7,84;0;0;
42633;-16,77;-44,35;-0,78;-13,6;7,66;40,01;14,13;8,14;0;0;
42656;9,63;-131,91;-11,03;3,78;8,3;38,61;11,11;11,88;0;0;
42681;-35,29;-18,84;-14,06;-8,04;6,69;36,52;9,56;14,29;0;0;
42705;-34,74;25,51;-15,93;8,51;6,96;41,56;8,28;15,33;0;0;
42727;-22,62;-8,09;-17,38;8,59;8,27;52,01;6,04;15,75;0;1;
42749;-23,39;-35,53;-19,57;-32,78;7,79;45,7;5,45;17,13;0;1;
42779;-32,06;38,12;-16,27;10,76;8,91;49,28;4,32;19,49;0;1;
42797;-23,54;-29,57;-10,89;-26,28;8,35;43,44;3,62;19,99;0;1;
42823;-6,71;8,26;-18,39;-21,46;7,92;41,19;3,69;23,39;0;1;
42845;-12,6;52,34;-26,27;-31,22;7,68;31,08;3,33;29,76;0;1;
42870;-15;-122,76;-11,58;-11,87;7,89;30,68;4,73;35,15;0;1;
42896;-54,81;-85,66;3,44;18,49;7,49;33,13;5,53;41,42;0;0;
42927;-30,15;-27,94;-30,28;112,67;8,28;33,51;8,21;52,66;0;0;
42956;-12,77;-47,59;-20,98;19,98;18,51;34,38;10,19;54,28;0;0;
42980;-27,77;-28,68;1,6;-64,14;25,93;32,14;12,02;56,28;0;0;
43005;-49,79;-33,68;-23,93;-82,52;30,56;28,3;13,43;56,97;0;0;
43027;-30,68;-27,27;-10,72;-61,08;30,55;21,44;17,04;59,25;0;0;
43045;-0,59;-128,49;4,44;-16,58;35,13;26,88;19,35;56,56;0;0;
43068;-19,81;-76,01;24,77;151,1;33,68;40,19;19,4;52,36;0;0;
43092;-26,4;-115,81;-12,78;-18,63;34,18;48,76;18,72;50,09;0;0;
43121;-119,66;2,21;-19,19;-10,38;60,24;54,53;17,31;44,05;0;0;
43139;-127,21;-25,94;-16,77;33,96;73,64;56,13;11,13;35,32;0;0;
43166;-51,45;-57,23;-13,09;6,96;112,47;51,89;9,8;34,39;0;0;
43189;-30,56;50,15;-29,9;53,33;126,05;42,59;6,19;39,81;0;0;
43217;-550,98;21,57;-4,1;7,34;148,33;39,86;4,7;32,5;0;0;
43235;9,38;232,66;-12,13;-25,8;154,89;60,45;5,01;31,75;0;0;
43257;-57,07;-378,37;-15,99;-47,26;156,5;150,26;5,78;35,69;0;0;
43285;-144,82;-21,53;-17,31;29,93;153,86;206,99;5,41;33,7;0;0;
43309;187,29;154,35;-17,41;2,6;150,56;218,96;4,9;29,62;0;0;
43333;156,34;-339,37;-19,86;25,14;152,29;283,14;4,34;20,98;0;0;
43352;-45,1;305,03;-15,93;7,65;140,73;313,03;4,01;19,15;0;0;
43375;126,61;-6,49;-14,32;-5,84;142,82;241,59;2,81;13,77;0;0;
43399;-34,95;-45,15;-13,45;-8,95;135,53;158,73;2,38;11,12;0;0;
43420;12,06;-34,16;-12,52;-4,4;131,24;139,88;2,36;9,03;0;0;
43442;-31,3;-46,9;-16,72;-8,57;118,52;93,62;2,36;8,17;0;0;
43467;24,54;-32,91;-18,37;-6,99;100,89;35,01;2,3;5,35;0;0;
43484;24,54;-32,91;-18,37;-6,99;108,56;13,9;2,46;3,2;0;0;
43503;-6,87;-37,96;-15,29;-5,95;87,07;10,16;2,39;2,21;0;0;
43528;-18,54;-35,71;-11,92;-1,62;60,41;7,61;2,35;2,42;0;0;
43543;-18,54;-35,71;-11,92;-1,62;48,81;6,14;2,29;2,46;0;0;
43567;-34,06;-37,75;-16,35;-3,6;37,19;5,63;2,21;2,37;0;0;
43586;-104,22;-25,55;-17,07;-8,74;28,19;4,3;1,99;2,11;0;0;
43617;-16,96;-40,77;-16,06;-4,44;28,56;3,11;1,9;2,07;0;0;
43640;-29,4;-31,03;-12,87;-4,72;27,45;3,67;1,86;2,21;0;0;
43663;-11,72;-65,19;-15,67;-8,75;32,84;5,95;1,79;2,1;0;0;
43687;-13,14;-35,96;-18,07;0,54;32,82;7,28;1,76;1,99;0;0;
43709;-33,63;-55,52;-19,16;-5,47;36,48;9,37;1,77;2,22;0;0;
43730;23,48;-33,21;-15,05;-8,87;29,35;9,45;1,76;2,18;0;0;
43748;-23;-35,36;-19,83;-8,04;25,21;9,79;1,68;2,13;0;0;
43773;50,65;-32,84;-16,65;-7,05;20,26;8,11;1,57;2,08;0;0;
43795;-28,53;-30,61;-17,92;-4,72;19,71;7,15;1,66;1,92;0;0;
43820;-31,15;-23,42;-14,56;-7,93;29,94;6,83;1,56;1,75;0;0;
43839;-28,52;-58,01;-19,21;-4,96;28,82;7,75;1,46;1,95;0;0;
43865;-19,6;-18,38;-11,33;-15,82;23,27;11,86;1,45;1,98;0;0;
43886;-22,79;-58,14;-15,9;-9,02;19,08;18,13;1,35;3,39;0;0;
43907;-18,02;-35,04;-14,04;-16,87;5,75;20,42;1,46;4,13;0;0;
43934;-28,91;-50,41;-14,43;-3,97;2,96;20,29;1,51;4,07;0;0;
43953;-27,2;-44,68;-13,62;-5,33;2,53;18,85;1,58;3,94;0;0;
43976;-26,53;-41,74;-18,57;-6,84;2,62;17,61;1,54;3,95;0;0;
43995;-24,95;-20,98;-14,68;-9,76;2,47;14,16;1,6;3,79;0;0;
44018;-21,57;-27,1;-17,25;-2,8;2,32;8,9;1,56;2,75;0;0;
44041;-19,01;-39,46;-17,26;-4,15;1,97;6,85;1,62;2,17;0;0;
44062;-27,26;-30,03;-17,07;-10,57;1,92;6,05;1,77;2,38;0;0;
44087;-25,51;-42,35;-17,29;-3,36;2,14;5,95;1,73;2,52;0;0;
44109;-23,71;-34,4;-71,29;-7,99;2,04;5,84;5,45;2,5;0;0;
44128;-22,43;-37,67;-37,08;-4,97;2,6;5,82;10,86;2,28;0;0;
44144;-22,43;-37,67;-37,08;-4,97;2,98;6,5;16,27;2,2;0;0;
44169;-25,02;-36,96;-9,23;-3,37;2,65;6,28;16,4;3,93;0;1;
44186;-22,58;-34,55;-15,95;37,77;2,33;5,3;16,57;7,9;0;1;
44205;-26,42;-25,66;-18,72;50,44;2,56;5,85;16,45;18,16;0;1;
44227;-25,14;-33,73;-22,42;-34,97;2,6;5,6;11,07;28,18;0;1;
44253;-19,46;-36,95;-30,07;13,98;2,15;5,28;6,46;35,43;0;1;
44276;-28,11;-36,7;-32,99;-150,82;1,86;4,45;4,81;43,94;0;0;
44297;-25;-40,56;-22,42;34,81;2,17;4,55;5,59;53,8;0;0;
44323;-24,84;-30,53;-22,03;-28,14;2,03;5,11;6,99;52,97;0;0;
44341;-28,54;-38,22;-26,87;-26,66;2,04;4,18;8,08;55,14;0;0;
44367;-22,53;-43,89;-17,62;-93,55;2,54;4,31;9,72;65,77;0;0;
44385;-27,28;-37,72;-49,54;-16,12;2,52;4,29;9,9;61,15;0;0;
44409;-25,62;-36,34;-32,26;7,64;2,08;4,29;10,26;54,34;0;0;
44436;-225,72;-46,77;-4,92;140,38;14,99;4,96;12,05;65,7;0;0;
44457;195,28;-54,62;-25,74;80,84;41,48;5,57;12,89;67,65;0;0;
44486;-134;-32,54;-20,29;-82,93;66,45;7,11;11,54;59,06;0;0;
44504;-134;-32,54;-20,29;-82,93;91,48;8,17;11,61;53,28;0;0;
44524;-843,58;-41,24;3,83;29,04;125,73;10,81;12,5;60,46;0;0;
44543;-224,09;5,51;-20,57;-28,12;167,12;14,29;11,75;61,42;0;0;
44571;699,86;-161,74;-30,61;3,33;208,64;25,29;10,54;43,88;0;0;
44588;-37,82;243,55;-12,7;-21,79;204,6;74,58;9,53;32,21;0;0;
44614;-98,31;-510,7;-18,75;-6,15;189,64;164,12;8,45;29,07;0;0;
44639;-177,42;-490,31;-21,31;-12,7;183,08;305,72;6,28;24,54;0;0;
44662;-288,5;52,78;-25,52;3,15;183,4;417,81;4,94;28,55;0;0;
44684;-58,18;-200,99;-12,71;-14,57;141,37;427,98;3,96;28,4;0;0;
44706;52,49;-204,42;-20,96;-13,08;142,95;451,54;3,16;27,28;0;0;
44732;454,69;-30,47;-13,08;-25,59;148,68;394,84;3,37;27,02;0;0;
44755;80,04;-35,64;-35,21;21,18;125,66;283,85;4,06;24,45;0;0;
44782;-15,31;-42,4;-17,29;-14,25;91,16;118,76;4,12;18,61;0;0;
44801;-27,85;-34,59;-21,71;20,61;83,09;60,01;3,8;16,25;0;0;
44824;-3,23;-33,97;-12,6;-22,44;62,34;33,41;3,65;16,52;0;0;
44849;-9,18;-38,68;-18,48;-10,95;52,23;7,65;3,5;15,07;0;0;
44873;-22,44;-35,35;-17,68;-8,16;33,7;6,69;3,05;12,34;0;0;
44895;-33,21;-40,95;-14,41;-7,07;32,56;6,52;2,22;9,34;1;0;
44920;-12,51;-36,41;-14,51;-5,69;25,76;5,56;2,03;6,37;1;0;
44939;-23,97;-29,96;-12,4;-9,24;26,46;6,2;2,86;3,21;1;0;
44960;32,58;-1,96;-15,41;-3,98;31,4;9,53;3,47;2,34;1;0;
44983;-24,68;-5,76;21,44;-3,6;17,92;13,92;14,5;2,16;1;0;
45003;-18,8;-100,56;-25,5;-8,82;16,78;16,51;25,47;2,34;1;0;
45023;-2,95;-19,76;-270,96;-3,23;17,21;20,58;41,27;2,64;1;0;
45051;-27,2;-110,66;-187,84;-9,63;12,6;28,96;60,22;3,27;1;0;
45072;-42,9;-40,07;-150,14;-6,22;8,37;25,6;62,82;3,77;1;0;
45093;-23,9;22,02;-183,3;-10,72;8,68;30,6;73,81;3,9;1;0;
45117;-20,5;-251,97;-224;-5,03;7,83;72,14;84,87;4,19;1;0;
45137;-24,86;157,75;71,15;-13,61;4,18;100,28;103,62;4,31;1;0;
45161;-22,68;65,05;18,19;2;4,11;101,22;116,51;4,35;0;0;
45184;-28,15;-59,27;54,6;-4,8;4,19;110,11;123,38;4,39;0;0;
45218;-23,01;-24,79;105,66;-0,48;2,46;112,82;135,99;4,84;0;0;
45241;-24,73;-43,16;-14,76;-6,83;2,45;89,16;133,84;4,4;0;0;
45271;-22,89;-36,11;-21,3;32,99;2,42;53,39;119,3;6,12;0;0;
45289;-23,53;-30,94;-164,58;-16,24;1,96;30,14;104,43;12,14;0;0;
45317;-26,44;-28,38;11,66;-0,83;1,99;14,45;108,15;12,08;0;0;
45344;-11,47;-50,55;-19,16;-9,98;2,22;13,65;94,45;11,5;0;0;
45373;5,63;-16,15;-113,73;-9,39;4,11;23,04;96,37;11,64;0;0;
45393;-29,7;-147,12;181,85;-16,7;6,07;33,64;100,06;12,55;0;0;
45420;1,59;-173,73;-126,73;-5,22;8,68;51,21;103,25;8,01;0;0;
45441;-28,96;-10,09;-41,71;-3,95;9,52;55,6;100,04;4,11;0;0;
45466;-29,3;-0,99;-8,09;-10,44;10,09;57,37;86,27;4,7;0;0;
45486;-22,75;10,73;-35,23;-6,19;10,4;49,87;81,31;5,55;0;0;
45507;-6,59;-64,44;-13,82;3,24;10,32;59,53;64,61;6,14;0;0;
45536;-23,8;-46,05;-55,58;-29,01;8,85;48,38;46,68;8,56;0;0;
45555;-33,64;-122,97;7,57;-34,6;7,62;42,75;31,34;10,92;0;0;
45578;-26,22;1,96;11,06;-35,36;8,44;46,98;29,42;16,56;0;0;
45597;-15,47;-1,34;-29,29;13,39;8,44;51,88;24,84;19,53;0;0;
45619;-10,17;58,47;2,12;-38,59;8,65;48,25;15,23;21,56;0;0;
45639;-24,75;-53,83;-20,1;-41,24;7,33;41,5;12,93;22,86;0;0;
45659;-2,87;13,48;-18,27;34,03;8,61;48,23;9,48;25,09;0;0;
45684;-18,06;-24,96;-14,02;-23,17;8,47;37,57;7,86;22,15;0;0;
45705;-31,65;-58,74;-15,84;-9,63;8,44;31,18;5,92;21,47;0;0;
45729;-18,17;59,52;-15,55;-24,26;9,58;34,41;4,15;19,41;0;0;
45750;-68,97;-12,06;-19,84;-22,21;21,47;31;2,61;15,14;0;0;
45778;-55,12;-11,45;-14,89;-10,61;31,99;28,11;2,06;12,17;0;0;
45795;-32,26;-76,55;-17,54;-4,38;31,72;24,85;1,78;8,94;0;0;
45819;-30,64;-52,72;-12,68;-10,39;30,73;24,27;1,75;9,09;0;0;
45844;-21,24;-37,47;-20,47;8,45;30,05;25,13;1,82;10,39;0;0;
45868;-29,86;-32,4;-16,79;-49,93;28,51;18,41;2,03;11,76;0;0;
45888;76,51;-80,62;-11,66;26,95;22,8;24,29;4,07;16,92;0;0;
45911;-64,05;-34,09;-18,52;-45,77;22,85;26,81;6,3;25,76;0;0;
45930;-45,71;-28,25;-19,68;15,86;23,66;22,77;7,15;34,37;0;0;
45950;-28,7;-73,7;-24,99;-75,01;28,28;24,03;8,1;36,64;0;0;
45975;-22,42;-33,15;-8,23;-13,01;34,97;32,02;8,29;40,54;0;0;
45997;-28,33;-32,14;-29,27;1,17;30,52;30,15;9,82;44,99;0;0;
46020;-66,34;-38,08;-39,57;-26,59;30,18;22,74;10,34;46,41;0;0;
46039;-21,43;-39,99;-14;-54,89;28,15;22;12,34;64,49;0;1;
46060;-23,05;-54,87;-15,13;-29,28;26,07;19,56;12,3;61,21;0;1;
46086;-25,26;-34,01;-6,49;148,16;18,04;14,93;13,65;69,32;0;1;
46110;-19,85;-33,93;4,26;48,29;14,12;9,66;14,04;77,24;0;1;
46128;-20,93;-41,75;-30,14;-3,27;5,44;8,89;12,96;76,64;0;1;
46154;-27,92;-32,78;-18,48;13,39;2,95;8,19;12,05;62,83;0;1;
46175;-19,11;-38,84;-43,38;-105,12;2,5;8,1;11,47;55,28;0;1;
46195;-27,57;-37,56;-11,13;4,63;2,41;5,14;11,98;52,74;0;1;
46218;-30,34;-42,13;-20,73;36,23;3,23;4,37;11,14;39,82;0;1;
46238;-71,45;-36,96;-14,25;79,31;6,41;4,31;10,98;32,56;0;1;
46260;11,13;-33,28;-12,06;-4,19;19,89;4,35;11,12;28,01;0;1;
46286;213,89;-18,42;5,88;34,39;34,03;4,46;11,04;25,91;0;1;
46314;-73,41;-42,89;-14,93;44,62;46,4;5,1;8,82;27,65;0;1;
46336;79,74;-38,42;-17,94;-6,05;88,05;7,4;8,69;31,38;0;1;
46360;-186,38;-44,3;-9,66;-4,78;101,31;7,66;7,88;28,58;0;1;
46389;-153,89;-43,88;-11,94;-35,11;118,27;9,24;7,23;28,17;0;0;
46413;-90,53;-32,6;-14,95;-1,09;118,78;10,81;7,01;25,36;0;0;
46440;-57,15;-43,21;7,32;-18,31;119,21;12,3;7,83;20,24;0;0;
46466;186,32;-27,11;-34,35;1,05;128,11;13,28;7,54;17,25;0;0;
46490;116,05;-30,84;-14,44;-4,9;122,93;13,35;7,61;18,78;0;0;
46518;242,37;-21,33;-22,89;-16,61;127,93;14,39;7,02;18,24;0;0;
46539;160,9;-25,47;-17,34;-1,64;129,56;14,49;6,53;17,97;0;0;
46563;-177,91;-42,27;-21,46;-18,24;142,16;14,02;5,53;16,82;0;0;
46584;-100,86;-42,39;-9,42;-11,69;137,38;13,75;4,7;20,3;0;0;
46602;211,23;-36,28;-16,24;10,12;146,51;13,36;3,6;18,94;0;0;
46628;-5,6;-41,61;-14,62;-5,45;122,66;11,17;3,16;17,9;0;0;
46647;-396,41;-48,9;-7,3;-5,2;118,86;10,28;3,7;18,92;0;0;
46667;-12,58;-32,71;-18,47;17;104,71;8,83;4,17;19,41;0;0;
46688;21,03;-53,97;-19,47;-21,19;89,45;7,85;3,67;15,92;0;0;
46707;-39,38;-47,9;-14,01;-19,54;89,34;9,18;3,35;14,69;0;0;
46728;-32,82;-45,04;-16,33;-78,69;67,12;8,54;3,53;15,82;0;0;
46746;-32,82;-45,04;-16,33;-78,69;57,11;8,57;3,08;17,18;0;0;
46770;-27,57;-43,43;-4,3;-4,77;27,19;6,94;3,64;15,91;0;0;
46795;-24,07;-35,08;-15,77;-1,41;25,37;6,82;3,83;13,77;0;0;
46814;-27,83;-38,52;-14,74;-18,78;25,75;5,21;3,62;15,13;0;0;
46837;-9,66;-18,51;-13,83;32,59;16,14;4,81;3,59;17,98;1;0;
46857;74,39;-17,01;-17,74;-9,01;21,08;7,53;3,83;14,81;1;0;
46882;-25,24;-62,55;-19;-2,78;21,2;12,18;3,33;11,4;1;0;
46903;-16,23;-0,3;-14,26;-6,97;25,08;13,8;2,37;10,62;1;0;
46926;7,93;-61,14;-18,19;-6,57;20,5;23,92;2,11;7,95;1;0;
46955;-60,08;-28,44;-9,11;-4,98;24,26;25,01;4,83;6,18;1;0;
46980;0,37;-40,67;-11,88;-5,32;24,13;22,86;11,26;2,68;1;0;
46999;-48,26;-60,54;51,04;-1,55;24,03;22,67;19,91;2,57;1;0;
47020;-20,48;-30,23;-69,83;-7,93;19,56;15,24;42,94;1,62;1;0;
47041;-20,86;-35,21;88,84;-1,15;16,3;8,05;52,28;1,9;1;0;
47061;-28,26;4,02;-23,34;-5,32;13,2;9,85;59,69;2,03;1;0;
47086;-30,01;-56,18;-41,65;-16,77;10,45;16,4;71,79;2,88;1;0;
47112;-28,66;-25,82;105,09;-14,89;4,1;16,39;89,68;3,63;1;0;
47134;-26,39;-30,96;151,69;1,27;3,81;18,42;103,57;4,43;1;0;
47155;-19,93;-82,86;-244,15;-7,8;3,49;22,88;117,3;5,11;0;0;
47180;-40,17;-30,94;-276,58;-2,54;3,79;26,07;125,07;5,24;0;0;
47204;-32,59;-17,07;70,69;-12,28;5,27;28,82;127,14;5,27;0;0;
47226;-14,85;12,61;126,8;-19,11;7,14;31,1;130,78;5,6;0;0;
47251;-31,43;64,16;-56,58;5,39;9,34;37,77;124,32;5,51;0;0;
47283;-3,31;-56,13;169,06;-19,86;10,24;41,09;115,86;5,84;0;0;
47303;-18,11;-12,14;1,96;-8,24;11,16;48,82;110,82;5,54;0;0;
47329;-33,25;66,31;-119,83;-11,98;12,21;58,65;105,17;5,57;0;0;
47356;-27,55;7;-23,97;-5,31;11,42;61,6;82,22;5,19;0;0;
47379;-36,08;-172,18;-92,4;-11,93;9,16;62,58;76,29;4,8;0;0;
47412;-31,93;-60,06;-17,21;45,81;8,32;60,48;60,33;9,66;0;0;
47437;-10,43;-128,97;-15,56;-10,48;9,59;53,51;44,67;10,65;0;0;
47456;-26,68;-6,34;-56,9;-19,61;8,32;44,29;31,46;12,44;0;0;
47479;-30,94;-64,25;-137,37;-33,9;8,69;38,83;38,44;18,5;0;0;
47499;-37,46;-37,09;-18,32;-8,28;9,34;41,04;46,95;20,17;0;0;
47523;-39,43;-19,55;-37,29;-20,88;9,96;43,18;37,31;18,49;0;0;
47541;1,89;-41,97;-14,18;-19,68;11,49;47,54;38,47;14,88;0;0;
47568;-21,86;31,26;9,1;-9,1;10,01;48,16;43,47;13,96;0;0;
47589;-31,49;-75,02;30,95;-6,27;11,8;47,96;60,55;8,39;0;0;
47607;162,03;16,15;-54,37;-2,78;26,03;48,03;43,92;5,45;0;0;
47628;-81,87;15,83;4,45;2,07;43,48;47,75;41,87;5,69;0;0;
47651;3,61;-15,36;8,81;1,04;47,27;38,05;42,93;4,97;0;0;
47669;49,5;-32,66;-20,23;-8,84;50,94;35,07;45,53;4,18;0;0;
47690;-21,05;-9,64;-14,1;-7,04;56,3;34,12;32,05;3,8;0;0;
47713;-11,43;-103,94;-21,23;-7,7;53,37;37,25;19,48;4,39;0;0;
47734;-33,78;39,28;-16,83;-7,51;33,76;39,03;15,3;4,99;0;0;
47760;-63,62;-41,55;-14,2;-7,25;32,46;41;13,1;4,46;0;0;
47778;-49,1;3,7;-17,74;-4,59;34,37;44,21;6,47;4,1;0;0;
47801;-37,12;-26,15;-14,22;-8,12;30,36;42,19;2,85;3,58;0;0;
47822;-33,57;-43,17;-19,36;-4,12;27,3;39,38;2,75;3,45;0;0;
47841;-23,53;-41,39;-13,89;-5,7;25,67;29,9;2,62;2,57;0;0;
47865;-29,43;-21,97;-20,91;9,23;22,06;19,86;2,35;2,76;0;0;
47886;-2,73;-36,97;-18,12;-4,84;12,7;14,92;2,15;2,76;0;0;
47914;-11,42;-42,67;-13,28;-8,25;14,22;9,93;2,2;3,64;0;0;
47935;-6,19;-32,44;-18,34;-7,44;13,07;7,2;2,16;3,87;0;0;
47964;-27,23;-47,84;-16,01;-13,06;12,01;5,66;1,99;4,02;0;0;
47985;-24,5;-35,46;-15,17;-5,46;11,87;5,05;1,94;4,03;0;1;
48004;-26,79;-44,48;-13,42;-5,36;9,93;4,99;1,71;4,2;0;1;
48026;-24,31;-24,98;-21;-33,16;4,16;5,4;1,87;5,9;0;1;
48048;-26,49;-44,1;-20,88;-30,98;3,05;5,75;1,89;8,52;0;1;
48075;-22,17;-34,44;-26,06;-58,96;2,6;5,7;2,48;12,78;0;1;
48093;-24,14;-39,35;-16,21;41,57;2,32;5,46;4,09;19,15;0;1;
48120;-22,46;-37,27;-12,57;-61,39;2,02;5,19;5,09;30,63;0;1;
48137;-26,37;-38,66;-34,27;30,23;1,78;3,99;5,77;38,33;0;1;
48161;-25,35;-38,53;-3,55;-12,13;1,51;3,36;6,74;43,96;0;0;
48181;-21,83;-35,65;-31,23;40,82;1,56;3,28;8,15;49,31;0;0;
48206;-26,45;-36;-17,29;-22,75;1,51;2,85;7,92;56,43;0;0;
48234;-25,48;-41,27;-22,84;21,91;1,73;2,91;8,9;56,68;0;0;
48261;-31,2;-41,97;-17,36;-25,22;2,36;2,9;9,33;56,37;0;0;
48289;-70,93;-37,56;-20,76;-12,11;12,11;2,99;8,51;52,96;0;0;
48315;223,24;-19,24;-86,49;-20,46;25,6;3,2;10,62;48,91;0;0;
48332;-125,92;-44,28;3,5;70,17;40,94;3,99;11,38;41,49;0;0;
48358;16,35;-46,46;-36,63;-7,14;63,77;5,18;11,97;32,33;0;0;
48387;162,8;-33;-18,87;-28,37;89,53;6,02;11,65;24,19;0;0;
48411;422,85;-5,73;-24,83;2,13;122,41;7,61;11,78;21,33;0;0;
48437;48,51;-45,9;-18,31;-42,34;144,69;9,82;12,63;17,68;0;0;
48460;-91,17;-32,47;-16,65;-13,82;151,2;11,47;9,89;17,08;0;0;
48482;-51,37;-35,57;-17,53;-16,68;163,95;11,82;7,7;16,65;0;0;
48502;-6,29;-58,79;-26,26;-16,52;167,65;13,67;5,21;16,73;0;0;
48527;-297,23;-20,94;-14,6;30,22;185,84;14,84;4,32;17,19;0;0;
48550;462,3;-24,84;-12,43;-21,11;152,6;13,29;3,74;16,28;0;0;
48574;501,84;0,37;-13,87;-17,1;153,14;14;2,11;14,14;0;0;
48597;84,33;-32,91;-18,25;-17,46;156,43;16,08;2,11;11,51;0;0;
48614;-369,63;-55,32;-18,56;-4,76;154,78;15;2,07;9,92;0;0;
48639;-67,1;-54,46;-15,48;-7,48;155,28;13,98;1,87;7,78;0;0;
48658;65,37;-29,74;-5,03;0,63;150,17;13,18;2,31;5,41;0;0;
48680;-15,29;-37,17;-104,82;-2,56;131,73;12,72;12,98;4,62;0;1;
48704;-12,71;-55,71;-13,07;-5,7;138,24;12,2;17,24;3,89;0;1;
48724;-51,53;-33,99;-17,94;-4,97;123,88;11,74;17,81;2,67;0;1;
48744;-7,74;-33,75;-13,17;-10,29;104,22;10,81;18,14;2,02;0;1;
48766;75,65;-23,6;-14,66;-7,65;81,12;9,58;18,43;1,88;0;1;
48786;-21,93;-41,13;-139,2;-4,72;55,22;7,89;17,96;1,51;0;1;
48806;-25,15;-35,35;-39,18;-6,13;45,27;6,53;15,9;1,58;0;1;
48827;-28,8;-36,01;-32,15;-11,82;15,62;3,9;30,38;2;0;1;
48851;-26,41;-38,44;-58,79;-2,52;12,62;3,57;40,43;2,26;0;1;
48878;-6,2;-28,08;-34,88;-7,79;25,08;4,15;60,52;2,73;0;1;
48897;-34,71;-29,7;-6,72;-9,99;18,26;4,35;76,41;3,22;0;1;
48923;-15,18;20,92;-231,33;-8,04;18,99;8,61;82,26;3,37;0;1;
48940;-12,07;-98;22,74;-12,09;25,04;14,39;105,64;3,59;0;1;
48972;179,33;133,46;17,78;9,8;33,16;25,46;104,37;3,65;0;1;
48990;23,58;-56,5;-150,66;-0,7;28,95;55,77;100,41;3,71;0;1;
49013;-28,72;19,81;-21,19;-3,52;25,62;66,7;89,83;3,88;0;0;
49044;-26,46;-26,94;-46,08;-4,22;24,81;66,92;86,51;4,03;0;0;
49065;-27,58;-49,69;-39,35;-23,54;22,92;62,06;73,05;4,8;0;0;
49092;-27,21;-33,85;-23,74;9,68;16,35;54,83;54,95;9,66;0;0;
49119;-28,52;-34,53;-181,11;13,41;11,77;28,77;48,66;14,36;0;0;
49142;-16,79;-30,47;-38,02;-9,97;5,67;13,1;41,18;15,56;0;0;
49161;-27,21;-44,55;-7,27;-27,49;5,35;7,19;35,64;18,58;0;0;
49185;-30,14;-22,31;-0,92;-27,3;5,62;7,49;21,84;22,45;0;0;
49211;-21;-24;372,35;2,48;5,61;8,23;33,47;23,41;0;0;
49237;-26,82;-53,84;-20,23;73,94;2,95;8,08;33,37;23,66;0;0;
49260;25,92;-34,31;-28,1;45,66;8,22;8,49;26,57;27,45;0;0;
49285;161,15;-35,78;-15,51;-13,84;32,67;8,86;23,45;27,25;0;0;
49303;-464,25;-34,4;-8,93;-55,51;67,14;9,95;22,52;27,32;0;0;
49323;-111,18;-35,54;-16,53;-44,88;106,62;10,99;17,8;24,39;0;0;
49345;-133,39;-50,19;-23,18;10,03;129,66;11,78;5,93;25,22;0;0;
49371;234,6;-26,56;-3,72;56,42;149,31;13,28;4,77;23,82;0;0;
49393;317,75;-71;-17,89;-9,99;171,54;16,9;3,64;20,82;0;0;
49418;-59,42;43,4;-14,57;16,57;190,36;30,82;4,68;24,59;0;0;
49439;186,17;-142,37;-26,87;-34,98;195,54;58,95;4,82;22,89;0;0;
49461;-119,12;168,63;-15,75;-13,55;182,88;80,16;5,58;25,75;0;0;
49481;-569,31;-12,73;-9,12;-17,1;198,83;87,42;6,06;27,49;0;0;
49504;-349,91;-102,7;-4,86;-57,51;179,93;91,56;6,19;24,89;0;0;
49527;-34,6;-25,95;-13,9;68,22;120,36;84,03;5,94;28,68;0;0;
49554;-118,22;-41,77;-22,33;3,29;102,2;63,01;5,7;32,78;0;0;
