Time;EMG1;EMG2;EMG3;EMG4;EMG1_F;EMG2_F;EMG3_F;EMG4_F;Note_R;Note_V;;Level 3;Joueur;Score;Notes hit;% Reussite R;Offset EMG1;Onset EMG1;% Reussite V;Offset EMG2;Onset EMG2
11;-30,43;10,94;-33,87;-14,97;3,22;2,11;3,04;1,94;0;0;;;1;47600;178;88,88889;-36,85685;37,71976;90,90909;9,505447;20,64483
34;-24,2;14,28;-35,5;-11,72;3,34;2,31;3,23;2;0;0;;;2;18300;130;65,65656;-27,19164;70;65,65656;9,505447;30
51;-28,25;14,62;-35,25;-13,37;3,19;2,46;3,23;1,97;0;0;
70;-28,25;14,62;-35,25;-13,37;2,99;2,48;3,08;2,07;0;0;
86;-25,74;14,95;-41,16;-18,98;2,74;2,59;2,96;2,31;0;0;
104;-30,08;9,85;-35,95;-15,97;2,57;2,64;2,55;2,28;0;0;
122;-29,08;11,18;-36,65;-12,07;2,6;2,63;1,88;2,35;0;0;
141;-27,56;7,27;-39,47;-14,17;2,65;2,67;2,11;2,36;0;0;
159;-27,04;9;-37,22;-17,34;2,69;2,69;2,21;2,25;0;0;
181;-24;13,03;-37,3;-15,82;2,58;2,79;2,36;2,17;0;0;
201;-29,44;3,58;-33,4;-12,58;2,52;2,66;2,56;2,08;0;0;
218;-26,45;14,5;-32,67;-18,06;2,66;2,83;2,97;1,93;0;0;
236;-29,26;12,93;-36,16;-19,17;2,45;2,86;2,64;1,85;0;0;
256;-26,1;2,96;-39,12;-14,38;2,26;2,72;2,57;1,9;0;0;
275;-30,74;7,19;-34,23;-17,7;2,18;2,41;2,98;2,02;0;0;
292;-27,9;9,46;-36;-16,64;2,19;2,44;3,02;1,99;0;0;
313;-31,41;7,9;-35,01;-14,51;2,15;2,18;2,71;1,85;0;0;
329;-31,41;7,9;-35,01;-14,51;2,27;2,02;2,41;1,89;0;0;
344;-29,55;11,02;-35,08;-16,51;2,33;2,07;2,59;2,03;0;0;
364;-27,99;9,2;-40,01;-16,4;2,48;2,14;3,03;2,17;0;0;
380;-23,74;13,45;-37,71;-18,85;2,52;2,21;2,55;2,25;0;0;
398;-23,88;9,53;-37,6;-16,13;2,6;2,19;2,51;2,26;0;0;
415;-26,3;11,63;-39,16;-13,21;2,54;2,07;2,68;2,27;0;0;
435;-29,03;8,84;-34,47;-18,51;2,69;1,86;2,83;2,33;0;0;
452;-20,94;6,79;-37,7;-15,35;2,7;2,1;2,31;2,05;0;0;
471;-20,94;6,79;-37,7;-15,35;2,82;2,35;1,98;2,11;0;0;
486;-24,72;9,88;-32,18;-17,39;2,7;2,26;1,97;1,95;0;0;
505;-23,96;12,21;-38,8;-15,81;2,76;2,43;1,96;1,86;0;0;
526;-29,5;10,12;-38,03;-18,21;2,77;2,52;1,97;1,95;0;0;
543;-26,26;11,8;-35,13;-12,96;2,86;2,97;2,07;1,92;0;0;
562;-20,7;8,8;-38,29;-17,66;2,98;2,87;2,26;1,94;0;0;
578;-27,22;8,86;-32,5;-17,03;2,83;2,79;2,35;2,19;0;0;
598;-25,47;10,69;-30,68;-10,19;2,71;2,89;2,51;2,49;0;0;
616;-27,38;13,64;-34,22;-13;2,58;2,79;2,46;2,62;0;0;
634;-30,47;10,56;-34,73;-17,11;2,55;2,53;2,44;2,66;0;0;
652;-27,93;4,51;-30,49;-17,42;2,43;2,34;2,29;2,82;0;0;
669;-27,93;4,51;-30,49;-17,42;2,08;2,49;2,43;2,83;0;0;
687;-28,18;11,2;-39,22;-17,58;2,12;2,36;2,76;2,76;0;0;
704;-24,34;10,72;-42,34;-15,1;2,06;2,56;3,01;2,49;0;0;
722;-29,84;0,86;-37,07;-12,61;2,1;2,86;3,09;2,57;0;0;
740;-33,58;12,22;-34,83;-14,37;2,07;3,22;3,31;2,38;0;0;
756;-21,63;9,85;-39,61;-18,57;2,27;3,17;3,62;2,19;0;0;
781;-28,89;11,53;-35,64;-13,95;2,39;2,91;3,25;2,24;0;0;
799;-31,03;13,13;-36,85;-17,23;2,55;2,87;2,67;2,32;0;0;
815;-29,57;8;-32,22;-14,96;2,49;2,76;2,93;2,33;0;0;
833;-21,01;11,57;-34,26;-13,31;2,7;2,33;3,06;2,18;0;0;
849;-21,01;11,57;-34,26;-13,31;2,74;2,22;2,82;2,03;0;0;
866;-23,64;10,32;-37,18;-18,41;2,95;1,98;2,58;1,87;0;0;
882;-24,04;11,98;-38,66;-19,14;2,86;2,29;2,54;1,67;0;0;
898;-24,04;11,98;-38,66;-19,14;2,82;2,37;2,42;1,55;0;0;
918;-31,02;10,92;-36,62;-22,62;2,74;2,33;2,15;1,76;0;0;
936;-30,36;6,24;-32,68;-14,86;2,55;2,48;2,22;1,9;0;0;
953;-27,41;14,16;-36,15;-18,05;2,39;2,58;2,63;2,22;0;0;
970;-27,41;14,16;-36,15;-18,05;2,21;2,54;2,85;2,42;0;0;
986;-29,06;11,45;-38,71;-14,22;2,1;2,38;3,13;2,62;0;0;
1003;-29,05;15,12;-39;-17,7;2,33;2,29;3,09;2,82;0;0;
1021;-32,23;12,68;-36,35;-12,63;2,5;2,27;3,31;2,65;0;0;
1040;-28,41;11,74;-41,18;-17,25;2,38;2,11;3,22;2,48;0;0;
1057;-27,21;11,69;-36,9;-16,89;2,33;2,39;3,1;2,22;0;0;
1075;-27,67;7,71;-43,18;-14,86;2,26;2,37;2,97;2,04;0;0;
1093;-28,71;13,2;-33,22;-12,7;2,38;2,47;3,05;1,98;0;0;
1111;-22,81;14,73;-31,15;-14,66;2,14;2,36;3,22;1,86;0;0;
1130;-22,81;14,73;-31,15;-14,66;2,08;2,4;2,99;1,82;0;0;
1146;-25,56;12,26;-34,99;-16,78;2,15;2,09;2,92;1,96;0;0;
1164;-24,65;9,33;-42,01;-20,87;2,06;2,11;3,19;2,1;0;0;
1182;-23,21;3,6;-39,31;-16,54;2,34;2,13;2,69;1,93;0;0;
1201;-29,62;11,03;-33,59;-13,16;2,05;2,42;2,29;1,98;0;0;
1217;-25,59;11,69;-33,89;-15,75;2,14;2,37;2,01;2,01;0;0;
1236;-32,8;10,11;-36,21;-12,95;2,48;2,63;2,56;1,91;0;0;
1254;-32,56;9,49;-33,68;-13,52;2,49;2,55;2,45;1,86;0;0;
1273;-29,59;10,04;-40,44;-19,22;2,77;2,46;2,54;1,71;0;0;
1290;-29,59;10,04;-40,44;-19,22;2,94;2,21;2,74;1,73;0;0;
1309;-27,66;11,04;-31,53;-13,71;2,89;2,21;2,95;1,7;0;0;
1328;-31,03;6,76;-30,35;-15;3,12;2,14;3,04;1,71;0;0;
1345;-25,27;9,63;-36,3;-14,73;3,11;2,1;3,34;1,75;0;0;
1364;-28,06;11,26;-43,11;-16,36;2,9;2,08;3,04;1,79;0;0;
1383;-23,13;7,98;-36,11;-17,66;2,6;2,15;3,49;1,98;0;0;
1402;-31,24;14,34;-40,73;-12,96;2,68;2,41;3,55;2,03;0;0;
1418;-23,51;8,75;-33,15;-10,48;2,6;2,45;3,41;1,98;0;0;
1436;-26,04;8,73;-38;-14,46;2,48;2,36;3,14;2,09;0;0;
1456;-26,55;9,22;-38,41;-17,77;2,45;2,34;3,27;2,18;0;0;
1476;-32,29;11,39;-33,54;-13,01;2,77;2,13;3,21;2,05;0;0;
1495;-28,23;10,89;-40,67;-15,68;2,78;2,31;2,78;2,2;0;0;
1514;-24,75;4,95;-36,64;-12,96;2,68;2,48;2,56;2,29;0;0;
1532;-30,02;3,96;-37,6;-15,88;2,93;2,36;2,61;2,18;0;0;
1551;-30,02;3,96;-37,6;-15,88;3,26;2,32;2,68;1,86;0;0;
1570;-23,03;10,72;-27,15;-13,74;3,29;2,44;2,53;1,95;0;0;
1590;-23,92;9,32;-47,96;-17,79;3,18;2,09;2,52;1,97;0;0;
1609;-24,48;11,6;-35,95;-21,91;2,9;2,15;2,74;1,84;0;0;
1627;-34,09;7,53;-36,18;-15,29;2,88;1,97;3,06;1,85;0;0;
1647;-25,61;12,01;-36,99;-12,63;2,78;2,24;2,86;2,02;0;0;
1667;-31,59;7,02;-31,73;-12,96;2,54;2,37;3,13;2,29;0;0;
1683;-24,64;7,8;-33,86;-12,77;2,64;2,6;3,25;2,59;0;0;
1701;-28,4;15,31;-38,53;-15,27;2,52;2,73;3,03;2,54;0;0;
1719;-20,62;8,7;-36,72;-14,56;2,83;2,67;3,02;2,27;0;0;
1736;-28,85;9,88;-41,89;-9,94;2,84;2,52;2,95;2,21;0;0;
1756;-23,4;6,02;-38,43;-16,87;2,97;2,47;2,93;2,34;0;0;
1775;-29,12;11,42;-35,25;-18,58;2,9;2,01;2,56;1,93;0;0;
1793;-23,89;10,02;-39,28;-13,1;2,96;2,03;2,41;2,01;0;0;
1811;-27,8;9,99;-37,21;-14,99;2,95;1,92;2,5;2,03;0;0;
1832;-27,9;8,73;-34,26;-19,52;2,63;1,99;2,23;2,19;0;0;
1850;-27,9;8,73;-34,26;-19,52;2,67;2,18;2,13;2,25;0;0;
1868;-27,67;11,03;-33,66;-19,05;2,47;2,21;2,31;2,46;0;0;
1886;-25,9;8,63;-41,23;-14,45;2,3;2,17;2,47;2,6;0;0;
1903;-27,78;12,2;-37,37;-11,41;2,43;2,4;2,49;2,6;0;0;
1924;-24,99;11,07;-34,37;-15,3;2,55;2,4;2,63;2,47;0;0;
1943;-25,88;4,51;-36,61;-17,67;2,69;2,49;2,62;2,31;0;0;
1961;-26,49;15,46;-37,45;-14,35;2,83;2,97;2,6;2,15;0;0;
1979;-31,16;7,02;-39,64;-16,74;3,11;2,98;2,14;1,97;0;0;
1999;-30,59;14,43;-38,3;-16,82;3,08;3,05;2;2,02;0;0;
2015;-27,77;12,37;-39,49;-16,95;3,09;2,79;2,09;2,15;0;0;
2034;-15;8,77;-34,86;-16,66;3,03;2,97;2,09;2,16;0;0;
2050;-15;8,77;-34,86;-16,66;3,21;2,77;2,13;2,15;0;0;
2067;-25,01;18,52;-38,39;-14,33;3,07;2,73;2,16;2,24;0;0;
2085;-26,81;3,35;-36,58;-19,52;2,94;2,94;2,14;2,25;0;0;
2105;-24,05;7,73;-39,91;-17,78;2,8;2,8;2,01;2,02;0;0;
2123;-25,07;13,6;-39,57;-17,42;2,73;2,84;2,19;1,99;0;0;
2142;-27,48;12,54;-39,4;-21,11;2,3;2,65;2,25;2,17;0;0;
2159;-27,49;13,22;-32,56;-14,46;1,98;2,66;2,37;2,2;0;0;
2177;-24,53;8,46;-39,55;-14,71;2;2,53;2,45;1,94;0;0;
2196;-27,98;9,1;-38,64;-13,27;1,95;2,53;2,45;2,1;0;0;
2213;-23,6;10,7;-37,69;-14,83;2,13;2,46;2,41;2,1;0;0;
2231;-23,6;10,7;-37,69;-14,83;2,2;2,21;2,27;2,11;0;0;
2249;-28,78;7,27;-34,49;-18,91;2,28;2,32;2,33;2,06;0;0;
2267;-29,34;11,79;-36,46;-15,25;2,52;2,35;2,39;2,33;0;0;
2287;-30,15;9,22;-41,28;-17,67;2,56;2,1;2,5;2,33;0;0;
2308;-24,08;9,05;-40,33;-14,76;2,74;2,42;2,88;2,53;0;0;
2326;-24,53;10,23;-33,4;-16,78;2,87;2,43;2,9;2,55;0;0;
2344;-26,48;11,69;-41,62;-18,59;2,83;2,46;3,03;2,51;0;0;
2361;-24,74;12,56;-40,14;-16,2;2,8;2,48;2,88;2,17;0;0;
2385;-24,21;7,01;-40,65;-13,21;2,54;2,38;3,16;2,2;0;0;
2402;-23,37;9,49;-39,71;-14,76;2,69;2,36;2,77;2,15;0;0;
2419;-23,25;8,24;-34,24;-15,68;2,53;2,27;2,72;1,89;0;0;
2438;-29;4,71;-37,73;-9,56;2,7;2,31;2,63;1,93;0;0;
2455;-29;13,72;-35,45;-17,86;2,72;2,62;2,56;2,12;0;0;
2473;-24,76;3,96;-35,73;-13,01;2,83;2,56;2,71;2,18;0;0;
2490;-24,76;3,96;-35,73;-13,01;3,01;2,55;2,64;2,2;0;0;
2513;-27,88;13,02;-34,34;-17,37;2,69;2,82;2,88;2,21;0;0;
2529;-27,88;13,02;-34,34;-17,37;2,37;2,88;3,15;2,38;0;0;
2545;-28,09;7,5;-39,67;-16,63;1,98;2,79;3,4;2,17;0;0;
2563;-29,32;11,76;-37,33;-17,2;1,84;2,6;3,57;1,93;0;0;
2581;-23,61;4,85;-35,6;-14,56;2,17;2,65;3,49;1,93;0;0;
2601;-27,19;4,91;-39,63;-15,05;2,26;2,61;3,41;2,09;0;0;
2618;-25,35;9,11;-34,84;-16,91;2,42;2,64;3,18;1,95;0;0;
2637;-25,46;7,67;-36,46;-14,98;2,61;2,36;2,73;1,93;0;0;
2654;-28,56;10,06;-30,04;-14,92;2,82;2,72;2,99;2,02;0;0;
2673;-27,57;12,83;-38,43;-17,29;2,68;2,68;2,8;1,99;0;0;
2689;-27,57;12,83;-38,43;-17,29;2,28;2,43;2,84;1,75;0;0;
2707;-26,45;10,43;-35,04;-12,42;2,44;2,47;2,59;1,74;0;0;
2725;-27,18;12,01;-35,4;-15,14;2,44;2,41;2,64;1,79;0;0;
2743;-28,76;14,43;-34,97;-16,18;2,53;2,22;2,69;1,79;0;0;
2760;-26,44;12,04;-37,18;-17,29;2,69;2,22;2,87;1,95;0;0;
2777;-24,41;8,46;-36,87;-15,46;2,8;2,31;3,11;1,92;0;0;
2797;-25,05;5,49;-36,94;-18,14;2,64;2,28;3,06;2;0;0;
2814;-23,26;9,45;-40,76;-19,31;2,64;2,12;3,02;2,1;0;0;
2832;-27,67;8,7;-36,08;-17,43;2,36;2,18;3;2,09;0;0;
2850;-27,67;8,7;-36,08;-17,43;2,12;2,32;3,12;2,08;0;0;
2867;-30,61;9,7;-38,47;-16,4;1,98;2,33;2,79;2,3;0;0;
2884;-26,52;13,28;-38,8;-12,58;2,09;2,54;2,63;2,48;0;0;
2901;-28,32;9,43;-34,66;-11,5;2,11;2,86;2,73;2,62;0;0;
2918;-29,62;10,39;-35,85;-19,61;2,33;2,83;2,31;2,37;0;0;
2935;-25,26;7,97;-33,26;-16,18;2,48;2,82;2,26;2,32;0;0;
2951;-27,46;8,58;-35,98;-14,84;2,52;2,66;2,44;2,35;0;0;
2968;-27,46;8,58;-35,98;-14,84;2,49;2,65;2,77;2,22;0;0;
2986;-29,96;13,37;-43,14;-11,16;2,32;2,45;3,32;2,19;0;0;
3003;-23,84;9,2;-34,59;-14,14;2,3;2,25;3,69;2,04;0;0;
3020;-23,75;12,41;-38,19;-17,17;2,37;2,33;3,37;1,95;0;0;
3040;-25,67;9,09;-34,6;-17,63;2,41;2,11;3,56;1,96;0;0;
3057;-30,31;11,72;-33,75;-11,18;2,42;2,03;3,5;2,17;0;0;
3077;-28,24;12,96;-31,19;-17,04;2,49;2,12;3,18;2,09;0;0;
3095;-30,42;10,69;-32,45;-10,15;2,65;2,05;2,78;2,13;0;0;
3118;-31,32;13,47;-36,26;-12,67;2,4;2,15;2,42;2,18;0;0;
3135;-27,13;7,68;-42,95;-15,11;2,38;2,15;2,39;1,97;0;0;
3152;-27,1;9,04;-39,47;-18,67;2,45;2,33;2,5;1,89;0;0;
3169;-27,1;9,04;-39,47;-18,67;2,37;2,42;2,66;1,93;0;0;
3185;-24,07;12,29;-35,09;-15,06;2,48;2,41;2,47;2,06;0;0;
3203;-34,66;9,91;-35,38;-14,36;2,74;2,27;2,46;2,01;0;0;
3219;-29,32;12,41;-36,82;-18,14;2,46;2,31;2,47;2,01;0;0;
3239;-26,88;7,34;-38,4;-14,65;2,68;2,23;2,53;1,77;0;0;
3259;-28,7;5,92;-28,08;-2,34;2,81;2,29;2,66;1,96;0;0;
3280;-23,51;10,6;-41,21;-15,15;2,69;2,35;2,81;1,93;0;0;
3297;-30,65;11,31;-34,25;-15,24;2,53;2,32;2,82;1,95;0;0;
3314;-26,88;9,83;-38,1;-20,04;2,46;2,16;2,91;1,92;0;0;
3330;-26,88;9,83;-38,1;-20,04;2,4;2,1;2,89;1,93;0;0;
3348;-27,14;12,59;-32,37;-17,69;2,36;2,26;2,6;2,23;0;0;
3366;-28,38;10,44;-39,52;-14,5;2,38;2,04;2,14;2,18;0;0;
3384;-22,29;7,77;-35,36;-12,12;2,32;1,98;2,03;2,27;0;0;
3401;-26,94;9,45;-37,16;-17,37;2,34;2,36;2,15;2,07;0;0;
3418;-30,81;7,41;-35,7;-13,04;2,34;2,76;2,19;2,19;0;0;
3437;-30,59;11,15;-28,16;-15,52;2,28;2,81;2,59;2,43;0;0;
3457;-23,51;10,14;-43,46;-12,49;2,57;2,69;2,8;2,07;0;0;
3476;-29,23;11,23;-40,24;-18,14;2,62;2,67;3,04;2,17;0;0;
3494;-30,82;10,83;-44,05;-15,49;2,89;2,68;3,19;2,32;0;0;
3512;-29,34;9,95;-32,65;-11,28;2,87;2,51;3,43;2,42;0;0;
3529;-29,34;9,95;-32,65;-11,28;2,96;2,17;3,36;2,41;0;0;
3547;-26,44;8,97;-35,43;-14,81;2,71;2,33;3,08;2,44;0;0;
3564;-29,12;13,4;-45,23;-14,67;2,75;2,39;2,95;2,56;0;0;
3582;-26,18;11,68;-37,31;-17,37;2,78;2,12;3,01;2,72;0;0;
3602;-23,08;10,78;-33,39;-18,88;2,62;2,22;3,02;2,63;0;0;
3620;-24,37;10,73;-37,58;-18,91;2,73;2,27;3,1;2,52;0;0;
3639;-22,79;11,18;-37,95;-17,15;2,82;1,96;2,94;2,53;0;0;
3655;-27,86;13,01;-37,11;-11,38;2,59;2,15;2,91;2,49;0;0;
3673;-27,61;5,23;-35,43;-15,44;2,49;2,32;2,65;2,22;0;0;
3690;-27,61;5,23;-35,43;-15,44;2,46;2,46;2,63;1,97;0;0;
3710;-25,93;16,03;-43,24;-14,11;2,32;2,56;2,31;2,08;0;0;
3729;-26,28;11,07;-35,97;-15,12;2,09;2,65;2,3;1,93;0;0;
3746;-28,02;14,16;-39,52;-18,81;2,05;2,91;2,43;1,98;0;0;
3763;-25,93;11,41;-35,13;-12;2,15;2,91;2,4;2,03;0;0;
3784;-22,66;8,89;-37,04;-18,16;2,58;2,73;2,44;1,98;0;0;
3803;-29,33;7,61;-37,69;-13,5;2,8;2,59;2,41;2,03;0;0;
3820;-29,39;5,48;-36,57;-18,85;2,77;2,57;2,58;2;0;0;
3838;-32,57;11,26;-36,21;-14,96;2,69;2,29;2,44;1,91;0;0;
3857;-22,25;13,19;-37,14;-11,85;3,03;2,31;2,2;1,8;0;0;
3877;-27,63;7,38;-39,11;-16;3,12;2,45;2,2;1,84;0;0;
3894;-29,35;8,63;-36,81;-18,16;2,79;2,69;2,37;2,09;0;0;
3911;-25,6;5,42;-41,04;-18,15;2,78;2,49;2,29;2,1;0;0;
3928;-25,6;5,42;-41,04;-18,15;2,83;2,42;2,11;2,01;0;0;
3946;-27,89;8,72;-37,84;-10,76;2,91;2,4;2,25;2,26;0;0;
3967;-24,42;12,37;-38,92;-19,95;2,83;2,38;2,45;2,25;0;0;
3984;-30,12;8,03;-43,33;-14,24;3,01;2,48;2,55;2,34;0;0;
4002;-27,62;13,47;-37,44;-13,51;2,85;2,13;2,35;2,17;0;0;
4018;-31,12;11,12;-35,26;-19,86;2,96;2,25;2,42;2,2;0;0;
4038;-26,24;8,27;-27,44;-13,14;2,83;2,2;2,37;2,38;0;0;
4054;-30,48;7,18;-42,56;-14,44;2,81;2,21;2,52;2,28;0;0;
4073;-32,32;8,17;-33,16;-16,1;2,54;2,1;2,65;2,18;0;0;
4092;-24,7;8,47;-42,58;-15,93;2,61;2,16;2,87;2,17;0;0;
4109;-24,7;8,47;-42,58;-15,93;2,81;2,12;3,33;2,05;0;0;
4127;-27,11;9,48;-33,76;-13,12;2,75;2;3,43;1,98;0;0;
4146;-31,59;12,87;-36,79;-14,98;2,74;2,35;3,33;1,79;0;0;
4164;-31,59;12,87;-36,79;-14,98;2,94;2,69;3,29;1,73;0;0;
4184;-29,63;8,72;-37,66;-16,18;2,92;2,66;3,14;1,68;0;0;
4203;-26,75;10,52;-40,76;-13,88;2,83;2,57;2,91;1,82;0;0;
4220;-23,74;11,78;-34,87;-10,41;2,94;2,75;3,14;1,93;0;0;
4238;-28,76;11,22;-41,86;-18,14;2,92;2,63;3,48;1,94;0;0;
4255;-25,82;13,38;-34,52;-16,56;2,74;2,34;3,49;1,96;0;0;
4278;-18,31;13,77;-32,82;-13,98;2,58;2,45;3,48;1,96;0;0;
4295;-25,43;12,72;-34,87;-17,15;2,76;2,52;3,65;1,9;0;0;
4314;-31,8;11,66;-46,91;-14,38;2,74;2,44;3,49;1,84;0;0;
4332;-22,71;10,48;-39,63;-17,29;2,73;2,33;3,17;1,78;0;0;
4351;-20,48;11,66;-39,11;-19,14;2,84;2,45;2,49;1,98;0;0;
4368;-20,48;11,66;-39,11;-19,14;2,99;2,58;2,57;2,22;0;0;
4386;-27,12;4,5;-41,97;-16,68;2,55;2,78;2,41;2,19;0;0;
4403;-29,39;10,67;-33,9;-14,23;2,6;2,69;2,43;2,18;0;0;
4419;-31,86;8,84;-37,8;-19,82;2,74;2,79;2,45;2,17;0;0;
4437;-31,86;8,84;-37,8;-19,82;2,97;2,67;2,57;1,96;0;0;
4457;-25,84;4,32;-39,3;-13,21;3,01;2,44;2,98;1,66;0;0;
4477;-25,61;3,75;-33,79;-11,06;2,94;2,39;3,13;1,63;0;0;
4496;-27,66;13,02;-40,25;-14,25;2,93;2,49;2,99;1,78;0;0;
4514;-27,19;11,71;-42;-17,55;2,57;2,5;3,48;1,84;0;0;
4531;-29,75;9,88;-37,76;-13,4;2,29;2,49;3,58;2,03;0;0;
4548;-29,75;9,88;-37,76;-13,4;2,18;2,55;3,32;2,18;0;0;
4570;-23,85;8,3;-42,86;-16,19;1,92;2,59;3,65;2,35;0;0;
4587;-24,13;7,19;-38,55;-15,8;1,77;2,41;3,66;2,31;0;0;
4607;-26,46;9,74;-32,03;-16,32;1,79;2,17;3,65;2,14;0;0;
4625;-24,96;9,69;-40,88;-16,26;2,03;2,27;3,22;2,4;0;0;
4644;-22;12,11;-35,44;-16,1;2,21;2,32;3,33;2,49;0;0;
4662;-26,06;2,53;-33,23;-17,92;2,21;2,58;3,04;2,39;0;0;
4679;-23,46;9,83;-40,72;-15,04;2,42;2,46;3,32;2,23;0;0;
4699;-23,22;8,33;-36,94;-16,19;2,59;2,49;3,42;2,42;0;0;
4718;-31,31;11,66;-37,91;-15,59;2,56;2,57;2,78;2,36;0;0;
4734;-29,01;11,97;-40,64;-19,11;2,61;2,52;2,84;2,09;0;0;
4752;-24,67;8,27;-35,88;-13,56;2,41;2,48;2,93;1,97;0;0;
4772;-29,57;13,18;-40,23;-15,11;2,69;2,39;3,13;2,15;0;0;
4791;-29,57;13,18;-40,23;-15,11;2,76;2,54;3,34;2,16;0;0;
4808;-26,66;6,14;-36,08;-14,63;2,89;2,49;3,39;2,04;0;0;
4828;-27,16;10,48;-41,34;-18,33;2,82;2,49;3,37;2,14;0;0;
4846;-35,01;16,09;-40,24;-15,06;3,39;2,65;3,38;2,11;0;0;
4862;-26,91;12,32;-37,53;-12,37;3,45;2,52;3,1;2,12;0;0;
4879;-31,12;6,23;-34,99;-16,85;3,26;2,65;2,89;2,18;0;0;
4897;-24,4;18,59;-30,69;-14,45;3,03;2,77;2,99;2,17;0;0;
4917;-24,33;9,58;-43,2;-12,78;2,83;2,96;2,97;2,3;0;0;
4936;-28,68;10,17;-38,2;-12,81;2,76;3,04;2,69;2,31;0;0;
4952;-23,87;13,09;-43,29;-10,92;2,32;2,95;2,58;2,29;0;0;
4970;-23,87;13,09;-43,29;-10,92;2,37;2,74;2,39;2,14;0;0;
4990;-30,5;11,43;-31,63;-14,26;2,23;2,69;2,66;2,13;0;0;
5009;-31,08;11,04;-36,41;-15,56;2,32;2,59;2,43;2,1;0;0;
5027;-31,11;10,2;-41,75;-17,56;2,6;2,36;2,51;1,93;0;0;
5046;-25,55;8,08;-39,87;-11,16;2,51;2,38;2,66;2;0;0;
5062;-29,18;14,83;-39,27;-10,23;2,56;2,35;2,78;2,09;0;0;
5079;-26,8;8,11;-32,85;-18,51;2,65;2,38;2,65;2,07;0;0;
5096;-29,87;12,45;-33,21;-13,24;2,72;2,42;2,48;2,06;0;0;
5113;-20,72;7,49;-37,18;-17,36;2,77;2,68;2,59;1,96;0;0;
5131;-30,22;12,77;-33,46;-12,26;2,8;2,78;2,69;2,42;0;0;
5148;-30,22;12,77;-33,46;-12,26;2,93;2,98;2,61;2,75;0;0;
5165;-30,57;11,18;-33,73;-11,86;2,69;2,96;2,76;2,66;0;0;
5182;-32,33;7,15;-31,98;-9,94;2,8;2,86;2,8;2,81;0;0;
5199;-26,36;13,37;-35,9;-14,97;2,69;2,71;2,69;2,88;0;0;
5217;-23,3;6,66;-37,94;-15,22;2,67;2,25;2,57;2,66;0;0;
5234;-27,04;8,15;-41,98;-14,34;2,36;2,03;2,61;2,28;0;0;
5250;-27,04;8,15;-41,98;-14,34;2,15;2,07;2,64;2,08;0;0;
5267;-23,71;10,89;-41;-17,7;2,08;2,01;2,86;2,08;0;0;
5285;-25,96;9,57;-41,22;-12,17;2,07;1,98;2,92;2,25;0;0;
5305;-21,37;8,79;-71,15;-14,21;2,2;2,11;4,5;2,5;0;0;
5324;-26,54;9,52;-63,09;-0,42;2,09;2,24;10,69;5,6;0;0;
5340;-25,28;13,61;-37,53;-26,07;2,16;2,26;11,67;6,56;0;0;
5359;-32,31;14,15;-48,83;-5,43;2,22;2,27;13,36;9,4;0;1;
5376;-27,65;15,62;-0,69;4,56;2,31;2,28;15,28;11,8;0;1;
5393;-23,09;11,7;-37,06;-9,76;2,28;2,36;15,48;11,82;0;1;
5410;-23,09;11,7;-37,06;-9,76;2,2;2,48;10,65;10,07;0;1;
5426;-29,33;11,74;-35,7;-12,72;2,28;2,75;8,48;8,61;0;1;
5443;-30,4;3,23;-38,07;-6,11;2,32;3,07;7,66;7;0;1;
5458;-27,03;8,96;-40,95;-8,26;2,25;3,21;5,46;8,4;0;1;
5479;-32,76;21,05;-37,22;-18,56;2,55;3,43;4,32;6,66;0;1;
5499;-45,41;35,57;-35,58;-9,84;3,35;6,28;4,69;7,21;0;1;
5519;-27,33;87,94;-37,52;-11,37;4,69;16,27;5,05;8,36;0;1;
5536;-32,12;-20,63;-30,76;-13,45;6,3;23,01;5,03;7,98;0;1;
5556;-31,63;-32,78;-37,33;-11,82;9,75;26,07;5;6,47;0;1;
5579;-24,9;20,32;-39,36;-12,07;13,08;30,22;4,91;5,28;0;1;
5598;-48,87;23,4;-30,28;-15,26;21,16;30,06;5,22;5,63;0;1;
5616;3,95;24,24;-35,23;-15,42;26,37;30,13;4,81;5,53;0;1;
5634;69,54;10,52;-33,83;-13;34,21;26,3;4,82;5,44;0;1;
5650;69,54;10,52;-33,83;-13;40,62;26,82;4,85;6,07;0;1;
5667;-22,8;46,99;-44,61;-17,08;45,43;26,7;4,85;5,96;0;1;
5684;19,36;40,49;-38,55;-15,16;42,22;31,3;4,83;5,79;0;1;
5701;30,52;26,81;-41,54;-49,39;42,71;37,41;4,81;6,09;0;0;
5719;-26,34;7,73;-22,25;-7,33;42,84;33,19;7,03;9,37;0;0;
5737;-45,86;20,93;-17,12;-23,64;36,72;36,02;9,19;10,07;0;0;
5756;-32,73;10,16;-65,89;-16,37;25,55;35,05;10,31;10,74;0;0;
5775;-46,46;10,81;-34,66;-8,77;23,7;28,08;10,23;10,66;0;0;
5796;-21,61;17,98;-22,71;-10,38;20,65;24,69;10,89;11,56;0;0;
5816;-2,22;40,18;-27,49;-12,69;11,66;18,07;10,62;9,55;0;0;
5836;14,24;50,23;-36,61;-26,59;11,91;18,92;9,11;8,82;0;0;
5852;-29,54;-6,01;-30,19;-12,2;11,47;15,06;7,93;10,25;0;0;
5868;-29,54;-6,01;-30,19;-12,2;12,74;16,08;8,13;13,14;0;0;
5885;-30,17;3,36;-38,67;-13,49;11,82;16,18;7,47;13,09;0;0;
5904;-28,39;72,34;-42,07;-10,61;11,59;19,32;6,11;12,25;0;0;
5921;-21,51;44,81;-45,57;-19,39;11,34;19,79;6,07;11,66;0;0;
5940;-39,96;-187,56;-34,54;-14;7,75;26,18;5,27;10,51;0;0;
5958;-31,84;-59,98;-38,68;-15,54;5,5;34,58;4;7,34;0;0;
5975;-21,64;90,03;-40,61;-19,82;5,27;40,12;3,61;4,67;0;0;
5993;-32,45;-40,63;-36,46;-17,85;5,77;48,9;3,5;4,55;0;0;
6009;-32,45;-40,63;-36,46;-17,85;5,77;53,97;3,06;4;0;0;
6032;-13,16;-5,93;-42,76;-9,52;5,99;53,91;3,21;3,31;0;0;
6050;-13,16;-5,93;-42,76;-9,52;6,17;45,83;3,73;3,15;0;0;
6065;-29,92;12,88;-23,78;-16,34;4,9;38,29;3,93;3,06;0;0;
6083;-32,88;-8,47;-36,61;-12,48;4,17;34,23;4,51;2,96;0;0;
6102;-25,23;11,43;-43,3;-15,29;3,75;28,61;4,8;3,01;0;0;
6124;-28,78;-37,58;-34,02;-19,34;3,58;28;4,88;3,1;0;0;
6143;-33,26;24,41;-34,17;-17,65;3,24;31,11;4,57;2,72;0;0;
6160;-16,39;31,7;-29,49;-11,38;3,57;33,63;4,59;2,64;0;0;
6177;-21,81;-5,18;-39,08;-14,14;4,05;31,81;4;2,76;0;0;
6197;-22,62;15,34;-32,11;-15,65;3,79;28,72;4,16;2,58;0;0;
6214;-28,66;44,86;-30,53;-12,59;4,05;27,98;3,95;2,99;0;0;
6232;-19,51;57,27;-34,28;-11,32;4,17;24,45;3,9;3,4;0;0;
6249;-19,51;57,27;-34,28;-11,32;4,17;21,61;4,14;3,72;0;0;
6267;-24,75;6,96;-35,01;-14,89;3,7;19,76;4,1;3,94;0;0;
6287;-29,54;-61,29;-40,51;-15,25;3,32;21,24;4,09;3,83;0;0;
6305;-30,86;-18,41;-33,36;-15,32;3,25;26,11;3,81;3,76;0;0;
6325;-32,46;12,91;-34,37;-14,72;3,02;22,87;3,52;3,58;0;0;
6345;-31,34;15,07;-44,94;-15,45;2,64;19,15;3,22;2,97;0;0;
6363;-24,37;8,77;-39,37;-16,81;2,67;15,34;2,96;2,34;0;0;
6383;-28,37;79,75;-35,35;-14,47;2,72;16,64;3,25;2,16;0;0;
6403;-32;-8,22;-37,69;-16,12;2,92;13,71;3,83;2,4;0;0;
6421;-29,54;7,3;-33,03;-17,22;2,87;11,98;4,03;2,3;0;0;
6440;-23,74;11,17;-36,09;-14,86;2,98;11,76;3,94;2,36;0;0;
6457;-24,66;10,16;-32,71;-16,26;3;11,48;3,87;2,4;0;0;
6475;-26,78;39,43;-33,62;-14,32;3,03;12,78;4,37;2,48;0;0;
6493;-19,58;83,73;-38,04;-21,45;3,07;13,65;3,7;2,53;0;0;
6510;-19,58;83,73;-38,04;-21,45;3,15;17,01;2,89;2,59;0;0;
6530;-21,81;11,73;-31,07;-13,37;3,2;17,16;3,48;2,47;0;0;
6548;-32,37;3,71;-38,31;-18,54;2,9;17,3;3,93;2,61;0;0;
6567;-31,12;3,65;-32,07;-9,15;3,06;16,78;4,19;2,82;0;0;
6583;-33,5;17,12;-42,23;-17,38;3,11;16,76;4,22;2,79;0;0;
6602;-28,84;15,35;-44,3;-16,44;3,06;11,22;4,26;2,5;0;0;
6621;-33,87;4;-37,15;-10;3,16;7,06;4,75;2,48;0;0;
6641;-18,19;0,63;-35,74;-19,6;3,22;7,17;3,96;2,72;0;0;
6660;-29,63;6,99;-41,84;-18,02;3,01;7,35;3,55;2,65;0;0;
6676;-28,15;10,84;-36,95;-11,92;2,87;7,42;3,3;2,47;0;0;
6696;-27,45;8,78;-32,51;-9,01;2,65;9,2;3,53;2,67;0;0;
6714;-31,17;4,04;-43,58;-17,92;2,51;8,67;3,37;3,02;0;0;
6735;-24,97;5,44;-38,8;-13,65;2,32;8,09;3,42;2,85;0;0;
6753;-32,06;16,1;-36,43;-18,66;2,55;8,42;3,5;2,55;0;0;
6773;-23,04;5,2;-36,44;-20,15;2,78;7,69;3,22;2,42;0;0;
6789;-23,04;5,2;-36,44;-20,15;2,94;5,1;3,08;2,21;0;0;
6806;-28,26;-0,31;-36,94;-19,39;2,8;4;2,87;2,07;0;0;
6827;-29,95;-1,49;-40,26;-17,08;2,58;4,51;2,77;1,87;0;0;
6844;-32,56;14,41;-32,8;-17,15;2,86;6,93;3,31;1,98;0;0;
6861;-32,59;-6,03;-43,8;-14,96;2,77;7,25;3,24;2,05;0;0;
6879;-28,38;16,06;-40,18;-15,72;2,58;8,03;3,6;2,07;0;0;
6895;-24,66;12,16;-37,81;-16,67;2,97;8,46;3,34;1,92;0;0;
6915;-24,51;9,22;-40,45;-14,44;2,95;7,1;3,63;1,86;0;0;
6935;-23,4;-2,44;-36,88;-16,96;2,75;5,78;3,1;1,91;0;0;
6952;-32,82;4,07;-23,74;-21;2,8;5,06;3,6;2;0;0;
6970;-32,82;4,07;-23,74;-21;2,8;4,8;4,16;2,14;0;0;
6987;-29,53;10,08;-39,46;-17,04;2,93;4,54;4,2;2,41;0;0;
7004;-25,8;5,69;-40,09;-14,82;2,82;5,65;4,35;2,57;0;0;
7020;-31,82;-2,13;-37,44;-12,62;2,7;7,76;4,31;2,57;0;0;
7038;-22,24;5,87;-40,46;-12,98;2,83;7,89;4,43;2,53;0;0;
7054;-27,18;15,52;-35,74;-13,47;2,89;9,97;3,64;2,42;0;0;
7073;-28,2;12,45;-35,94;-19,23;2,6;11,59;3;2,17;0;0;
7089;-28,2;12,45;-35,94;-19,23;2,43;12,08;3,03;1,72;0;0;
7107;-29,32;12,81;-38,36;-15,84;2,84;12,29;2,73;1,66;0;0;
7128;-29,64;17,02;-33,59;-14,41;2,7;12,5;2,8;1,69;0;0;
7147;-27,19;20,71;-34,52;-16,16;2,39;11,73;3,2;1,72;0;0;
7166;-27,18;14,03;-27,26;-15,8;2,74;10,32;3,24;1,93;0;0;
7187;-25,23;5,04;-37,63;-16,19;2,97;9,08;3,14;2,12;0;0;
7206;-33,44;15,22;-41,16;-13,57;2,97;9,76;3,43;2,1;0;0;
7224;-25,56;1,37;-41,59;-12,26;2,97;8,52;3,46;2,18;0;0;
7243;-30,14;-26,54;-44,75;-11,41;3,1;9,09;3,24;2,17;0;0;
7262;-23,73;9,32;-32,49;-14,54;2,95;9,02;3,3;2,25;0;0;
7280;-32,6;-20,71;-39,12;-15,05;2,95;9,45;3,15;2,16;0;0;
7297;-28,54;7,7;-35,51;-13,25;2,77;10,61;3,28;2,08;0;0;
7315;-28,76;7,62;-37,64;-16,51;2,92;9,98;3,2;2,1;0;0;
7334;-26,44;13,75;-35,4;-16,17;2,81;10,07;3,24;1,95;0;0;
7351;-26,44;13,75;-35,4;-16,17;2,6;8,54;2,95;1,64;0;0;
7368;-27,05;27,98;-33,56;-17,42;2,53;10,48;3,28;1,85;0;0;
7386;-27,97;8,51;-32,1;-16,6;2,69;10,05;3,22;1,76;0;0;
7404;-30;15,2;-35,74;-12,03;2,83;8,92;3,53;1,82;0;0;
7420;-29,4;3,7;-35,96;-16,41;2,77;7,57;3,42;1,91;0;0;
7437;-28,25;7,8;-41,29;-17,21;2,91;8,41;3,69;2,06;0;0;
7458;-25,81;20,4;-35,44;-19,94;3,07;10,25;3,58;2,06;0;0;
7475;-21,35;-3,89;-25,59;-12,63;3,24;9,19;3,82;2,22;0;0;
7492;-23,47;5,76;-32,47;-11,77;3,23;8,49;3,73;2,27;0;0;
7508;-23,47;5,76;-32,47;-11,77;3,08;8,26;3,71;2,33;0;0;
7525;-27,66;-3,93;-35,51;-11,67;3,35;9,78;3,66;2,38;0;0;
7544;-26,99;4,77;-30,55;-16,59;3,32;10,64;3,26;2,58;0;0;
7562;-27,28;0,95;-32,5;-15,71;3,34;7,79;3,32;2,38;0;0;
7581;-27,31;24,15;-35,27;-19,63;3,03;8,39;2,94;2,29;0;0;
7599;-29,62;30,76;-40,54;-16,1;3;9,26;2,69;2,2;0;0;
7617;-30,55;11,75;-38,31;-19,31;2,77;9,98;2,62;2,11;0;0;
7638;-28,36;2,35;-30,31;-14,14;2,72;9,1;2,71;1,91;0;0;
7655;-24,25;5,56;-37,95;-14,74;2,78;8,98;2,58;1,76;0;0;
7673;-32,27;9,57;-43,48;-16,8;2,88;8,21;2,37;1,94;0;0;
7690;-32,27;9,57;-43,48;-16,8;2,9;7,78;2,4;2,06;0;0;
7707;-29,47;9,3;-25,4;-10,14;2,97;5,57;2,72;2,13;0;0;
7724;-29,01;13,42;-35,23;-16,14;2,7;4,96;2,91;2,3;0;0;
7744;-29,28;33,55;-37,67;-14,45;2,59;4,12;3;2,7;0;0;
7763;-23,67;1,34;-39,11;-11,43;2,65;4,6;2,85;2,69;0;0;
7780;-30,3;19,48;-35,84;-13,37;2,67;6,25;2,92;2,65;0;1;
7797;-30,3;19,48;-35,84;-13,37;2,81;7,73;2,96;2,68;0;1;
7815;-7,31;-41,17;-39,72;-20,29;3,39;13,1;2,73;2,62;0;1;
7835;-25,5;83,7;-48,65;-76,64;5,44;22,2;5,98;5,15;0;1;
7853;-52,66;151,81;-51,53;-17,36;6,11;31,46;12,39;9;0;1;
7871;-52,66;151,81;-51,53;-17,36;6,79;40,14;18,93;12,87;0;1;
7890;-71,67;3,13;23,25;-4,14;10,44;46,55;22,08;17,21;0;1;
7912;-30,94;20,72;-47,13;-38,68;13,87;51,92;26,62;19,66;0;1;
7932;14,38;164,86;27,27;-9,71;16,37;58,69;35,14;22,22;0;0;
7952;-18,71;113,73;-3,24;-4,43;19,76;58,08;35,54;24,87;0;0;
7972;-12,46;-100,33;-48,66;-42,05;23,12;62,74;30,76;24,22;0;0;
7988;-12,46;-100,33;-48,66;-42,05;25,68;68,51;29,49;25,42;0;0;
8005;-106,56;23,1;-43,27;-13,45;26,82;70,2;30,79;26,63;0;0;
8025;-115,98;-65,91;-41,09;40,02;32,03;67,33;31,33;31,47;0;0;
8047;-24,92;158,71;-43,69;-24,66;29,7;67,47;21,68;29,28;0;0;
8065;-26,83;5,38;-24,85;-13,54;27,51;72,42;16,92;22,68;0;0;
8082;30,46;-60,8;-38,11;-16,19;25,97;64,5;15,31;19,53;0;0;
8101;-65,27;-47,46;-36,03;-14,52;22,88;54,71;9,27;15,24;0;0;
8118;-12,63;69,28;-38,67;-15,3;20,71;59,67;6,78;10,99;0;0;
8137;-32,45;133,42;-43,17;-39,24;15,59;59,41;3,73;3,99;0;0;
8154;-36,55;-18,5;-33,84;-14,61;15;55,95;3,53;5,8;0;0;
8174;-28,82;-124,42;-22,49;-9,92;14,23;68,96;3,29;6,71;0;0;
8191;-28,82;-124,42;-22,49;-9,92;12,05;84,33;3,72;7,76;0;0;
8211;-42,31;77,18;-39,63;-18,15;8,96;85,44;4,39;7,68;0;0;
8231;-32,7;92,17;-43,96;-17,09;10,74;81,47;4,7;7,68;0;0;
8249;-26,17;16,59;-39,62;-19,48;10,9;71,76;4,99;6,6;0;0;
8267;-38,14;27,27;-32,99;-12,31;10,09;66,1;4,64;5,39;0;0;
8286;-22,87;-47,5;-36,16;-17,66;11,66;49,56;4,51;5,05;0;0;
8303;-34,21;-21,65;-32,82;-12,67;10,22;40,4;4,07;4,37;0;0;
8321;-36,11;-3,24;-35,23;-16,54;9,51;36,2;4,23;4,41;0;0;
8339;-15;13,64;-26,02;-14,93;7,15;30,64;3,97;4,28;0;0;
8358;-1,89;-34,56;-40,81;-12,21;7,43;31,11;4,04;3,67;0;0;
8377;-26,86;10,79;-34,95;-14,72;7,67;33,02;4;2,72;0;0;
8394;-24,39;30,14;-33,94;-15,62;7,21;31,47;3,98;2,3;0;0;
8410;-24,39;30,14;-33,94;-15,62;7,47;28,24;3,38;2,14;0;0;
8426;-29,61;34,58;-29,93;-15,97;7,07;29,68;3,74;2,06;0;0;
8446;-25,49;9,87;-36,36;-14,43;6,47;27,89;3,95;2,01;0;0;
8462;-34,3;5,42;-43,4;-21,11;5,26;22,31;3,93;2,08;0;0;
8479;-30,8;11,5;-38,54;-16,98;4,22;18,67;4,33;2,18;0;0;
8496;-30,96;5,93;-40,83;-18,09;3,6;12,55;4,28;2,25;0;0;
8515;-153,28;-1,66;-36,48;-12,29;16,15;8,26;4,26;2,13;1;0;
8533;13,27;9,71;-21,34;-11,02;22,67;2,68;3,77;2,26;1;0;
8556;-35,11;6,67;-33,02;-12,63;32,83;2,89;3,75;2,4;1;0;
8577;-31,23;9,39;-40,07;-14,31;33,84;3,22;3,57;2,33;1;0;
8594;-27,44;7,28;-37,94;-12,79;30,04;3,57;4,28;2,38;1;0;
8610;-27,44;7,28;-37,94;-12,79;16,52;3,28;5,13;2,48;1;0;
8628;-32,29;11,53;-31,68;-15,08;16,72;3,4;4,49;2,01;1;0;
8646;-303,09;18,9;-47,97;-17,55;21,2;4,77;4,7;1,87;1;0;
8663;17,96;13,53;-30,5;-17,76;42,17;5,08;5,89;2,18;1;0;
8681;-116,64;19,7;2,39;-14,26;57,17;6,68;7,88;2,17;1;0;
8701;-83,04;12,23;-68,01;-19,98;85,6;6,91;10,47;2,65;1;0;
8721;-128,52;-0,43;-29;-5,86;93,82;7,18;14,98;3,41;1;0;
8739;272,65;0,4;-69,25;-31,13;118,55;6,78;25,34;5;1;0;
8760;-7,27;18,67;-29,43;-26,62;117,94;6,91;35,06;6,35;1;0;
8785;-8,07;-3,56;-19,47;-0,7;110,6;7,45;42,78;8,86;1;0;
8802;48,53;8,97;-71,59;-32,76;111,26;6,68;46,53;10,29;0;0;
8821;-56,23;3,78;-202,86;-15,12;96,33;7,28;52,19;10,72;0;0;
8842;145,22;8,94;-20,03;-36,32;111,45;7,23;55,79;11,49;0;0;
8862;2,27;4,58;-22,37;-9,21;74,71;6,29;53,96;11,18;0;0;
8883;70,13;5,49;-255,13;-27,13;72,74;5,87;54,45;10,57;0;0;
8899;-9,42;11,19;-35,68;-19,32;86,43;4,67;53,99;10,11;0;0;
8917;2,34;8,76;-80,64;-16,82;75,67;3,79;49,75;9,15;0;0;
8936;-37,67;9,77;-28,95;-9,85;67,48;3,42;37,8;7,73;0;0;
8953;-25,7;46,7;-32,28;-13,11;52,67;6,67;26,5;5,9;0;0;
8970;-25,7;46,7;-32,28;-13,11;51,89;9,76;20,51;4,49;0;0;
8988;-23,65;39,25;-36,13;-12,62;32,06;14,44;8,51;2,66;0;0;
9007;-53,52;26,75;-37;-18,04;26,73;16,06;5,57;2,48;0;0;
9025;-29,17;4,22;-39,91;-15,49;19,17;18,36;4,45;2,35;0;0;
9042;-35,08;-22,77;-50,23;-19,44;14,74;21,21;3,9;2,22;0;0;
9062;-44,92;-6,28;-22,71;-12,92;12,22;22,17;6,74;2,44;0;0;
9081;-21,2;18,42;-37,61;-18,84;10,53;19,38;6,6;2,64;0;0;
9100;-17,58;-10,86;-36,31;-20,08;9,66;16,79;6,64;2,46;0;0;
9117;-27,12;41,36;-32,94;-15,23;6,35;17,1;6,34;2,48;0;0;
9135;-12,52;6,03;-40,72;-14;7,79;17,11;6,49;2,58;0;0;
9154;-29,57;7,58;-35,96;-15,21;7,41;12,61;5,46;2,42;0;0;
9173;-24,24;85,64;-39,05;-13,5;5,73;14,29;3,65;2,42;0;0;
9190;-24,24;85,64;-39,05;-13,5;5,49;16,5;3,92;2,06;0;0;
9207;-27,45;-15,14;-32,81;-12,13;5,58;16,29;4,33;2,1;0;0;
9223;-27,1;24,81;-36,09;-16,31;4,46;18,91;3,87;2,05;0;0;
9243;-30,82;2,32;-38,62;-11,06;3,75;18,84;4,1;2,14;0;0;
9262;-27,7;3,86;-39,65;-18,27;3,71;20,44;4,07;2,26;0;0;
9280;-33,57;79,35;-40,61;-20,13;3,86;18,78;3,88;2,3;0;0;
9297;-21,9;-7,69;-33,96;-17,14;3,96;17,29;3,55;2,26;0;0;
9315;-29,14;25,12;-44,72;-15,85;3,98;17,18;3,62;2,19;0;0;
9333;-24,91;4,86;-26,98;-14,6;3,79;16,17;3,76;2,23;0;0;
9353;-23,95;6,22;-39,13;-13,45;3,86;14,42;3,43;2,08;0;0;
9370;-23,95;6,22;-39,13;-13,45;3,95;14,48;3,06;2,04;0;0;
9388;-25,3;58,26;-39,16;-16,76;3,47;13,97;3,83;1,94;0;0;
9406;-25,4;-63,6;-32,75;-13,35;3,48;17;3,75;2,03;0;0;
9424;-26,21;7,66;-36,45;-13,47;3,24;19,01;3,59;2,21;0;0;
9445;-23,02;27,36;-25,19;-16,32;2,82;19,27;3,82;2,38;0;0;
9464;-25,83;2,9;-41,21;-14,8;2,64;22,69;3,96;2,47;0;0;
9482;-26,63;20,31;-36,58;-17,39;2,57;22,45;3,81;2,35;0;0;
9503;-25,1;4,47;-38,29;-17,47;1,99;14,38;2,6;2,31;0;0;
9521;-29,43;0,22;-40,66;-17,06;1,91;15,63;3,08;2,3;0;0;
9539;-27,71;15,22;-38,91;-15,45;1,89;13,84;2,68;2,13;0;0;
9560;-29,32;10,43;-37,44;-21,25;1,91;11,35;2,46;2,14;0;0;
9578;-24,96;83,98;-31,09;-15,71;1,89;12,81;2,67;2,09;0;0;
9597;-19,49;-20,43;-35,13;-18,85;2,5;14,57;3,07;2,35;0;0;
9615;-30,45;10,23;-34,72;-14,39;2,88;12,77;2,8;2,59;0;0;
9634;-26,14;16,17;-38,15;-13,12;3,17;12,15;2,43;2,32;0;0;
9652;-21,02;9,69;-29,61;-8,9;4,89;11,41;3,72;2,49;0;0;
9672;-84,4;6,23;26,93;-2;9,31;9,82;11,47;4,17;0;0;
9688;-84,4;6,23;26,93;-2;13,74;4,14;18,79;5,59;0;0;
9705;1,79;31,4;-150,11;-9,98;24,24;3,2;29,15;6,86;1;0;
9722;-77,47;14,38;-104,39;-40,49;37,06;4,07;42,44;8,27;1;0;
9740;-65,57;3,33;4,65;-11,82;65,69;4,88;50,17;10,22;0;0;
9761;118,49;17,68;-27,55;-51,35;73,69;5,69;54,31;12,18;0;0;
9781;-88,08;-1,5;115,5;13,55;97,17;6,47;59,71;11,44;0;0;
9801;-218,84;14,69;-51,07;-10,92;114,55;7,97;55,49;11,17;0;0;
9822;-184,9;9,74;-34,35;-31,08;117,88;7,08;52,86;11,06;0;0;
9843;-178,78;9,96;-55,62;-18;115,21;7,18;46,02;9,88;0;0;
9865;-123,22;9,26;-65,55;-19,64;113,25;6,14;45,39;8,86;0;0;
9882;-79,84;9,74;-42,85;-14,83;107,05;6,09;33,55;6,92;0;0;
9900;70,14;7,72;-43,65;-16,71;93,74;5,55;22,49;4,96;0;0;
9918;85,4;-0,07;-19,84;-12,31;87,94;5,02;18,29;4,52;0;0;
9936;23,68;6,28;-41,6;-19,64;89,51;5,15;13,94;3,22;0;0;
9953;-24,87;18,58;-35,47;-12,27;90;5,53;8,12;2,9;0;0;
9972;74,16;3,32;-41,7;-19,91;85,48;5,37;5,8;2,89;0;0;
9989;74,16;3,32;-41,7;-19,91;84,18;5,11;5,11;2,85;0;0;
10006;-33,1;11,13;-31,77;-13,73;88,42;4,77;4,61;2,89;0;0;
10023;-246,9;12,82;-34,18;-15,98;86,45;4,71;3,62;2,76;0;0;
10043;-24,25;10,1;-26,58;-11,78;83,18;4,27;3,99;2,67;0;0;
10062;-47,08;11,96;-36,48;-21,84;73,97;3,72;4,15;2,53;0;0;
10081;-33,37;6,01;-40,15;-17,09;62,4;3,65;3,67;2,24;0;0;
10098;-17,71;18,58;-36,78;-13;40,3;5;3,2;2,11;0;0;
10117;-43,3;10,32;-35,48;-16,49;35,42;5,92;3,03;2,08;0;0;
10136;-90,74;13,53;-40,64;-18,36;19,31;8,3;3,14;2;0;0;
10153;-35,81;-12,99;-38,41;-10,55;16,23;11,83;2,66;2,29;0;0;
10170;-35,81;-12,99;-38,41;-10,55;17,63;15,16;2,73;2,45;0;0;
10188;-11,28;76,01;-28,22;-17,8;19,9;18,97;3,67;2,6;0;0;
10204;-42,15;-8,33;-41,64;-20,11;20,53;19;3,7;2,7;0;0;
10222;-24,96;-16,45;-37,9;-14,17;17,58;20,03;4,07;2,62;0;0;
10239;-22,44;3,78;-34,68;-10,9;12,43;20,68;4,29;2,62;0;0;
10257;-4,01;10,17;-35,43;-13,79;11,65;18,39;4,44;2,54;0;0;
10276;-35,09;-2,07;-36,9;-17,32;10,14;17,13;4,24;2,18;0;0;
10292;-30,66;54,56;-36,32;-13,47;8,79;15,74;3,59;2,36;0;0;
10312;-20,02;-24,02;-33,22;-12,48;7,79;15,81;3,92;2,44;0;0;
10334;-25,19;13,67;-43,53;-15,38;7,83;13,98;3,63;2,37;0;0;
10357;-17,75;11,29;-35,96;-13,99;5,81;12,59;3,4;2,16;0;0;
10376;-22,52;-0,2;-39,91;-17,04;3,51;14,19;3,35;2,06;0;0;
10401;-25,27;5,35;-33,12;-15,18;2,82;15,09;3,33;1,83;0;0;
10418;-15,78;9,93;-33,49;-15,69;3,17;13,54;3,22;1,73;0;0;
10435;-26,69;13,2;-32,27;-16,25;3,46;10,98;3,11;1,51;0;0;
10454;-24,95;10,19;-34,33;-16,54;3,57;10,67;2,88;1,54;0;0;
10473;-25,37;13,4;-36,26;-17,87;3,17;11,12;2,63;1,68;0;0;
10488;-25,37;13,4;-36,26;-17,87;3,04;9,22;2,43;1,78;0;0;
10507;-29,16;6,43;-39,49;-12,72;3,17;10,38;2,4;1,81;0;0;
10526;-28,44;25,54;-36,07;-15;2,71;11,03;2,27;1,92;0;0;
10544;-27,63;-5,17;-32,97;-14,81;2,53;10,52;2,79;2,05;0;0;
10562;-23,15;-9,49;-42,23;-14,84;2,38;11,45;3,12;1,83;0;0;
10582;-29,13;10,06;-37,78;-21,09;2,33;11,19;3,04;1,89;0;0;
10602;-24,01;9,07;-33,94;-15,65;2,11;10,15;2,91;1,9;0;0;
10620;-30,25;-11,55;-39,49;-19,11;2;9,21;3,15;2,31;0;0;
10637;-23,15;2,81;-39,91;-18,97;2,27;12,22;3,25;2,16;0;0;
10657;-24,41;51,21;-35,22;-19,65;2,62;12,96;2,36;2,4;0;0;
10675;-25,39;12,51;-38,32;-16,19;2,82;11,63;2,65;2,41;0;0;
10692;-26,96;10,65;-35,27;-15,41;3,03;11,04;2,92;2,34;0;0;
10711;-26,96;10,65;-35,27;-15,41;3,09;11,13;2,89;2,1;0;0;
10728;-22,06;15,91;-37,68;-15,2;2,88;10,75;2,87;2,05;0;0;
10745;-29,74;9,22;-36,82;-16,98;2,7;8,01;2,95;2,24;0;0;
10761;-27,35;24,97;-34,45;-18,41;2,77;6,75;2,99;2,43;0;0;
10779;-31,45;10,91;-39,9;-16,16;2,8;7,42;3,04;2,28;0;0;
10798;-29,93;48,33;-35,42;-13,22;2,65;7,68;2,76;2,62;0;0;
10816;-33,06;6,07;-35,5;-13,02;2,64;6,87;2,58;2,55;0;0;
10834;-28,13;13,11;-40,79;-16,83;2,49;5,74;2,39;2,31;0;0;
10853;-21,09;38,28;-35,82;-17,2;2,36;6,3;2,65;2,27;0;0;
10873;-28,88;-14,94;-33,33;-12,14;2,43;6,89;2,91;2,31;0;0;
10888;-28,88;-14,94;-33,33;-12,14;2,27;8,77;2,96;2,25;0;0;
10905;-29,36;2,47;-33,65;-12,78;2,38;8,2;3,02;2,35;0;0;
10923;-25,25;11,5;-36,17;-14,9;2,43;8,9;2,75;2,46;0;0;
10941;-33,32;54,65;-40,01;-16,47;2,73;11,79;2,78;2,36;0;0;
10962;-29,45;8,73;-37,97;-15,55;2,82;10,7;2,57;2,29;0;0;
10985;-27,8;27,6;-36,1;-12,49;2,88;10,31;2,54;2,15;0;0;
11003;-28,71;12,38;-36,66;-12,08;2,61;9,37;2,92;2,02;0;0;
11019;-26,69;10,21;-38,61;-15,92;2,65;8,4;2,92;1,84;0;0;
11038;-29,85;5,58;-31,54;-10,17;2,79;9,59;2,84;2,03;0;0;
11056;-26;2;-38,92;-17,68;2,76;6,51;2,72;2,21;0;0;
11073;-27,71;12,24;-37,21;-11,36;2,6;7,77;2,58;2,28;0;0;
11091;-29,52;3,61;-36,64;-12,17;2,65;7,67;1,91;2,36;0;0;
11108;-29,52;3,61;-36,64;-12,17;2,83;8,88;1,96;2,65;0;0;
11127;-31,1;-3,7;-37,48;-21,65;2,94;10,3;2,14;2,77;0;0;
11146;-28,07;13,87;-38,18;-11,17;2,91;9,06;2,18;2,64;0;0;
11163;-25,97;10,78;-37,56;-14,42;2,83;9,54;2,52;2,72;0;0;
11184;-28,41;9,61;-22,9;-14,48;2,78;8,06;3,23;2,53;0;0;
11203;-31,87;9;-37,69;-17,16;2,81;9,11;3,18;2,48;0;0;
11220;-22,18;9,19;-34,25;-11,29;2,68;8,04;3,1;2,43;0;0;
11239;-31,11;3,9;-35,94;-15,22;2,32;7,57;3,54;2,48;0;0;
11256;-26,46;-4,2;-31,51;-13,87;2,37;9,05;3,8;2,55;0;0;
11275;-27,65;12,33;-35,69;-12,16;2,43;10,46;3,51;2,45;0;0;
11294;-26,57;20,4;-38,5;-12,38;2,53;9,81;2,79;2,52;0;0;
11310;-26,57;20,4;-38,5;-12,38;2,59;9,85;2,6;2,4;0;0;
11327;-30,14;11,75;-40,14;-16,92;2,48;9,68;2,74;2,45;0;0;
11346;-21,92;50,86;-29,08;-16,06;2,98;10,93;2,76;2,29;0;0;
11364;-21,95;6,29;-36,39;-16,05;3,06;10,86;2,55;2,29;0;0;
11384;-32,05;13,03;-39,93;-17,16;2,77;8,45;2,59;2,1;0;0;
11403;-27,05;15,89;-37,88;-12,71;2,59;9,28;2,74;2,42;0;0;
11421;-27,44;-1,5;-40,99;-16,42;2,71;9,57;2,44;2,28;0;0;
11438;-24,05;30,18;-41,5;-18,74;2,59;11,14;2,9;2,58;0;0;
11459;-25,27;12,81;-36,72;-11,62;2,53;10,29;2,68;2,57;0;0;
11478;-21,54;7,55;-33,54;-14,94;2,96;9,08;2,47;2,96;0;0;
11498;-28,75;2,23;-42,55;-16,38;2,94;11,98;2,76;2,93;0;0;
11516;-24,7;13,67;-33,21;-14,12;2,94;10,07;3,16;2,77;0;0;
11533;-23,99;14,39;-32,91;-13,37;3,07;10,66;2,96;2,77;0;0;
11552;-29,7;12,75;-37,79;-20,28;3,09;9,8;3;2,46;1;0;
11569;-29,7;12,75;-37,79;-20,28;2,75;9,11;3,18;2,47;1;0;
11586;-26,19;11,69;-33,27;-16,66;2,53;7,2;3,48;2,21;1;0;
11606;-32,76;10,84;-37,58;-16,16;3,01;5,45;3,07;2,07;1;0;
11623;-22,99;9,77;-42,11;-17,5;3,26;5,27;2,75;1,95;1;0;
11642;-40,98;9,48;-40,27;-10,1;4,05;3,36;2,87;2,28;1;0;
11664;-87,41;6,35;-38,89;-16,85;24,21;4,12;2,68;2,23;1;0;
11682;51,65;20,61;-31,66;-13,49;43,72;4,42;2,79;2,17;1;0;
11700;-66,56;8,38;-39,41;-21,54;53,4;5,54;2,68;2,37;1;0;
11719;-7,98;11,8;-35,37;-15,16;62,12;6,49;2,81;2,59;1;0;
11735;25,77;9,06;-35,05;-11,1;73,03;7;2,6;2,47;1;0;
11753;-106,2;8,98;59,98;3,97;71,81;7,23;7,54;2,71;1;0;
11771;90,86;17,44;-79,14;-22,57;68,61;7,73;13,65;3,63;1;0;
11788;90,86;17,44;-79,14;-22,57;65,49;8,36;19,57;4,58;1;0;
11806;251,42;18,19;24,94;10,25;73,55;7,98;33,23;5,89;1;0;
11824;-119,66;10,96;-63,59;-20,38;84,98;7,94;40,88;7,2;1;0;
11843;7,07;9,86;-29,68;-13,06;92,91;7,58;48,68;9,49;0;0;
11862;73,11;13,6;-82,23;-22,16;93,7;6,52;45,87;9,61;0;0;
11883;110,1;14,49;-87,2;-21,23;98,07;4,94;45,38;9,26;0;0;
11901;13,06;18,01;-46,07;-19,13;99,04;3,84;41,51;8,72;0;0;
11920;46,59;10,46;-70,93;-17,85;86,16;3,52;31,31;6,66;0;0;
11939;-114,3;7,85;-20,92;-13,35;83,53;3,67;22,81;5,34;0;0;
11961;7,3;13,62;-28,09;-15,98;77,82;3,76;19,42;4,02;0;0;
11981;11,8;11,91;-47,84;-14,47;65,88;3,72;16,63;2,81;0;0;
12000;-31,28;10,83;-34,04;-12,4;45,5;3,69;13,29;2,48;0;0;
12023;-26,46;0,85;-36,98;-15,79;38,37;3,52;11,44;2,54;0;0;
12042;-2,57;6,61;-33,97;-15,19;24,44;5,3;8,71;2,54;0;0;
12063;-27,16;-10,06;-34,85;-14,93;19,02;8;6,3;2,3;0;0;
12082;-37,7;84,86;-52,66;-17,22;15,13;13,9;4,62;1,96;0;0;
12100;-14,63;16,02;-40,58;-20,85;12,25;16,09;2,86;1,99;0;0;
12118;-14,63;16,02;-40,58;-20,85;12,97;18,09;2,71;1,97;0;0;
12138;-32,07;28,65;-44;-18,65;18,43;17,48;3,87;1,78;0;0;
12155;-12,29;12,31;-35,5;-12,96;15,41;17,48;3,81;1,74;0;0;
12173;-12,29;12,31;-35,5;-12,96;15,44;17,74;3,93;1,88;0;0;
12193;-15,74;15,12;-31,03;-10,17;14,66;11,38;3,82;1,92;0;0;
12210;-15,74;15,12;-31,03;-10,17;13,44;10,1;4,12;1,97;0;0;
12228;-51,52;4,01;-39,27;-15,88;10,6;9,96;3,42;2,02;0;0;
12247;-48,42;12,78;-45,03;-13,31;10,15;7,77;3,21;1,98;0;0;
12265;-20,21;8,45;-41,38;-17,21;9,73;6,16;3,44;1,9;0;0;
12281;-22,97;4,71;-36,51;-12,43;8,99;5,91;3,51;1,89;0;0;
12296;-24,64;24,32;-28,88;-15,74;8,29;6,43;3,43;1,99;0;0;
12316;-28,9;8,89;-38,82;-17,89;6,81;6,62;3,68;2,12;0;0;
12334;-33;10,84;-38,83;-15,41;4,67;6,41;3,5;2,03;0;0;
12353;-31,44;7,37;-44,68;-13,14;3,78;6,18;3,24;2,22;0;0;
12371;-34,53;10,16;-36,44;-20,3;3,55;5,27;3,52;2,54;0;0;
12389;-34,53;10,16;-36,44;-20,3;3,78;4,66;3,8;2,76;0;0;
12406;-26,36;5,65;-33,22;-14,76;4,02;3,03;3,82;2,8;0;0;
12423;-29,9;4,68;-30,57;-15,68;4,19;3,01;3,6;2,73;0;0;
12442;-26,83;5,71;-35,58;-17,87;3,65;4,19;3,72;2,73;0;0;
12459;-29,13;12,56;-38,81;-16;3,29;4,15;3,52;2,48;0;0;
12479;-24,11;38,84;-33,54;-15,16;3,21;6,13;3,84;2,33;0;0;
12496;-28,53;1,89;-38,38;-19,39;2,95;6,59;3,62;2,35;0;0;
12513;-25,59;14,23;-35,6;-22,23;2,81;6,98;3,21;2,47;0;0;
12532;-24,19;3,31;-37,46;-14,82;3,1;5,84;2,75;2,58;0;0;
12549;-24,19;3,31;-37,46;-14,82;3,11;5,5;2,59;2,64;0;0;
12570;-25,88;10,71;-42,48;-18,16;3,02;5,39;2,67;2,51;0;0;
12587;-24,21;6,52;-35,33;-19,11;2,98;3,21;2,42;2,39;0;0;
12609;-26,46;8,63;-34,98;-12,92;2,99;2,61;2,16;2,26;0;0;
12629;-17,49;14,58;-36,86;-13,14;3,28;4,46;2,18;2,13;0;0;
12650;-27,98;11,13;-34,76;-17,12;3,22;4,56;2,79;2,04;0;0;
12673;-24,51;9,54;-40,03;-15,11;3,1;4,48;2,78;2,32;0;0;
12693;-29,51;3,83;-32,91;-16,35;3,09;4,64;2,75;2,2;0;0;
12710;-29,51;3,83;-32,91;-16,35;3,27;4,25;3,1;2,2;0;0;
12727;-34,73;8,73;-37,81;-13,96;3,09;2,71;2,96;2,07;0;0;
12744;-21,42;13,66;-35,82;-12,65;3,48;2,81;2,55;1,97;0;0;
12762;-23,37;9,65;-38,02;-14,2;3,51;3,16;2,39;1,94;0;0;
12780;-24,85;-6,11;-36,57;-16,57;3,43;3,4;2,19;1,97;0;0;
12799;-23,64;4,15;-33,75;-19,11;3,4;5,46;1,89;2,22;0;0;
12819;-25,88;-1,3;-32,41;-14,57;3,49;5,79;2,04;2,28;0;0;
12840;-23,87;10,5;-41,26;-13,51;3,19;5,76;2,35;2,23;0;0;
12859;-24,5;9,2;-38,68;-16,02;3,14;5,8;2,28;2,02;0;0;
12877;-32,79;7,52;-23,33;-20,04;3,14;5,57;2,82;2,15;0;0;
12895;-23,27;6,46;-40,51;-14,64;3,14;3,67;3,04;2,08;0;0;
12914;-26,66;20,78;-35,49;-12,39;2,95;3,9;2,85;2;0;0;
12933;-28,98;4,63;-33,65;-12,01;3,01;4,7;2,66;2,07;0;0;
12951;-31,7;6,6;-43;-18,05;3,04;5,01;3,21;2,06;0;0;
12968;-31,7;6,6;-43;-18,05;3,08;5,21;3,68;2,08;0;0;
12989;-28,55;5,15;-34,37;-11,24;2,88;5,09;3,02;1,98;0;0;
13007;-23,52;9,59;-37,07;-17,18;2,99;4,97;3,04;2,08;0;0;
13026;-29,54;11,3;-39,37;-17,05;3,12;3,39;2,93;2,02;0;0;
13046;-33,45;11,12;-37,03;-12,65;3,23;3,21;2,61;2,18;0;0;
13064;-26,23;13,37;-37,05;-15,22;3,28;3,03;2,27;2,15;0;0;
13086;-30,9;13,57;-36,45;-14,85;3,02;2,71;1,87;2,22;0;0;
13102;-25,93;13,37;-36,7;-17,14;3,02;3,09;1,99;2,21;0;0;
13119;-28,25;10,82;-40,53;-19,71;2,6;2,61;2,13;2,44;0;0;
13136;-21,02;16,62;-38,67;-12,21;2,81;2,77;2,23;2,53;0;0;
13155;-24,6;6,72;-39,17;-14,99;2,9;3,26;2,06;2,57;0;0;
13176;-22,32;7,8;-40,12;-17,15;3,04;3,58;1,89;2,45;0;0;
13194;-25,41;10,36;-40,31;-12,75;3,14;3,45;2,77;2,29;0;0;
13212;-30,51;14,37;-38,12;-17,29;3,03;3,33;2,61;2,07;0;0;
13233;-27,66;10,66;-38,14;-12,14;3,19;3,49;2,74;1,96;0;0;
13251;-28,94;9,86;-38,54;-14,79;2,98;3;2,76;1,81;0;0;
13269;-28,94;9,86;-38,54;-14,79;2,9;2,55;2,85;1,72;0;0;
13285;-33,03;14,28;-36,69;-16,71;2,81;2,36;2,51;1,98;0;0;
13303;-31,22;5,35;-38,14;-17,52;3,31;2,51;2,23;2,19;0;0;
13321;-15,6;16,55;-35,6;-15,71;10,89;2,96;2,3;2,52;0;0;
13339;-222,92;0,83;-36,88;-20,71;29,15;3,93;2,18;2,48;0;0;
13356;-82,25;8,43;-34,14;-13,72;35,29;4,58;2,27;2,76;0;0;
13376;32,69;22,6;-42,07;-18,78;45,97;5,18;2,2;2,77;0;0;
13394;-50,19;4,83;-38,79;-14,48;60,37;5,68;2,27;2,49;0;0;
13414;193,37;24;-38,67;-16,43;67,47;5,72;2,08;2,3;0;0;
13433;61,87;4,44;-32,22;-10,77;96,04;6,31;2,19;2,45;0;0;
13451;37,11;9,97;-31,92;-16,41;88,11;5,67;2,2;2,32;1;0;
13469;37,11;9,97;-31,92;-16,41;92,25;5,87;2,17;2,18;1;0;
13486;-50,21;15,66;-36,46;-15,68;105,23;6,44;2,15;2,31;1;0;
13505;38,8;6,2;-54,97;-17,05;97,69;5,84;2,72;2,34;1;0;
13525;-123,58;15,96;-3,16;-15,78;88,76;5,82;6,55;3,41;1;0;
13542;62,74;-0,51;144,56;11,93;74,82;6,25;17,63;5,1;1;0;
13563;-111,12;8,31;-18,73;-22,51;80,39;6,53;28,1;6,93;1;0;
13582;77,13;10,09;-65,16;-19,35;71,39;5,88;33,96;7,05;1;0;
13600;-58,88;6,16;-29,84;-17,15;74,26;5,96;34,73;7;1;0;
13618;-41,99;13,63;-34,61;-15,7;71,49;5,84;32,11;6,57;1;0;
13637;-62,36;12,11;-31,21;-22,24;67,5;5,74;29,95;5,47;1;0;
13658;-99,46;7,52;-104,83;-26,21;67,39;4,38;20,58;3,99;1;0;
13676;-127,68;11,15;-60,54;-19,54;64,56;3,79;24,64;4,81;1;0;
13694;-135,08;14,95;-51,22;-12,2;68,09;3,98;24,28;5,57;1;0;
13713;-168,77;13,14;-119,99;-15,23;71,37;3,91;27,09;5,73;1;0;
13729;-168,77;13,14;-119,99;-15,23;80,33;3,43;30,44;5,83;1;0;
13745;-48,26;11,43;-49,49;-14,88;74,51;3,28;33,93;5,77;1;0;
13765;-25,92;11,85;-43,86;-9,12;66,4;3,27;26,38;5,04;1;0;
13785;-26,15;6,71;-20,43;-19,5;63,16;3,15;24,63;4,4;1;0;
13801;-2,87;7,14;-40,43;-12,39;46,32;2,98;23,31;4,68;1;0;
13818;-15,97;14,73;-45,26;-17,16;34,43;3,31;23,31;5,08;0;0;
13835;-81,02;-5,68;-43,32;-15,37;26,54;4,23;15,84;4,48;0;0;
13854;-30,83;4,6;-34,49;-16,45;24,43;4,93;13,7;3,97;0;0;
13874;-11,02;12,57;-28,66;-15,74;18,55;6,54;12,12;3,46;0;0;
13892;-64,54;30,38;-31,79;-17,41;17,65;8,01;8,96;2,61;0;0;
13911;-19,13;42,55;-38,09;-15,44;13,87;10,26;5,8;2,1;0;0;
13927;-19,13;42,55;-38,09;-15,44;13,46;12,3;4,61;2,1;0;0;
13943;-50,67;2,39;-33,73;-11,77;11,96;11,78;4,24;2,09;0;0;
13963;-25,59;-16,54;-37,72;-14,11;11,6;12,59;3,32;2,15;0;0;
13984;-47,42;7,39;-38,27;-20,24;11,48;11,96;3,02;2,13;0;0;
14001;-19,87;11,03;-41,22;-16,7;12,01;10,06;2,78;2,32;0;0;
14018;-20,29;10,3;-30,94;-14,13;11,47;7,76;3,01;2,22;0;0;
14039;-23,79;14,11;-40,18;-15,44;10,76;5,32;2,99;2,23;0;0;
14061;-24,05;-9,25;-40,62;-14,62;7,92;5,29;2,98;2,11;0;0;
14080;-28,71;11,85;-36,04;-16,11;6,23;5,64;2,79;2,11;0;0;
14096;-26,11;6,59;-44,4;-15,12;4,41;5,93;2,76;2,04;0;0;
14115;-28,66;12,15;-40,69;-11,92;3,04;8,15;2,44;1,99;0;0;
14131;-28,66;12,15;-40,69;-11,92;2,72;10,26;2,1;1,93;0;0;
14147;-29,61;8,58;-33,48;-18,5;2,27;11;2,09;2,05;0;0;
14165;-22,53;64,02;-40,49;-10,09;2,45;10,73;2,01;2,1;0;0;
14185;-23,22;13,66;-37,5;-13,04;2,35;10,65;2,16;1,86;0;0;
14202;-25,42;13,03;-35,78;-20,47;2,42;8,52;2,17;1,89;0;0;
14220;-28,26;8,42;-37,92;-13,51;2,66;6,5;2,24;1,75;0;0;
14237;-28,26;8,42;-37,92;-13,51;2,99;5,28;2,3;1,67;0;0;
14257;-23,69;14,57;-38,91;-15,2;3,19;5,07;2,49;1,58;0;0;
14275;-21,91;12,77;-41,58;-13,16;3,12;3,16;2,42;1,74;0;0;
14293;-32,16;12,55;-33,57;-14,65;3,09;2,68;2,8;1,73;0;0;
14319;-31,29;6,63;-41,22;-18,12;3,04;2,65;2,72;1,82;0;0;
14339;-24,64;9,5;-38,21;-14,91;3,01;2,49;3;1,9;0;0;
14357;-23,33;6,15;-40,73;-11,42;2,88;2,48;3,05;2,02;0;0;
14376;-28,15;8,25;-35,43;-17,53;2,72;2,81;3,08;2,18;0;0;
14395;-29,9;5,52;-34,23;-11,55;2,73;2,91;2,95;2,21;1;0;
14411;-29,9;5,52;-34,23;-11,55;2,73;3,04;2,67;2,22;1;0;
14426;-37,04;12,29;-0,67;-13,73;3,09;2,91;4,36;2,33;1;0;
14445;-18,73;5,61;134,68;21,88;3,86;2,8;16,37;3,8;1;0;
14462;-21,44;5,24;-7,02;-21,25;5;3,12;26,2;5,02;1;0;
14480;43,55;27,87;-115,44;-21,86;10,68;3,89;32,03;5,79;1;0;
14499;-60,87;18,51;-70,25;-23,63;27,29;4,44;41,82;7,84;1;0;
14519;-138,86;4,18;-140,34;-29,06;42,11;5,17;46,16;9,3;0;0;
14536;194,16;14,71;-104,13;-21,12;61,12;5,65;54,29;10,71;0;0;
14554;-125,41;22,28;-57,66;-25,4;87,51;5,83;49,6;9,54;0;0;
14572;-85,45;4,11;-42,45;-10,69;100,42;6,46;45,13;9,69;0;0;
14589;-85,45;4,11;-42,45;-10,69;107,58;6,3;40,07;8,9;0;0;
14610;-62,74;19,63;-101,81;-13,64;104,83;6,51;44,31;8,01;0;0;
14628;77,58;7,49;-40,08;-10,99;104,21;6,68;40,93;7,29;0;0;
14645;-182,82;6,14;-51,46;-17,42;104,01;6,68;31,15;5,99;0;0;
14663;-44,32;9,03;-32,29;-19,33;86,96;6,85;24,29;5,01;0;0;
14685;-33,86;-1,18;-46,37;-15,67;80,27;6,42;23,96;4,52;0;0;
14705;-79,79;1,4;-50,04;-17,65;89,18;5,81;15,61;3,86;0;0;
14721;-161,34;9,77;-47,12;-13,61;90,84;5,72;9,02;2,74;0;0;
14739;-28,3;16,27;-38,57;-19,13;90,42;5,62;8,31;2,51;0;0;
14756;-97,84;17,31;-36,66;-18,81;80,41;5,15;7,69;2,46;0;0;
14774;48,03;7,13;-35,35;-13,12;80,22;5;6,21;2,26;0;0;
14792;10,88;10,66;-37,95;-13,87;85,02;4,3;4,81;2,1;0;0;
14811;-67,79;12,7;-37,3;-13,75;66,3;3,66;4,81;1,97;0;0;
14828;-67,79;12,7;-37,3;-13,75;52,48;3,3;3,53;1,75;0;0;
14846;-15,85;8,57;-36,93;-11,48;56,77;3,38;2,56;1,65;0;0;
14865;-30,96;16,95;-34,1;-9,92;47,4;3,01;2,54;1,71;0;0;
14882;-30,42;-3,76;-39,53;-16,05;31,64;3,28;2,55;1,8;0;0;
14900;-26,05;11,3;-35,36;-9,98;25,37;3,83;2,51;1,91;0;0;
14918;-19,45;21,49;-40,35;-15,94;20,26;5,41;2,45;1,84;0;0;
14934;-28,26;-2,76;-37,61;-14,12;18,26;6;2,62;1,93;0;0;
14952;-27,45;-2,05;-36,23;-16,42;15,34;7;2,62;1,98;0;0;
14968;-27,45;-2,05;-36,23;-16,42;17,4;7,85;2,44;1,92;0;0;
14987;22,68;19,85;-36,21;-16,07;19,25;8,66;2,41;1,82;0;0;
15005;-29,84;28,61;-26,35;-13,39;20,94;8,06;2,84;1,7;0;0;
15021;-25,98;21,26;-42,16;-17,39;16,84;8,91;2,73;2,07;0;0;
15040;-26,53;2,02;-38,08;-13,77;14,95;11,88;2,85;2,22;0;0;
15057;-29,85;-23,44;-42,26;-14,46;16,61;13,29;3,05;2,1;0;0;
15075;-50,6;-5,56;-39,92;-17,86;15,19;14,75;3,13;1,98;0;0;
15092;-25,39;10,26;-35,14;-16,91;11,84;15,23;2,93;2,15;0;0;
15110;-25,39;10,26;-35,14;-16,91;11,87;16,18;2,51;2,24;0;0;
15126;-43,77;55,67;-39,73;-21,86;11,43;15,69;2,49;2,12;0;0;
15144;-32,19;34,53;-36,23;-16,27;10,09;13,48;2,52;2,01;0;0;
15162;-35,36;12,76;-47,38;-17,21;7,48;13,37;2,66;2,04;0;0;
15179;-32,63;6,43;-37,45;-8,76;5,81;12,1;2,7;2,1;0;0;
15198;-25,39;-16,72;-32,56;-11,72;4,59;11,44;2,75;1,95;0;0;
15218;-26,62;-3,11;-39,08;-17,47;4,64;12,23;2,63;1,97;0;0;
15237;-21,76;9,71;-38,2;-16,19;3,95;10,02;2,66;1,76;0;0;
15259;-23,03;13,16;-39,28;-15,11;4,29;8,87;2,57;1,89;0;0;
15277;-18,53;13,88;-39,41;-13,1;3,94;9,07;2,24;2,2;0;0;
15294;-29,77;7,39;-33,76;-8,04;3,82;10,49;2,21;2,24;0;0;
15311;-35,63;13,13;-38,15;-16,55;3,74;6,95;1,98;2,19;0;0;
15328;-35,63;13,13;-38,15;-16,55;3,9;6,44;1,85;2,27;0;0;
15344;-27,71;9,51;-37,84;-19,35;3,66;6,51;2,07;2,23;0;0;
15363;-23,37;25,63;-37,93;-16,78;3,55;7,82;2,03;2,23;0;0;
15379;-31,68;6,22;-59,28;-19,39;3,2;7,48;2,44;2,2;0;0;
15399;-32,93;6,03;76,9;4,82;2,95;5,99;9,74;3,04;1;0;
15418;-25,48;3,24;-53,86;-9,17;3,13;5,89;17,31;4,17;1;0;
15438;-8,6;7,83;-86,72;-42,09;4,68;5,74;28,84;5,99;1;0;
15454;-65,6;11,49;-48,57;-33,38;9,25;5,04;41,86;9,62;1;0;
15471;49,37;8,67;-125,68;-24,92;21,47;4,08;50,05;10,33;0;0;
15489;49,37;8,67;-125,68;-24,92;33,57;4,61;55,99;10,73;0;0;
15511;-151,1;7,06;-10,71;-12,54;48,8;5,32;51,89;9,67;0;0;
15529;-151,1;7,06;-10,71;-12,54;63,7;5,79;49,26;9,27;0;0;
15546;-84,39;13,27;-37,1;-15,35;78,85;6,84;43,23;7,69;0;0;
15565;-80,59;7,74;-42,1;-18,96;98,69;7,11;38,72;6,41;0;0;
15583;-60,37;7,14;-19,89;-14,82;98,66;6,45;31,54;5,55;0;0;
15603;202,66;26,23;-91,59;-12,06;98,78;6,89;26,45;5,07;0;0;
15620;-56,49;7,25;-37,61;-17,87;109,65;7,11;25,9;4,87;0;0;
15640;-39,14;-2,27;-31,06;-4,96;105,3;7,58;21,96;5,24;0;0;
15658;6,78;10,83;-33,75;-16,54;88,29;7,94;17,58;4,63;0;0;
15675;-372,2;14,6;-29,16;-9,56;97,36;7,55;17,23;4,33;0;0;
15692;91;4,58;-41,79;-18,06;100,65;7,02;16,88;4,4;0;0;
15708;91;4,58;-41,79;-18,06;95,55;6,15;13,42;4,11;0;0;
15726;-63,12;9,52;0,88;-28,32;87,76;5,56;14,98;4,27;0;0;
15744;-258,88;12,17;-44,52;-15,85;99,51;4,11;14,76;4,42;0;0;
15761;-109,48;3,17;5,4;-5,78;95,97;4,05;13,73;4,35;0;0;
15779;-205,87;5,42;-50,77;-14,21;87,5;4,66;14,67;4,8;0;0;
15800;-67,12;7,55;-45,88;-14,65;75,71;4,48;14,35;4,75;0;0;
15819;9,12;11,69;-35,72;-9,08;75,31;4,2;13,02;4,6;0;0;
15837;-36,35;8,94;-27,89;-11,06;64,58;3,8;8,45;3,28;0;0;
15854;-33,72;5,3;-40,4;-19,86;57;3,98;7,71;3,04;0;0;
15871;-2,24;9,12;-33,88;-17,73;42,31;3,03;5,63;2,77;0;0;
15887;-2,24;9,12;-33,88;-17,73;33,94;2,62;5,12;2,56;0;0;
15903;-50,58;13,02;-32,46;-11,57;31,01;5,22;4,43;2,55;0;0;
15921;41;10,7;-38,88;-15,86;24,6;6,02;3,45;2,29;0;0;
15939;41;10,7;-38,88;-15,86;19,53;6,56;2,89;2,07;0;0;
15956;-24,57;33,56;-53,53;-18,26;18,54;7,25;3,42;1,89;0;0;
15976;-12,12;3,2;-37,57;-12,62;18,02;7,73;3,28;1,95;0;0;
15994;-30,4;39,66;-41,61;-18,38;17,83;10,3;2,96;1,97;0;0;
16011;-30,4;39,66;-41,61;-18,38;17,39;11,76;3,03;2,06;0;0;
16027;-14,29;0,27;-41,71;-17,76;17,54;11,78;3,04;2,18;0;0;
16046;-22,88;25,12;-36,87;-15,71;15,11;12,99;3,2;2,09;0;0;
16064;-23,45;3,2;-32,6;-11,75;12,2;14,34;2,96;2,06;0;0;
16082;-25,32;7,03;-41,48;-19;12,98;14,35;3,12;1,95;0;0;
16100;-14,74;22,16;-28,58;-13,16;15,06;11,4;3,55;2,21;0;0;
16119;-51,11;6,35;-37,59;-18,15;12,68;9,42;3,73;2,17;0;0;
16137;-34,18;12,16;-37,53;-12,16;12,87;10,26;3,55;2,19;0;0;
16153;-24,21;8,31;-39,55;-18,13;13,39;8,11;3,41;2,36;0;0;
16170;-24,21;8,31;-39,55;-18,13;14,02;7,33;2,81;2,37;0;0;
16187;-29,71;31,74;-36,24;-14;11,89;7,66;2,88;2,41;0;0;
16205;-24,4;2,97;-35,32;-19,78;8,06;7,89;2,48;2,18;0;0;
16221;-24,3;13,86;-36,53;-11,51;6,06;10,28;2,82;2,42;0;0;
16240;-18,29;6,07;-36,83;-16,46;4,6;10,05;2,73;2,64;0;0;
16257;-27,88;28,82;-36,51;-20,13;3,5;11,15;2,94;2,56;0;0;
16277;-28,03;13,24;-39,06;-12;2,55;9,89;2,55;2,68;0;0;
16296;-25,64;20,36;-38,32;-18,02;2,67;8,73;2,43;2,7;0;0;
16315;-26,29;10,94;-29,55;-17,52;2,64;8,27;2,52;2,4;0;0;
16334;-24,29;9,43;-35,78;-14,05;2,45;5,57;2,49;2,33;0;0;
16350;-24,29;9,43;-35,78;-14,05;2,15;4,25;2,87;2,32;0;0;
16368;-21,05;7,08;-40,61;-21,09;2,3;2,83;2,65;2,51;0;0;
16386;-33,58;12,23;-29,84;-13,96;2,46;3,04;3;2,42;0;0;
16404;-33,58;9,92;-38,99;-14,67;2,35;2,77;3,37;2,63;0;0;
16422;-22,23;15,26;-28,29;-9,49;2,88;2,78;3,21;2,88;0;0;
16440;-29,95;11,66;-39,91;-13,66;3,02;2,83;2,97;2,92;0;0;
16457;-24,12;4,35;-38,92;-18,12;3,25;2,91;3,07;2,66;0;0;
16475;-29,28;0,42;-33,42;-13,08;3,13;2,9;2,94;2,52;0;0;
16493;-24,02;10,99;-37,57;-16,49;3,31;3,98;2,78;2,39;0;0;
16512;-34,28;11,33;-39,47;-18,35;3,59;3,86;2,95;2,24;0;0;
16529;-34,28;11,33;-39,47;-18,35;3,84;3,76;2,63;1,83;0;0;
16547;-30,58;4,88;-23,73;-13,15;3,77;3,86;3,41;2,28;0;0;
16564;-34,64;2,89;-38,97;-11,99;3,66;3,92;3,71;2,29;0;0;
16582;-23,99;11,66;-35,61;-11,25;3,47;3,04;3,33;2,38;0;0;
16604;-21,42;9,34;-26,16;-11,77;3,31;2,8;3,14;2,42;0;0;
16621;-15,75;6,37;-30,76;-13,06;3,14;4,76;3,57;2,27;0;0;
16640;-32,76;12,61;-32,23;-9,47;3,33;4,77;2,9;2,34;0;0;
16658;-27,1;10,76;-36,62;-10,73;3,28;4,34;3,13;2,34;0;0;
16674;-31,87;7,5;-40,62;-18,54;3,19;4,48;3,28;2,37;0;0;
16692;-34,08;8,2;-36,98;-9,72;2,87;4,39;3,3;2,55;0;0;
16709;-34,08;8,2;-36,98;-9,72;2,73;3,79;2,61;2,75;0;0;
16726;-30,61;6,28;-35,94;-19,23;2,74;3,99;2,3;2,8;0;0;
16744;-28,81;13,35;-42,63;-17,92;2,87;4,1;2,09;2,69;0;0;
16761;-29,59;8,89;-34,63;-15,2;2,86;3,78;1,85;2,47;0;0;
16779;-23,34;6,65;-40,64;-17,68;2,98;4,2;1,83;2,52;0;0;
16798;-27,78;9,51;-37,46;-16,81;2,96;4,13;1,96;2,21;0;0;
16818;-25,95;13,66;-38,13;-16,8;3,1;2,84;2,54;2,07;0;0;
16836;-25,85;10,98;-34,4;-13,79;2,87;3,02;2,62;2,08;0;0;
16854;-25,26;5,77;-32,56;-15,45;2,9;2,73;2,73;2,29;0;0;
16871;-23,42;6,67;-36,54;-17,52;2,93;2,71;2,76;2,19;0;0;
16889;-23,42;6,67;-36,54;-17,52;3;2,4;2,89;2,01;0;0;
16907;-26,55;-0,44;-38,27;-13,69;2,97;4,34;2,15;1,95;0;0;
16927;-31,2;10,29;-30,94;-16,33;2,66;4,29;2,42;1,79;0;0;
16945;-30,76;11,67;-41,76;-16,37;2,96;4,33;2,63;1,75;0;0;
16962;-29,42;12,65;-33,52;-16,45;2,85;4,35;2,34;1,73;0;0;
16980;-29,37;9,54;-36,05;-16,37;2,83;4,27;2,19;1,83;0;0;
16998;-22,69;8;-39,55;-13,86;2,89;2,65;2,25;1,91;0;0;
17017;-24,11;7,97;-38,45;-15,47;2,89;2,6;2,33;1,95;0;0;
17037;-27,78;9,17;-35,41;-11,9;2,9;2,46;2,23;1,99;0;0;
17054;-21,25;8,97;-38,82;-15,44;2,9;2,61;2,13;1,86;0;0;
17070;-21,25;8,97;-38,82;-15,44;2,93;2,78;2,22;1,77;0;0;
17086;-27,28;10,57;-36,2;-13,9;2,94;2,92;2,22;1,87;0;0;
17104;-24,51;11,41;-34,89;-17,67;2,95;2,68;2,03;1,79;0;0;
17122;-25,88;11,05;-39,22;-16,02;2,87;2,46;1,92;1,82;0;0;
17141;-30,52;13,34;-35,57;-12,51;3,06;2,57;1,92;1,91;0;0;
17159;-30,32;12,08;-34,49;-18,43;3,02;2,35;2,02;2,2;0;0;
17177;-29,45;14,51;-38,27;-19,72;2,44;2,28;2,11;2,31;0;0;
17194;-20,38;14,8;-36,14;-12,92;2,64;2,51;2,13;2,52;0;0;
17211;-28,65;6,06;-35,85;-16,18;2,69;2,61;2,18;2,47;0;0;
17230;-28,65;6,06;-35,85;-16,18;2,73;2,55;2,15;2,53;0;0;
17248;-30,83;5,41;-33,79;-15,6;2,61;2,8;2,18;2,39;0;0;
17265;-31,07;11,67;-37,94;-16,62;2,82;2,76;2,37;2,23;0;0;
17284;-29,62;13,25;-39,08;-15,66;5,3;2,41;2,13;2;1;0;
17304;-25,68;9,08;-36,26;-12,06;5,15;2,55;2,1;1,93;1;0;
17326;-26,21;11,08;-33,02;-13,03;6,6;2,59;2,12;2,09;1;0;
17344;-24,65;6,16;-37,31;-15,33;7,15;2,49;2,03;2,02;1;0;
17363;-23,02;11,88;-33,28;-19,19;8,32;2,53;1,84;2,2;1;0;
17381;-72,77;6,22;-36,53;-16,08;18,17;3,03;1,71;2,11;1;0;
17398;-3,44;27,74;-41,61;-21,6;21,71;3,84;1,77;2,27;1;0;
17415;-97,41;21,98;-35,63;-15,95;31,39;6,11;1,75;2,12;1;0;
17432;41,74;4,56;-37,76;-13,47;51,54;7,19;1,96;2,31;1;0;
17447;41,74;4,56;-37,76;-13,47;71,68;8,37;2,18;2,44;1;0;
17463;-191,54;11,66;-21,89;-14,62;90,03;8,76;5,35;2,43;1;0;
17482;22,31;15,25;-102,29;-20,7;98,54;8,83;10,88;2,95;1;0;
17499;-40,13;18,61;-73,24;-28,44;112,1;8,42;24,01;4,63;1;0;
17519;92,23;14,2;-86,88;-39,22;112,83;7,81;43,21;8,96;1;0;
17540;3,92;5,37;-21,44;7,04;100,11;7,37;53,83;10,98;0;0;
17561;-208,73;17,27;14,82;-3,44;111,64;7,2;58,33;12,17;0;0;
17581;-176,06;8;-4,67;-13,71;100,37;7,25;62,52;12,43;0;0;
17600;16,23;3,69;-17,4;-12,32;101,06;6,39;53,76;11,21;0;0;
17619;34,93;5,25;-28,96;-15,74;94,81;5,83;35,46;8,24;0;0;
17637;27,49;10,69;-39,15;-14,99;102,17;5,11;26,54;5,74;0;0;
17655;79,27;9,45;-34,28;-14,07;96,72;4,72;17,29;3,54;0;0;
17672;0,31;6;-40,62;-17,84;86,88;3,98;12,56;2,69;0;0;
17690;0,31;6;-40,62;-17,84;78,71;3,81;6,17;2,47;0;0;
17707;104,49;11,17;-35,77;-17,13;74,75;4,04;4,08;2,41;0;0;
17729;-106,23;2,24;-37,69;-11,29;59,99;3,32;2,29;2,35;0;0;
17748;-36,02;8,02;-30,83;-17,83;46,17;3,21;3,11;2,5;0;0;
17768;-18,17;5,09;-37,53;-14,34;32,63;3,35;3,06;2,41;0;0;
17785;-33,83;7,96;-29,04;-12,47;23,66;4,57;3,65;2,37;0;0;
17804;13,95;-15,58;-40,52;-23,52;21,7;5,14;3,85;2,4;0;0;
17821;-21,53;-6,11;-29,57;-12,88;19,79;8,27;3,79;2,73;0;0;
17840;-32,47;-3,44;-33,44;-8,6;15,37;10,1;3,98;2,61;0;0;
17857;-26,12;10,94;-34,1;-14,74;14,88;12,51;3,23;2,52;0;0;
17876;-40,86;-1,32;-35,5;-17,17;15,49;13;2,89;2,73;0;0;
17892;21,32;20,18;-41,07;-17,62;16,31;14,2;2,46;2,6;0;0;
17910;21,32;20,18;-41,07;-17,62;10,92;12,65;2,37;2,16;0;0;
17927;-11,56;-8,87;-35,4;-14,49;9,58;11,18;2,39;2,15;0;0;
17945;-39,15;2,49;-32,02;-15,9;11,15;11,11;2,2;1,99;0;0;
17965;-25,45;13,9;-36,33;-12,5;10,6;10,62;2,21;2,27;0;0;
17983;-25,56;-3,89;-36,46;-14,77;9,57;10,1;2,35;2,11;0;0;
17999;-21,82;-5,54;-30,16;-17,19;7,64;8,99;2,54;2,11;0;0;
18016;-36,87;5,28;-31,45;-15,75;8,12;9,71;2,6;1,97;0;0;
18033;-22,78;10,44;-35,1;-14,81;8,98;8;2,51;2,02;0;0;
18050;-22,78;10,44;-35,1;-14,81;8,98;7,94;2,66;2,07;0;0;
18067;-25,29;-4,44;-36,59;-15,85;8,92;8,14;2,46;2,09;0;0;
18084;-30,81;10,98;-38,19;-15,22;8,85;6,29;2,46;2,16;0;0;
18100;-28,28;5,41;-40,01;-17,45;7,1;5,81;2,28;2,24;0;0;
18120;-18,68;9,39;-34,71;-17,39;5,27;4,42;2,56;2,61;0;0;
18139;-26,8;4,75;-33,75;-16,06;3,99;4,41;2,65;2,81;0;0;
18157;-28,27;12,45;-40,08;-16,17;3,29;4,27;2,8;2,69;0;0;
18175;-24,99;9;-39,63;-19,12;3,33;3,81;2,78;2,59;0;0;
18192;-24,8;13,38;-36,73;-13,72;3,4;3,82;2,85;2,73;0;0;
18210;-24,8;13,38;-36,73;-13,72;3,55;3,34;2,74;2,71;0;0;
18229;-24,23;5,88;-38,31;-18,92;2,93;3,9;2,44;2,43;0;0;
18246;-30,23;1,94;-33;-15,77;2,9;4,6;2,37;2,29;0;0;
18263;-25,67;18,63;-36,77;-15,79;3,03;4,78;2,36;2,34;0;0;
18282;-27,92;7,92;-36,19;-14,37;3,02;4,88;2,43;2,4;0;0;
18299;-24,1;5,04;-35,25;-13,36;2,75;5,01;2,33;2,37;0;0;
18317;-24,73;10,28;-33,31;-16,17;2,91;4,92;2,24;2,4;0;0;
18337;-29,61;7,23;-40,47;-14,37;2,83;3,49;2,29;2,23;0;0;
18355;-17,52;11,33;-37,96;-13,49;2,86;3,34;2,21;2,57;0;0;
18373;-32,76;12,17;-39,1;-15,94;3,11;3,04;2,31;2,49;0;0;
18390;-32,76;12,17;-39,1;-15,94;3,43;2,76;2,15;2,52;0;0;
18413;-32,12;8,72;-31,82;-16,16;3,47;2,78;2,18;2,3;0;0;
18430;-32,12;8,72;-31,82;-16,16;3,4;2,49;2,06;2,43;0;0;
18449;-28,25;8,79;-37,45;-16,11;3,41;2,55;1,95;2,33;0;0;
18465;-25,02;15,37;-41,25;-19,49;3,1;2,39;1,87;2,32;0;0;
18481;-23,74;8,12;-40,27;-13,5;2,93;2,33;1,84;2,58;0;0;
18497;-29,63;12,97;-37,46;-11,76;2,71;2,31;1,86;2,47;0;0;
18514;-22,16;7,5;-34,14;-13,59;2,95;2,23;1,79;2,35;0;0;
18531;-29,42;12,41;-35,62;-14,45;3,32;2,4;1,86;2,23;0;0;
18549;-29,42;12,41;-35,62;-14,45;3,64;2,61;2,08;2,33;0;0;
18566;-25,64;11,54;-34,54;-13,99;3,51;2,64;1,97;2,04;0;0;
18584;-28,91;8,95;-36,12;-13,25;3,34;2,58;2,18;1,91;0;0;
18602;-28,56;13,75;-43,94;-17,19;3,22;2,64;2,56;1,88;0;0;
18619;-31,46;14,03;-40,31;-17,15;3,21;2,81;2,67;1,82;0;0;
18637;-30,8;11,2;-35,54;-17,03;2,88;2,59;2,6;1,96;0;0;
18653;-27,36;10,98;-36,78;-17,41;3,6;2,32;2,47;2,25;0;0;
18669;-27,36;10,98;-36,78;-17,41;4,05;1,94;2,06;2,48;0;0;
18686;-23,58;4,79;-36,35;-20,39;3,8;1,93;1,81;2,53;0;0;
18702;-34,91;16,69;-40,62;-17,41;3,8;2,06;2,06;2,35;0;0;
18721;-22,37;13,17;-35,2;-13,64;3,82;2,44;2,47;2,15;0;0;
18738;-23,79;11,55;-43,78;-14,51;3,4;2,74;2,76;2;0;0;
18755;-26,96;10,7;-34,87;-14,98;3,02;2,84;2,69;1,92;0;0;
18772;-26,96;10,7;-34,87;-14,98;2,65;2,92;2,72;1,87;0;0;
18788;-26,96;10,7;-34,87;-14,98;2,52;2,95;2,78;2,04;0;0;
18804;-27,61;4,05;-39,76;-17,58;2,3;2,57;2,53;2,09;0;0;
18822;-25,48;10,92;-30,05;-13,49;2,05;2,41;2,54;2,13;0;0;
18839;-25,09;9,47;-36,95;-18,4;2,56;2,26;2,28;1,92;0;0;
18859;-26;8,21;-37,4;-13,22;2,85;2,28;2,21;1,91;0;0;
18877;-25,53;10,28;-36,21;-10,79;2,83;2,4;2,14;1,86;0;0;
18896;-29,87;10,87;-35,24;-14,47;2,75;2,72;1,95;2,07;0;0;
18915;-30,34;8,32;-34,57;-11,02;3,02;2,77;1,99;2,03;0;0;
18933;-28,05;11,78;-37,43;-15,33;3,08;2,73;1,68;2,05;0;0;
18951;-21,53;17,36;-41,41;-17,67;2,72;2,62;1,8;2,12;0;0;
18968;-21,53;17,36;-41,41;-17,67;3,03;2,58;1,97;2,22;0;0;
18985;-30,8;8,62;-38,28;-15,43;3,23;2,43;2,32;2,37;0;0;
19002;-24,15;4,36;-37,2;-17,01;3,48;2,86;2,35;2,23;0;0;
19018;-24,78;8,28;-41,18;-15,89;3,3;2,96;2,35;2,23;0;0;
19035;-29,98;14,09;-31,67;-15,92;3,5;3,31;2,37;2,21;0;0;
19051;-30,32;13,38;-32,77;-11,07;3,75;3,67;2,35;2,14;0;0;
19069;-30,32;13,38;-32,77;-11,07;3,88;3,79;2,41;2,07;0;0;
19087;-28,09;11,32;-41,98;-17,84;3,76;3,85;2,86;2,09;0;0;
19104;-27,56;16,62;-39,39;-17,31;3,8;3,31;3,15;2,05;0;0;
19122;-34,17;1,46;-33,28;-9,58;3,5;3,62;3,19;2,06;0;0;
19140;-22,66;9,68;-39,33;-15,92;3,46;3,5;3,5;2,04;0;0;
19157;-29,34;16,24;-38,15;-17,53;3,02;3,31;3,33;2,12;0;0;
19174;-19,98;11,49;-39,53;-13,83;2,93;3,43;3,3;2,1;0;1;
19192;-19,98;11,49;-39,53;-13,83;3,12;3,84;3,16;2,03;0;1;
19210;-19,98;11,49;-39,53;-13,83;3,17;4,03;3,33;2,06;0;1;
19231;-19,9;52,45;-34,95;-12,99;3,98;6,51;3,39;2,19;0;1;
19250;-13,57;-9,32;-35,38;-12,5;5,84;11,88;3,48;2,44;0;1;
19270;-38,62;45,24;-30,84;-14,39;9,02;16,2;3,47;2,48;0;1;
19285;-33,01;-29,17;-39,21;-23,07;11,05;20,59;3,24;2,77;0;1;
19303;-53,92;30,32;-34,22;-20,07;13,86;27,41;3,67;2,72;0;1;
19321;-52,92;-8,55;-35,83;-13,65;17,11;34,13;3,81;2,94;0;1;
19338;-48,46;-18,36;-11,39;-4,83;18,85;30,66;5,79;4,47;0;1;
19356;-72,43;46,72;-43,9;-27,19;21,42;32,26;7,74;5,29;0;1;
19374;-18,46;28,26;17,28;42,18;23,67;32,53;18,9;17,21;0;1;
19391;-26,14;-18,05;-106,62;-52,31;28,13;31,87;23,35;19,54;0;1;
19409;-26,14;-18,05;-106,62;-52,31;30,16;26,24;28,18;21,96;0;0;
19427;-27,92;29,58;-18,94;0,1;29,25;27,11;34,22;27,59;0;0;
19448;-52,41;79,81;-39,17;-11,23;29,14;30,53;33,62;29,8;0;0;
19469;-12,09;-1,19;-44,13;14,73;24,42;28,66;30,56;29,31;0;0;
19490;-35,26;41,28;-19,75;130,97;20,4;28,46;29,67;45,36;0;0;
19512;-44,23;88,77;-52,11;-60,91;14,7;28,67;30,37;50,08;0;0;
19532;-26,7;-62,45;-49,83;-43,81;12,64;27,9;25,67;48,27;0;0;
19549;-26,7;-62,45;-49,83;-43,81;11,73;26,79;22,98;44,33;0;0;
19567;-9,46;-36,69;-36,28;-13,77;8,61;28,47;21,05;41,34;0;0;
19586;-33,15;72,15;-42,07;-14,15;7,64;29,24;17,68;31,75;0;0;
19607;-18,15;68,72;-36,76;-15,92;7,49;34,16;9,23;11,23;0;0;
19627;-31,89;-79,67;-41,54;-18,4;6,95;36,05;6,64;5,27;0;0;
19650;-30,03;-69,86;-35,14;-17,66;5,79;40,49;5,24;3,07;0;0;
19672;-27,14;5,19;-42,95;-17,06;5,06;36,6;3,71;2;0;0;
19687;-27,14;5,19;-42,95;-17,06;4,43;31,79;3,7;1,99;0;0;
19704;-23,93;13,45;-48,44;-21,44;6,47;27,1;3,55;2,35;0;0;
19722;-22,97;6,3;-40,63;-13,5;6,05;23,79;3,86;2,8;0;0;
19739;-33,97;13,5;-51,03;-20,35;6,26;18,27;3,7;2,7;0;0;
19761;-28,12;8,38;-32,09;-15,17;6,55;13,31;3,72;2,54;0;0;
19779;-21,7;8;-37,02;-9,61;6,6;11,23;4,02;2,92;0;0;
19795;-27,19;17,89;-34,34;-6,77;5,39;12,23;4,71;4,31;0;0;
19813;-42,34;9,24;-42,72;-16,43;4,45;12,98;4,44;4,13;0;0;
19831;-25,14;11,8;-39,89;-14,31;4,3;13,51;4,34;4,52;0;0;
19849;-25,14;11,8;-39,89;-14,31;3,79;14,59;4,1;5,03;0;0;
19867;-19,6;15,76;-42,37;-20,87;3,96;14,4;3,83;5,55;0;0;
19885;-25,13;9,86;-40,25;-16,39;3,92;14,17;3,51;6,08;0;0;
19904;-23,98;13,66;-31,55;-15,37;3,81;9,88;3,27;4,9;1;0;
19921;-34,5;5,56;-35,67;-16,8;10,65;6,49;3,06;4,89;1;0;
19938;10,58;26,49;-34,07;-20,37;16,06;4,26;3,2;4,61;1;0;
19955;69,92;14,53;-42,66;-15,93;34,22;4,4;3,31;4,33;1;0;
19978;-3,85;26,01;-36,42;-17,79;47,2;5,57;3,54;3,42;1;0;
19997;54,7;9,45;-32,88;-13,49;56,48;6,44;3,61;2,62;1;0;
20016;-138,74;16,37;-36,83;-14,38;58,68;7,06;3,63;2,23;1;0;
20038;-304,06;30,76;-46,85;-22,99;78,38;8,38;3,52;2,25;1;0;
20058;-261,44;28,31;-31,97;-15,9;88,88;9,01;3,81;2,28;1;0;
20077;-158,32;8,2;-92,97;-27,17;84,48;9,16;6,35;2,76;1;0;
20095;138,37;6,47;199,58;25,96;86,69;8,38;30,72;6,4;1;0;
20116;-33,2;-2,6;-20,64;-14,19;90,09;7,52;46,86;8,89;1;0;
20138;108,74;13;-93,75;-22,54;95,24;7,09;60,12;10,11;0;0;
20155;-224,55;9,35;45,71;-19,52;94,41;5,84;74,05;13,36;0;0;
20174;106,82;8,68;-57,71;-19,95;87,99;5,1;84,54;14,58;0;0;
20191;-76,78;11,67;-33,4;-14,6;85,84;4,29;75,48;13,39;0;0;
20209;-76,78;11,67;-33,4;-14,6;76,62;4,41;55,59;10,5;0;0;
20225;88,19;0,38;-5,33;-6,94;87,59;5,43;50,45;9,72;0;0;
20243;-51,75;6,24;-87,46;-19,28;81,4;5,48;40,33;9,01;0;0;
20261;-160,38;11,54;-50,01;-17,19;71,16;5,93;21,17;4,65;0;0;
20282;-29,94;7,3;-64,09;-12,01;73,71;5,75;25,12;4,45;0;0;
20302;55,23;10,7;-32,06;-15;73,9;5,57;23,69;4,69;0;0;
20319;-44,68;4,77;-39,25;-13,38;64,1;4,29;19,56;4,25;0;0;
20339;91,86;14,42;0,79;-15,69;65,49;3,98;18,76;4,13;0;0;
20356;-31,77;4,07;-34,4;-13,31;58,23;3,14;19,34;4,37;0;0;
20372;69,93;7,11;-19,39;-9,03;51,63;3,25;15,29;4,08;0;0;
20389;69,93;7,11;-19,39;-9,03;43,12;3,1;10,95;3,21;0;0;
20405;-63,96;13,75;-24,38;-11,75;34,58;3,09;13,23;2,84;0;0;
20421;57,17;12,64;-38;-14,77;33,52;3,29;11,12;2,68;0;0;
20441;-64,34;-1,26;-32,1;-11,38;30,54;3,08;8,67;2,56;0;0;
20461;-23,87;8,14;-29,97;-12,95;30,64;2,93;7,54;2,29;0;0;
20479;-10,96;3,2;-35,84;-15,64;28,85;2,88;8,87;2,21;0;0;
20496;-25,96;-4,46;-62,88;-20,1;26,8;3,81;7,79;2,33;0;0;
20513;-33,32;2,2;-44,79;-14,47;23,94;4,88;6,16;2,04;0;0;
20529;-33,32;2,2;-44,79;-14,47;18,93;5,73;6,89;1,99;0;0;
20546;-84,43;23,6;-29,12;-10,57;18,21;6,81;7,03;2,15;0;0;
20565;-33,98;19,57;-37,93;-19,4;19,2;7,5;6,54;2,54;0;0;
20582;-21,84;11,05;-30,5;-11,82;13,86;7,18;4,62;2,32;0;0;
20600;-18,58;10,5;-44,79;-15,8;11,92;6,08;4,24;2,12;0;0;
20617;-47,84;-8,71;-36,67;-16,08;13,85;5,65;4,15;2,15;0;0;
20632;-14,29;3,79;-38,41;-13,96;13,35;4,97;3,86;1,97;0;0;
20651;-38,85;3,02;-33,61;-18,54;8,98;4,79;3,78;1,7;0;0;
20667;-38,85;3,02;-33,61;-18,54;8,65;4,87;3,77;1,56;0;0;
20684;-36,89;1,97;-33,72;-11,91;9,44;6,37;3,28;1,47;0;0;
20702;-26,65;10,1;-37,69;-11,74;8,84;5,95;2,76;1,55;0;0;
20720;-24,83;23,74;-40,14;-21,32;7,01;5,71;2,23;1,8;0;0;
20736;-22,48;9,02;-32,96;-17,16;7,01;5,91;2,14;1,89;0;0;
20756;-28,58;6,83;-35,93;-12,96;6,13;5,55;2,18;1,97;0;0;
20775;-30,23;15,07;-39,12;-13,2;5,05;4,15;2,28;1,96;0;0;
20792;-19,95;11,92;-32,53;-13,86;4,06;4,29;2,24;2,03;0;0;
20811;-27,19;5,89;-33,98;-12,59;3,9;6,96;3,3;1,99;0;0;
20829;-27,19;5,89;-33,98;-12,59;3,8;8,45;4,3;1,72;0;0;
20847;-27,08;7,01;-37,49;-15,53;3,4;8,53;4,22;1,83;0;0;
20864;-27,08;7,01;-37,49;-15,53;3,46;8,4;3,97;1,83;0;0;
20883;-31,23;5,51;-37,59;-17,52;3,34;8,37;3,94;1,73;0;0;
20903;-25,55;10,34;-34,29;-13,02;3,08;7,29;4,11;1,95;0;0;
20920;-29,62;15,63;-37,21;-16,57;3,15;4,62;2,98;2,13;0;0;
20938;-24,59;6,57;-40,24;-16,05;3,26;3,22;2,89;2,21;0;0;
20955;-31,09;7,36;-34,07;-14,43;3,04;3,14;2,97;2,06;0;0;
20973;-28,2;5,43;-41,08;-12,57;3,03;2,94;2,92;2,15;0;0;
20988;-28,2;5,43;-41,08;-12,57;2,97;2,79;2,95;2,18;0;0;
21010;-23,66;17,21;-30,56;-6,35;2,75;3,29;2,49;1,99;0;0;
21027;-29,35;11,1;-37,02;-11,79;2,68;3,22;2,38;2,03;0;0;
21045;-25,46;10,55;-36,2;-14,14;2,51;3,18;1,97;1,91;0;0;
21061;-26,97;5,13;-38,82;-14,55;2,34;3,08;2,11;2,06;0;0;
21079;-23,92;10,52;-35,6;-17,23;2,34;2,98;2,12;2,12;1;0;
21095;-28,34;9,92;-37,93;-17,16;2,4;2,76;2,02;2,27;1;0;
21113;-28,11;10,06;-30,16;-12,54;2,55;2,74;2,26;2,31;1;0;
21130;-28,11;10,06;-30,16;-12,54;2,59;2,83;2,54;2,36;1;0;
21146;6,83;14,13;-34,25;-18,79;8,94;3,42;2,43;2,32;1;0;
21164;116,99;-1,66;-37,38;-15,71;24,93;4,25;2,54;2,32;1;0;
21183;-84,38;-0,16;-57,77;-19,32;36,83;5,44;3,58;2,48;1;0;
21200;-154,66;9,99;-95,09;-21,14;51,63;6,48;25,77;5,83;1;0;
21217;-41,15;6,54;-159,34;-28,28;63,79;6,68;34,53;7;1;0;
21234;-49,5;7,99;-104,91;-41,72;75,92;6,71;51,94;9,74;1;0;
21250;-49,5;7,99;-104,91;-41,72;79,57;6,39;69,46;12,7;0;0;
21272;-118,92;2,91;-66,94;-25,88;82,04;6,82;83,55;13,94;0;0;
21290;-118,92;2,91;-66,94;-25,88;81,54;6,42;89,19;13,96;0;0;
21306;41,96;24,13;93,3;16,56;80,96;6,49;82,36;13,16;0;0;
21324;83,61;9,67;-27,68;-14,06;91,53;6,85;67,37;11,66;0;0;
21341;17,17;15,53;-43,28;-17,2;93,8;7,07;54,05;9,47;0;0;
21359;-40,75;16,18;-16,5;-20,91;99,07;6,13;42,43;7,96;0;0;
21383;-62,08;19,32;-103,66;-31,78;92,09;5,54;38,89;7,78;0;0;
21402;-25,61;-1,17;-68,06;-10,3;108,21;5,15;29,84;6,98;0;0;
21421;10,15;2,67;-16,52;-25,19;102,63;5,4;28,19;6,49;0;0;
21440;-135,47;6,74;-28,37;-8,46;98,1;6,12;26,91;6,44;0;0;
21458;-202,36;7,04;-46,08;-17,09;80,31;5,85;25,24;6,04;0;0;
21476;-9,78;9,08;-40,11;-14,11;78,45;5,88;18,53;4,92;0;0;
21495;-8,8;8,09;-41,75;-15,46;76,31;5,5;11,39;3,86;0;0;
21511;-247,78;16,8;-38,49;-20,22;61,02;5,22;7,46;2,82;0;0;
21527;-247,78;16,8;-38,49;-20,22;68,11;4,86;4,52;2,37;0;0;
21543;-30,32;9,39;-38,15;-19,11;56,47;3,92;2,95;2,12;0;0;
21565;-42,25;13,45;-43,61;-18,18;47,79;3,64;3,42;2,04;0;0;
21583;35,99;56,11;-38,91;-18,32;50,13;5,04;4,25;2,47;0;0;
21603;-16,66;7,36;-39,19;-17,67;44,29;5,37;4,61;2,45;0;0;
21621;-28,85;7,14;-42,01;-15,55;30,46;6,51;4,75;2,44;0;0;
21641;-31,32;5,48;-43,31;-14,49;21,51;8,26;4,74;2,35;0;0;
21658;-2,91;5,59;-35,14;-13,71;23,01;9,96;4,49;2,12;0;0;
21677;-31,21;16,09;-37,67;-12,4;18,42;10,07;3,68;1,91;0;0;
21694;-32,24;20,88;-37,93;-12,63;13,11;12,36;3,22;1,74;0;0;
21713;-89,15;-0,49;-36,43;-16,68;15,63;12,97;2,89;1,74;0;0;
21729;-89,15;-0,49;-36,43;-16,68;21,69;12,39;2,87;1,88;0;0;
21745;-24,05;2,73;-39,27;-14,73;19,71;10,42;3,21;2,1;0;0;
21764;-33,98;0,53;-40,15;-12,75;18,41;10,27;2,85;2;0;0;
21781;-24,66;22,62;-34,51;-15,55;16,83;10,19;2,62;2,22;0;0;
21800;-20,47;-1,32;-34,36;-11,73;13,82;10,48;2,67;2,24;0;0;
21815;-29,7;6;-40,05;-12,69;7,23;9,52;2,84;2,32;0;0;
21834;-31,51;7,81;-36,14;-13,09;2,73;8,63;2,66;2,45;0;0;
21853;-27,31;7,79;-38,15;-17,51;2,76;9,23;2,27;2,44;0;0;
21869;-27,31;7,79;-38,15;-17,51;2,61;9,15;2,2;2,47;0;0;
21883;-24,05;4;-32,67;-14,2;2,66;6,98;2,31;2,41;0;0;
21900;-25,74;4,68;-34,32;-16,08;2,69;5,02;2,29;2,36;0;0;
21918;-25,67;6,22;-35,63;-17,24;2,94;5,27;2,33;2,14;0;0;
21935;-22,44;6,61;-37,93;-16,26;3,39;5,07;2,25;1,78;0;0;
21955;-26,18;8,32;-33,09;-13,54;3,63;4,8;2,31;1,62;0;0;
21973;-25,72;7,73;-31,7;-15,1;3,71;4,67;2,47;1,56;0;0;
21990;-25,72;7,73;-31,7;-15,1;3,94;4,42;2,62;1,49;0;0;
22006;-28,48;10,69;-34,03;-14,6;3,77;5,08;2,61;1,61;0;0;
22022;-27,42;7,29;-34,87;-15,35;3,62;4,85;3,24;1,82;0;0;
22041;-22,58;14,42;-37,75;-11,99;3,03;5,9;3,48;1,87;0;0;
22059;-27,94;4,77;-38,83;-11,53;3,01;6,71;3,56;1,87;0;0;
22076;-27,2;6,38;-40;-19,33;2,89;6,77;3,38;2,18;0;0;
22094;-29,4;6,24;-35,61;-14,74;2,76;5,79;3,16;2,16;0;0;
22112;-29,34;10,55;-35,27;-17,29;2,68;5,79;2,68;2,2;0;0;
22128;-29,34;10,55;-35,27;-17,29;2,72;4,29;2,14;2,2;0;0;
22143;-31,34;10,07;-35,26;-14,3;2,76;3,58;1,77;2,08;0;0;
22162;-25,58;16,89;-39,75;-15,78;2,68;2,7;1,97;2,1;0;0;
22181;-27,1;8,37;-40,26;-14,1;2,66;2,94;1,8;1,89;0;0;
22200;-22,76;5,11;-38,75;-15,75;2,52;4,89;2,14;1,86;0;0;
22216;-27,67;9,81;-36,94;-17,13;2,55;4,87;2,26;1,91;0;0;
22235;-32,13;9,95;-35,41;-15,72;2,61;4,87;2,27;2,1;0;0;
22253;-23,28;3,23;-36,02;-11,22;2,58;4,78;2,09;2,18;0;0;
22269;-23,28;3,23;-36,02;-11,22;2,75;4,61;1,96;2,02;0;0;
22285;-27,03;16,55;-39,47;-17,31;2,95;3,79;2,11;2,09;0;0;
22302;-26,11;7,34;-34,89;-15,7;2,68;2,34;2,1;2,09;0;0;
22321;-24,18;9,81;-37,06;-16,91;2,76;2,4;1,95;1,87;0;0;
22339;-24,64;11,73;-35,58;-13,76;2,56;2,31;2,13;1,86;0;0;
22359;-30,73;7,67;-35,24;-14,06;2,71;2,27;2,23;2,06;0;0;
22406;-23,26;3,74;-36,82;-15,75;2,48;2,19;2,05;2,08;0;0;
22423;-26,43;12,76;-36,25;-12,01;2,33;2,23;1,9;1,93;0;0;
22441;-30,23;8,62;-36,94;-15,12;2,66;2,26;2,04;1,97;0;0;
22458;-23,92;6,29;-40,73;-22,57;2,8;2,41;2,23;2,02;0;0;
22476;-30,95;13,14;-35,3;-14,96;3,07;2,65;2,58;1,96;0;0;
22493;-26,57;6,45;-36,4;-14,94;3,02;2,73;2,42;1,63;0;0;
22510;-26,57;6,45;-36,4;-14,94;3,13;2,54;2,18;1,69;0;0;
22528;-28,33;12,57;-35,35;-15,62;3,19;2,55;2,26;2,1;0;0;
22545;-25,85;7,5;-37,2;-15,64;2,95;2,51;1,93;2,13;0;0;
22562;-33,35;12,75;-35,27;-14,48;3,14;4,23;2,19;2,3;0;0;
22580;-25,86;13,95;-36,11;-13,56;2,83;4,09;1,75;2,18;0;0;
22598;-28,06;11,31;-40,58;-15,35;2,66;4,3;1,94;2,29;0;0;
22615;-30,55;4,04;-42,48;-12,46;2,68;4,49;2,21;1,98;0;0;
22633;-30,56;13,14;-36,81;-17,03;2,65;4,54;2,65;1,96;0;0;
22649;-30,56;13,14;-36,81;-17,03;2,69;4,07;3,11;1,85;0;0;
22665;-24,6;12,94;-40,87;-15,53;2,72;4,76;3,12;1,87;0;0;
22682;-26,42;67,44;-33,8;-20,11;2,86;8,66;3,21;1,79;0;0;
22702;-21,32;153,42;-35,6;-14,8;3,25;15,76;3,02;1,96;0;0;
22719;-27,22;-5,27;-24,09;-17,64;3,38;19,54;3,09;2,04;0;0;
22736;-35,9;-5,09;-36,65;-12,74;3,43;21,51;2,85;2,13;0;0;
22754;-25,08;-35,14;-39,4;-18,07;3,71;24,41;2,86;2,08;0;0;
22772;-29,06;-31,85;-37,15;-15,12;4,07;23;2,81;2,22;0;0;
22790;-29,06;-31,85;-37,15;-15,12;4,38;21,59;3,05;2,21;0;0;
22807;-27,19;27,78;-34,24;-17,86;3,92;13,14;3,26;2,06;0;0;
22825;-26,57;20,61;-37,57;-14,21;3,82;14,25;2,7;2,03;0;0;
22843;-28,3;-12,56;-36,49;-15,87;3,54;13,52;2,51;2,07;0;0;
22861;-25,66;-2,48;-43,56;-16,47;3,11;12,02;2,24;1,92;0;0;
22879;-22,91;10,55;-42,43;-9,72;2,85;10,15;2,08;2,07;0;0;
22897;-23,51;-9,28;-40,62;-17,42;2,94;9,97;2,36;2,25;0;0;
22917;-30,65;30,83;-34,69;22,3;3,47;11,39;2,38;4,91;0;0;
22934;-35,22;11,64;-33,35;-14,1;3,56;8,62;3,44;5,73;0;0;
22950;-35,22;11,64;-33,35;-14,1;3,79;7,06;4,5;6,61;0;0;
22967;-23,79;-7,11;-44,49;16,48;3,94;6,72;5,57;8,94;0;0;
22985;-28,99;-41,87;-36,77;-10,97;3,7;8,46;14,89;14,72;0;1;
23004;-24,4;25,36;-13,95;9,17;3,6;11,66;20,85;18,16;0;1;
23019;-28,22;43,2;-44,33;-24,44;4,02;14,48;22,44;17,29;0;1;
23037;-23,69;50,77;-42,98;8,12;4,51;18,9;23,31;20,07;0;1;
23055;-11,39;-33,03;-36,01;-50,99;5,08;21,71;23,63;21,27;0;0;
23075;-34,89;-28,35;-46,54;-16,26;6,25;26,21;19,88;24,26;0;0;
23096;-15,31;-8,58;-12,38;26,64;8,51;26,85;15,98;29,65;0;0;
23115;-14,73;37,85;-39,14;35,62;10,3;25,78;11,64;32,01;0;0;
23132;-44,23;14,92;-50,73;0,56;11,5;25,13;11,85;32,49;0;0;
23156;0,07;-23,66;-33,95;-26,62;12,83;26,35;10,94;30,7;0;0;
23175;-40,62;75,36;-25,7;10,8;13,39;28,2;10,83;29,81;0;0;
23194;-44,67;25,93;-37,88;-10,54;13,48;27,03;9,6;27,14;0;0;
23211;-44,67;25,93;-37,88;-10,54;13,88;30,87;7,61;24,52;0;0;
23226;-8,71;19,97;-35,44;-26,86;13,28;32,92;6,87;20,73;0;0;
23244;-58,95;-24,81;-43,48;-13,57;13,96;40,59;5,72;18,65;0;0;
23263;-16,36;10,47;-28,11;-27,22;14,75;41,07;5,66;16,77;0;0;
23283;-4,99;2,74;-41,86;-21,38;15,78;42,33;4,46;12,31;0;0;
23303;-12,18;85,32;-31,86;-13,25;14,89;41,84;4,26;10,44;0;0;
23325;-37,14;18,28;-38,13;-16,09;13,39;39,5;3,07;7,19;0;0;
23341;-19,69;24,02;-40,29;-14,66;13,19;36,24;3,58;7,4;0;0;
23359;-32,58;64,66;-39,31;-24,48;10,13;41,34;4,11;8,28;0;0;
23379;-28,81;27,27;-39,21;-19,76;7,32;44,42;4,58;8,97;0;0;
23397;-24,8;86,16;-36,73;-20,37;6,24;47,07;4,47;7,46;0;0;
23416;-20,83;107,83;-34,62;-14,84;6,14;56,34;4,27;6,33;0;0;
23434;-10,32;-87,6;-32,97;-13,24;6,09;60,02;4,64;6,6;0;0;
23451;-23,56;112,7;-38,97;-30,54;6,15;61,36;4,37;4,93;0;0;
23466;-23,56;112,7;-38,97;-30,54;6,01;60,06;3,47;4,07;0;0;
23482;-18,99;109,62;-30,65;-15,45;6,11;62,83;4,22;2,9;0;0;
23500;-27,34;-2,92;-43,64;-14,55;6,75;56,14;4,47;2,96;0;0;
23516;-31,12;-74,23;-44,8;-20,6;7,19;58,51;4,61;2,93;0;0;
23532;-31,23;25,74;-35,73;-18,42;6,98;56,69;5,41;2,72;0;0;
23549;-31,23;25,74;-35,73;-18,42;7,1;52,89;6,33;2,72;0;0;
23566;-24,54;68,82;-37,96;-13,36;8,65;49,38;5,8;2,75;0;0;
23584;-19,16;52,8;-41,28;-16,61;9,1;46,37;4,7;2,86;0;0;
23605;-32,59;41,7;-39,18;-18,51;8,09;46,93;4,35;2,66;0;0;
23622;-25,67;12,93;-38,68;-15,54;7,04;39,22;4,12;2,59;0;0;
23641;-26,24;8,68;-38,46;-17,41;6,42;35,23;3,05;2,28;0;0;
23656;-29,3;8,36;-34,9;-15,68;5,83;32,03;2,61;1,98;0;0;
23675;-27,27;50,98;-42,95;-14,38;3,9;35,51;2,94;1,78;0;0;
23692;-35,88;-24,36;-33,32;-16,4;3,67;31,37;3,16;1,97;1;0;
23712;-27,82;11,34;-41,47;-12,8;3,48;25,94;3,03;1,88;1;0;
23732;-18,36;9,49;-40,49;-18,87;3,56;20,67;3,52;1,83;1;0;
23749;-18,36;9,49;-40,49;-18,87;3,62;18,54;3,82;1,84;1;0;
23767;-191,01;-2,9;7,2;-17,54;15,78;14,06;6,93;2,36;1;0;
23783;-154,26;-6;-68,88;-19,71;32,72;6,83;20,67;4,01;1;0;
23800;410,3;-5,51;-55,41;-12,92;75,29;5,1;28,57;5,12;1;0;
23818;-163,28;-2,3;-43,69;-15,75;92,28;6,55;30,66;5,29;1;0;
23836;-115,98;39,17;-90,07;-16,35;108,51;7,7;34,56;5,54;1;0;
23853;-336,53;6,4;34,37;-13,23;137,1;8,39;43,35;5,77;1;0;
23874;64,47;1,85;-53,72;-18,88;129,44;8,24;42,34;5,86;0;0;
23893;-44,44;16,05;-14,2;-21,82;128,71;7,87;32,4;4,5;0;0;
23913;-43,55;-1,09;0,87;4,75;114,71;7,69;31,48;5,19;0;0;
23929;-43,55;-1,09;0,87;4,75;115,72;6,99;32,6;6,12;0;0;
23949;-181,69;16,16;-5,75;-7,54;106,81;5,72;31,16;6,39;0;0;
23968;45,24;9,02;-122,22;-20,7;107,63;5,99;32,03;7,35;0;0;
23985;45,24;9,02;-122,22;-20,7;113,7;6,25;34,54;8,61;0;0;
24003;72,49;15,33;-31;-24,12;102,29;6,1;39,22;8,62;0;0;
24018;-49,98;-3,02;-33,01;-16,63;90,9;6,34;40,35;7,81;0;0;
24040;-17,34;-0,32;-39,04;-8,71;89,12;6;40,39;7,29;0;0;
24055;-17,34;-0,32;-39,04;-8,71;94,72;6,01;34,83;6,97;0;0;
24073;-64,05;7,03;-48,2;-22,83;82,52;5,81;32,75;5,74;0;0;
24089;-64,05;7,03;-48,2;-22,83;69,13;5,74;29,76;4,81;0;0;
24107;-17,1;12,81;-11,87;-9,77;70,95;5,68;24,49;4,37;0;0;
24124;-72,32;11,39;-54,58;-17,77;65,54;5,1;24,34;4,58;0;0;
24140;-71,37;14,52;33,54;-15,13;58,24;5,39;24,54;4,02;0;0;
24157;-58,18;13,5;-42,97;-16,4;48,67;4,59;21,44;3,85;0;0;
24174;-26,13;7,29;-62,58;-18,02;49,05;4,05;16,84;3,58;0;0;
24194;-31,7;8,27;-32,72;-19,44;37,77;3,59;16,71;3,78;0;0;
24212;-16,71;2,19;-38,75;-11,73;33,85;4,79;16,11;3,3;0;0;
24229;-16,71;2,19;-38,75;-11,73;25,93;5,84;15,28;3,29;0;0;
24248;-58,74;37,1;-36,4;-14,33;23,87;7,72;11,63;3,26;0;0;
24265;-17,25;-27,97;-41,75;-16,62;21,5;9,14;11,36;2,78;0;0;
24283;-10,82;16,7;-47,17;-21,21;23,65;13,79;6,31;2,5;0;0;
24302;-37,38;14,24;-55,28;-13,21;21,04;13,23;5,42;2,4;0;0;
24318;-23,36;5,56;-33,67;-18,39;15,59;12,29;7,57;2,66;0;0;
24335;-41,38;-7,54;-34,92;-13,61;16,18;12,43;7,73;2,83;0;0;
24352;-16,9;17,45;-36,51;-15,51;20,66;10,7;6,82;2,71;0;0;
24369;-16,9;17,45;-36,51;-15,51;20,22;10,52;6,6;2,55;0;0;
24386;-34,58;-9,28;-42,21;-15,62;20,49;12,76;5,94;2,53;0;0;
24402;-69,73;-23,54;-40,1;-13,37;20,72;16,64;3,94;2,35;0;0;
24418;-10,97;34,72;-32,42;-12,42;23,78;16,96;3,09;2,31;0;0;
24437;-26,25;4,67;-36,2;-11,21;19,43;16,5;2,61;2,16;0;0;
24454;-12,02;-1,41;-37,19;-18,12;15,2;16,56;2,67;2,06;0;0;
24471;-31,78;-13,82;-31,81;-13;12,1;15,25;2,99;2,07;0;0;
24487;-31,78;-13,82;-31,81;-13;12,7;13,16;3,21;2,09;0;0;
24505;-28,07;19,68;-38,88;-17,15;9,49;13,43;2,87;2,1;0;0;
24523;-29,92;-15,38;-37,38;-12,03;6,95;13,35;2,54;2,37;0;0;
24541;-11,99;9,11;-34,87;-14,48;6,69;13,49;2,51;2,45;0;0;
24557;-27,73;12,58;-32,92;-12,75;6,31;11,54;2,74;2,33;0;0;
24577;-28,19;9,23;-39,67;-15,49;5,25;10,42;2,42;2,35;0;0;
24595;-27,64;2,54;-41,99;-12,68;4,93;10,42;2,12;2,4;0;0;
24612;-26,7;14,9;-40,62;-16,18;5,03;7,75;2,26;2,27;0;0;
24629;-26,7;14,9;-40,62;-16,18;4,99;7,01;2,34;2,08;0;0;
24644;-25,18;10,52;-40,1;-16,35;3,56;7,53;2,42;2,08;0;0;
24662;-30,85;12,6;-36,58;-15,22;3,49;7,92;2,48;1,89;0;0;
24678;-27,79;39,29;-31,37;-17,66;3,32;8,17;2,54;1,73;0;0;
24697;-27,6;-4,12;-34,62;-12,04;3,11;8,7;2,6;1,65;0;0;
24719;-27,92;30,64;-37,7;-18,75;3,16;9;2,55;1,89;0;0;
24736;-23,31;12,41;-35,66;-13,48;2,98;7,4;2,52;1,93;0;0;
24753;-23,75;9,2;-38,46;-15,79;2,84;8,18;2,09;2,01;0;0;
24771;-29,58;-4,82;-38,88;-9,24;2,83;9,77;2,18;2,17;0;0;
24788;-29,58;-4,82;-38,88;-9,24;2,84;10;2,02;2,27;0;0;
24806;-31,15;28,31;-36,84;-12,24;2,76;9,71;2,23;2,28;0;0;
24821;-26,2;15,94;-31,54;-12,75;2,94;8,14;2,17;2,12;0;0;
24841;-24,67;7,12;-36,08;-17,81;2,67;8,22;2,14;2,16;0;0;
24856;-31,1;12,74;-42,21;-16,93;2,88;6,56;2,14;2,21;0;0;
24873;-25,21;-25,13;-37,92;-17,26;2,84;8,36;2,16;2,14;1;0;
24889;-25,21;-25,13;-37,92;-17,26;2,96;10,85;2,16;2,03;1;0;
24909;-23,63;21,82;-37,48;-13,4;2,73;12,51;2,15;2,08;1;0;
24928;-23,92;11,29;-30,53;-12,75;2,87;11,95;2,08;2,02;1;0;
24944;-29,42;14,4;-39,89;-16,05;2,96;12,11;2,17;1,94;1;0;
24962;-25,18;15,34;-37,55;-15,65;3,02;12,11;2,19;1,9;1;0;
24980;-33,21;13;-40,24;-15,28;3,25;8,33;2,3;2,01;1;0;
24997;-25,44;9,03;-38,42;-17,4;3,28;4,25;2,23;2,24;1;0;
25016;52,61;14,43;-39,27;-19,84;12,57;3,21;2,36;2,31;1;0;
25034;-53,34;-3,26;-94,21;-23,74;37,53;4,02;6,8;3,13;1;0;
25052;-170,24;11,26;-30,16;-21,1;61,05;5,4;23,46;5,4;1;0;
25069;-170,24;11,26;-30,16;-21,1;84,51;6,66;40,13;7,73;1;0;
25086;218,4;21,95;-77,78;-24,36;101,4;7,02;48,09;8,85;0;0;
25104;30,77;-6,13;56,99;10,57;120,42;8,23;59,94;9,84;0;0;
25125;-77,6;-4,74;-108,58;-23,71;117,77;8,85;66,63;11,07;0;0;
25141;65;8,04;-25,51;-27,34;109,41;8,8;63,48;11,13;0;0;
25160;114,53;4,4;-51;-21,53;115,18;7,94;52,19;10,53;0;0;
25177;-57,67;-2,31;-40,97;-16,45;112,48;8,05;39,71;8,31;0;0;
25195;-2,81;8,27;-36,48;-21,06;95,35;7,77;32,43;7,27;0;0;
25214;66,26;8,57;-44,36;-15,83;85,88;7,07;20,01;6,03;0;0;
25235;152,47;-1,91;-20,61;-11,12;101,65;6,4;14,42;4,75;0;0;
25252;-104,29;16,52;-35,26;-20,97;92,69;6,48;9,13;3,1;0;0;
25269;-104,29;16,52;-35,26;-20,97;80,42;6,69;8,18;2,49;0;0;
25286;152,16;12,27;-40,09;-18,14;84,22;5,96;7,38;2,7;0;0;
25303;47,51;6,33;-28,41;-14,21;99,84;6,19;7,07;2,72;0;0;
25321;-99,73;8,34;-37,74;-10,61;89,73;5,77;6,15;2,77;0;0;
25338;39,47;10,68;-37;-19,37;78,59;4,46;4,03;2,53;0;0;
25357;67,47;7,89;-42,65;-16,06;78,02;4,04;3;2,36;0;0;
25374;-50,27;9,72;-35,91;-14,91;77,33;3,88;2,84;2,25;0;0;
25393;-44,91;13,03;-32,81;-13,85;57;3,15;2,9;2;0;0;
25409;-44,91;13,03;-32,81;-13,85;50,12;2,85;2,54;1,98;0;0;
25426;-16,97;8,76;-36,7;-12,14;41,87;3,13;2,73;1,97;0;0;
25446;-37,22;2,72;-27,04;-15,47;31,12;4,21;2,96;1,76;0;0;
25461;-47,28;11,41;-35,68;-15,24;18,43;5,95;2,68;1,76;0;0;
25478;10,25;14,77;-29,73;-14,53;18,16;6,1;2,8;1,86;0;0;
25495;-33,74;15,63;-37,93;-10,88;19,92;6,45;2,79;1,92;0;0;
25513;-53,66;-18,87;-35,48;-15,12;25,02;7,48;2,45;1,79;0;0;
25529;-53,66;-18,87;-35,48;-15,12;29,24;8,16;1,97;1,72;0;0;
25545;-22,56;32,81;-36,82;-13,84;28,73;7,01;1,78;1,92;0;0;
25561;-19;-1,36;-40,51;-14,92;29,55;7,27;1,94;1,97;0;0;
25578;-15,35;49,27;-33,61;-19,38;24,77;10,89;1,93;2,04;0;0;
25596;19,81;-1,17;-37,43;-15,93;21,23;11,6;2,1;1,97;0;0;
25613;-9,14;-7,73;-38,55;-13,5;16,93;14,62;2,1;2,07;0;0;
25630;-9,14;-7,73;-38,55;-13,5;15,76;17,67;1,87;2,25;0;0;
25647;-27,45;16,24;-38,92;-14,1;14,7;18,82;2;1,89;0;0;
25665;-30,56;-0,5;-33,69;-11,08;13,04;19,86;1,68;1,98;0;0;
25682;-20,33;17,28;-33,25;-15,18;14,62;19,4;1,81;2,11;0;0;
25697;-31,81;0,74;-39,28;-16,26;11,64;19,67;2,1;2,12;0;0;
25715;-27,63;73,89;-41,87;-20,14;10,46;18,55;2,49;2,04;0;0;
25732;-15,31;-4,44;-35,41;-13,41;10,73;17,49;2,61;2,27;0;0;
25748;-15,31;-4,44;-35,41;-13,41;12,5;15,49;2,67;2,38;0;0;
25765;-28,47;14,89;-37,71;-13,81;11,36;14,53;2,62;2,3;0;0;
25782;-29,14;14,12;-32,14;-16,09;10,08;12,21;2,51;2,23;0;0;
25799;-34,16;14,43;-34,46;-10,73;8,85;10,42;2,34;2,34;0;0;
25815;-21,77;15,92;-38,3;-18,28;7,58;9,89;2,39;2,36;0;0;
25833;-32,91;18,97;-34,43;-17,55;4,83;10,54;2,18;2,12;0;0;
25849;-32,91;18,97;-34,43;-17,55;2,5;11,37;2,02;1,87;0;0;
25868;-31,12;14,57;-35,61;-12;2,5;10,68;1,82;1,7;0;0;
25883;-24,45;17,08;-40,26;-12,7;2,35;10,91;1,51;1,77;0;0;
25898;-33,63;9,46;-39,54;-12,71;2,04;8,88;1,44;1,9;0;0;
25915;-23,26;10,2;-34,22;-17,18;2,28;6,85;1,61;1,98;0;0;
25932;-24,62;11,16;-40,09;-12,53;2,68;4,59;1,68;2,37;0;0;
25949;-24,62;11,16;-40,09;-12,53;3,02;2,74;1,7;2,67;0;0;
25966;-31,58;5,18;-32,73;-13,21;3,28;2,51;2,03;2,65;0;0;
25982;-27,27;5,03;-38,54;-18,27;3,49;4,18;2,03;2,63;0;0;
26000;-26,23;6,76;-35,24;-12,52;3,57;4,4;2,31;2,5;0;0;
26017;-34,51;15,03;-38,68;-13,86;3,26;4,62;2,29;2,32;0;0;
26036;-26,85;10,05;-36,4;-13,35;3,04;4,8;2,3;2,1;0;0;
26053;-19,53;11,02;-37,73;-14,9;2,87;4,73;2,22;1,99;0;0;
26069;-19,53;11,02;-37,73;-14,9;2,59;3,54;1,81;2;0;0;
26086;-34,66;11,93;-33,17;-19,07;2,8;2,86;1,81;2,2;0;0;
26103;-32,16;11,11;-38,32;-21,82;3,08;2,77;1,58;2,16;0;0;
26121;-22,72;10,37;-33,36;-13,28;3,41;2,42;1,93;2,24;0;0;
26138;-23,16;12,94;-35,43;-13,56;3,64;2,38;1,85;2,12;0;0;
26156;-25,6;10,57;-37,7;-14,2;3,63;2,3;2,01;2,16;0;0;
26174;-25,6;10,57;-37,7;-14,2;3,55;2,05;2,17;2,17;0;0;
26195;-32,57;13,75;-36,47;-14,73;3,32;2,12;2,09;2,09;0;0;
26213;-30,45;5,01;-37,07;-17,95;3,55;4,1;1,9;1,98;0;0;
26233;-26,39;14,83;-37,13;-19,15;3,56;4,6;1,6;1,91;0;0;
26250;-26,39;14,83;-37,13;-19,15;3,79;5,09;1,52;1,84;0;0;
26272;-25,85;13,73;-38,34;-17,02;3,95;5,89;1,64;1,97;0;0;
26289;-25,85;13,73;-38,34;-17,02;4,08;6,54;1,83;2,13;0;0;
26305;-31,56;5,17;-35,17;-15,43;3,67;6,08;2,33;2,32;0;0;
26323;-22,9;3,83;-38,49;-14,37;3,5;4,4;2,54;2,26;0;0;
26339;-29,7;13,89;-39,03;-17,61;3,22;4,22;3,07;2,35;0;0;
26355;-23,25;12,06;-36,77;-13,74;3,11;3,37;3,15;2,28;0;0;
26375;-33,76;11,76;-36,35;-15,08;2,9;3,4;3,02;2,06;0;0;
26390;-33,76;11,76;-36,35;-15,08;2,67;4,08;2,5;1,86;0;0;
26412;-22,66;9,27;-36,4;-17,11;2,48;4;2,46;1,83;0;0;
26429;-22,66;9,27;-36,4;-17,11;2,2;3,78;1,92;1,9;0;0;
26446;-23,23;9,69;-35,22;-18,1;2,43;3,95;1,74;1,79;0;0;
26464;-24,95;12,35;-36,96;-14,42;2,64;5,66;1,63;1,89;0;0;
26481;-20,28;6,17;-33,99;-15,56;3,14;4,99;1,76;1,81;0;0;
26500;-21,93;7,64;-38,54;-15,47;3,35;4,76;1,79;1,91;0;0;
26519;-24,94;8,79;-34,26;-17,4;3,64;5,01;2,12;1,92;0;0;
26536;-25,59;4,7;-36,42;-16,23;3,72;4,93;2,28;1,98;0;0;
26551;-24,05;-4,3;-33,96;-19,77;3,49;4,99;2,36;1,79;0;0;
26568;-24,05;-4,3;-33,96;-19,77;3,15;3,98;2,25;1,93;0;0;
26584;-27,05;11,4;-36,81;-18,66;2,91;4,15;2,71;1,94;0;0;
26604;-25,24;15,73;-36,97;-15,56;2,81;4,5;2,55;1,8;0;0;
26620;-26,04;5,49;-37,13;-13,12;3,21;4,44;2,07;1,71;0;0;
26636;-28,56;7,95;-35,89;-15,65;3,01;4,46;2,29;1,64;0;0;
26654;-22,68;8,44;-38,21;-17,18;3,07;3,86;2,41;1,63;0;0;
26670;-22,68;8,44;-38,21;-17,18;3,21;3,07;2,34;1,64;0;0;
26687;-34,59;8,54;-34,75;-17,89;3,12;2,7;2,22;1,57;0;0;
26704;-28,32;5,36;-32,81;-9,04;2,78;2,88;2,32;1,91;0;0;
26720;-30,09;14,75;-39,87;-12,92;2,49;2,48;2,61;2,14;0;0;
26736;-20,66;12,79;-37,22;-13,77;2,64;2,62;2,29;2,18;0;0;
26753;-24,42;11,39;-36,58;-17,85;2,71;2,63;2,17;2,14;0;0;
26772;-30,17;18,3;-31,82;-11,42;2,7;2,71;2,14;2,3;0;0;
26792;-27,78;8,4;-35,86;-13,81;2,78;2,92;2,31;2,28;1;0;
26808;-27,78;8,4;-35,86;-13,81;2,91;2,87;2,42;2,11;1;0;
26824;-35,11;11,13;-41,67;-14,84;3,26;2,73;2,22;2,02;1;0;
26841;-28,27;3,34;-35,63;-18,08;3,24;2,71;2,44;2,33;1;0;
26861;-26,65;7,13;-39,64;-16,55;3,27;2,93;2,35;2,42;1;0;
26879;-27,41;14,38;-29,59;-9,44;2,92;2,54;2,48;2,43;1;0;
26896;-14,51;21,49;-35,32;-16,46;3,2;2,49;2,51;2,4;1;0;
26912;132,65;6,92;-40,28;-17,41;21,88;3,2;2,51;2,33;1;0;
26930;132,65;6,92;-40,28;-17,41;40,24;3,95;2,41;2,38;1;0;
26946;94,02;1,89;-37,68;-16,8;70,41;4,5;2,2;2;1;0;
26962;-125,57;-3,89;-59,74;-15,07;80,11;5,46;6,06;2,1;1;0;
26981;-156,99;21,43;-102,83;-22,17;96,82;5,81;14,01;3,2;1;0;
26999;133,35;24,81;-63,74;-19,99;117,36;6,45;28,98;5,26;1;0;
27015;90,57;19,75;-70,22;-15,67;130,19;6,62;35,97;6,98;1;0;
27035;-76,85;4,83;-75,11;-16,73;125,42;6,84;41,35;7,96;1;0;
27053;-382,01;8,18;20,16;-15,3;132,6;6,25;49,8;9,81;0;0;
27074;-65,35;15,19;-37,78;-11,17;136,78;6,42;47,66;9,97;0;0;
27093;-20,51;12,38;-38,21;-16,44;132,88;6,13;29,96;7,5;0;0;
27109;-20,51;12,38;-38,21;-16,44;120,78;5,63;20,65;6,15;0;0;
27125;-21,78;-4,08;-35,38;-13,43;123,27;5,66;17,14;4,65;0;0;
27144;-38,01;15,36;-36,82;-14,44;112,19;5,61;8,76;3,21;0;0;
27163;0,51;13,74;-44,9;-11,46;94,58;5,23;3,51;2,36;0;0;
27179;-26,9;6,04;-38,43;-18,33;78,28;4,53;4,09;2,02;0;0;
27196;-23,47;8,84;-22,57;-15,43;58,88;4,32;4,57;1,93;0;0;
27214;-24,81;12,88;-19,69;-9,83;33,16;4,04;6,19;2,25;0;0;
27235;-10,79;4,94;-31,87;-19,22;22,91;3,7;8,02;2,59;0;0;
27257;-22,31;12,32;-42,32;-17,68;10,46;5,67;9,66;2,5;0;0;
27274;-10,23;21,69;-38,8;-13,93;10,11;10,9;9,29;2,6;0;0;
27289;-10,23;21,69;-38,8;-13,93;12,17;16,34;9,53;2,6;0;0;
27306;-31,92;-8,5;-36,01;-14,48;14,34;17,93;9,16;2,56;0;0;
27323;-29,99;-11,87;-40,27;-15,19;14,15;19,7;6,92;2,32;0;0;
27340;-18,17;4,21;-30,53;-16,4;14,94;20,37;4,36;2,15;0;0;
27357;-37,23;50,56;-41,53;-18,69;13,02;23,57;3,81;2,31;0;0;
27375;-17,69;35,97;-36,95;-11,54;9,9;22,09;3,49;2,43;0;0;
27392;-24,71;-4,39;-38,34;-18,62;6,97;20,13;3,38;2,5;0;0;
27408;-24,71;-4,39;-38,34;-18,62;6,62;18,66;3,29;2,61;0;0;
27427;-21,69;-67,76;-32,4;-9,24;6,32;22,65;2,94;2,45;0;0;
27443;-21,62;-22,9;-34,95;-15,83;4,69;25,61;2,75;2,35;0;0;
27461;-34,68;9,93;-31,45;-9,79;4,89;22,16;2,86;2,35;0;0;
27477;-28,15;7,98;-35,64;-15,09;4,72;20,06;2,66;2,16;1;0;
27492;-20,28;8,1;-35,84;-13,73;4,39;18,59;2,57;2,07;1;0;
27509;-20,28;8,1;-35,84;-13,73;4,16;16,63;2,62;2,03;1;0;
27528;-35,69;7,01;-31,81;-13,49;6,33;8,59;2,45;2,02;1;0;
27545;146,34;17,42;-41,29;-14,64;12,82;6,01;2,3;1,97;1;0;
27563;-106,49;13,35;-40,61;-18,82;26,61;4,89;2,38;2,18;1;0;
27579;-97,87;-3,44;-36,85;-9,99;39,62;6,52;2,3;2,32;1;0;
27597;-49,16;25,52;-40,51;-17,64;54,24;8,07;2,37;2,2;1;0;
27615;-27,91;-0,45;-37,92;-17,08;73,52;9,3;2,6;2,15;1;0;
27635;122,41;-1,84;-38,13;-11,97;84,87;9,58;2,43;2,27;1;0;
27653;-191,69;24,06;-34,85;-15,39;84,88;9,92;2,65;2,21;1;0;
27671;88,18;0,24;-37,57;-15,1;93,06;9,67;2,8;1,84;1;0;
27687;88,18;0,24;-37,57;-15,1;96,16;8,89;2,95;1,75;1;0;
27706;279,9;8,78;-128,16;-28,66;102,67;7,38;12,96;3,25;1;0;
27724;-43,82;13,03;-48,57;-12,82;107,67;6,06;25;4,64;1;0;
27744;-176,15;4,9;-23,59;-34,65;106,11;6,04;35,5;6,24;1;0;
27763;43,72;3,06;-109,35;-43,72;108,52;5,79;49,69;8,87;1;0;
27780;-3,05;14,69;-16,44;-17,62;117,92;5,72;65,12;11,49;0;0;
27798;28,71;4,66;-10,37;-22,15;110,4;5,4;75,35;13,09;0;0;
27821;-8,37;5,16;-22,03;-19,08;99,22;5,9;65,01;11,63;0;0;
27839;319,4;13,96;-18,82;-10,98;102,97;5,99;60,57;10,45;0;0;
27859;-51,74;16,66;-90,97;-18,24;103,97;5,4;60,14;9,91;0;0;
27878;-53,28;-3,05;-36,68;-15,88;89,07;4,9;39,86;6,54;0;0;
27894;72,5;7,41;-35,91;-10,74;95,15;4,77;31,81;5,15;0;0;
27912;111,49;12,28;-39,41;-17,18;96,67;4,46;23,29;3,77;0;0;
27928;111,49;12,28;-39,41;-17,18;106,39;3,93;20,21;3,27;0;0;
27944;35,91;9,66;-46,65;-19,29;89,18;3,9;10,98;2,72;0;0;
27960;-49,83;12,49;-37,57;-16,46;80,83;3,88;4,09;2,02;0;0;
27977;-36,2;9,49;-42,76;-24,67;70,22;3,29;4,39;2,41;0;0;
27998;-40,23;14,63;-41,4;-15,71;56,38;3,29;3,69;2,56;0;0;
28015;58,01;12,75;-34,58;-17,32;47,11;3,24;3,57;2,69;0;0;
28033;-86,02;12,59;-38,1;-16,92;38,42;3,7;3,64;2,84;0;0;
28050;-86,02;12,59;-38,1;-16,92;37,56;4,26;3,51;2,75;0;0;
28067;-36,53;11,8;-41,63;-17,95;30,6;4,27;3,73;2,86;0;0;
28083;-4,34;12,91;-39,63;-16,05;30,07;5,27;3,2;2,42;0;0;
28101;-27,46;23,75;-35,1;-13,94;29,58;7,92;3,09;2,33;0;0;
28119;-28,18;19,6;-30,86;-15,01;25,92;10,27;3,34;2,38;0;0;
28136;-25,92;-25,76;-35,58;-11,94;22,47;11,54;2,99;2,47;0;0;
28154;-39,76;-7,21;-26,73;-15,72;17,52;14,29;2,93;2,4;0;0;
28170;-39,76;-7,21;-26,73;-15,72;14,96;17,23;3,29;2,3;0;0;
28185;-30,58;29,78;-39,35;-11,3;9,51;16,26;3,11;2,42;0;0;
28201;-23,44;12,36;-26,54;-18,51;10,27;14,09;3,56;2,26;0;0;
28218;-12,27;12,91;-41,38;-14,48;8,54;14,05;3,47;2,24;0;0;
28236;-24,46;13,08;-35,23;-16,24;8,24;15,47;3,68;2,35;0;0;
28253;-41,09;25,05;-43,46;-13,22;7,86;14,19;3,31;2,35;0;0;
28270;-41,09;25,05;-43,46;-13,22;6,89;13,81;3;2,21;0;0;
28287;-30,6;12,91;-48;-15,18;6,98;12,65;3,14;2,21;0;0;
28306;-27,17;13,31;-38,28;-17,84;5,81;12,88;2,74;2,21;0;0;
28324;-29,36;-0,58;-40,24;-15,41;4,98;10,1;2,67;2,43;0;0;
28340;-26,93;6,28;-35,29;-18,56;4,72;8,9;2,69;2,53;0;0;
28357;-25,2;7,02;-43,21;-19,63;4,28;7,6;2,77;2,44;0;0;
28377;-24,94;11,74;-37,22;-17,15;3,69;8,01;2,56;2,36;0;0;
28394;-32,61;14,63;-35,84;-16,55;2,79;7,36;2,32;2,31;0;0;
28409;-32,61;14,63;-35,84;-16,55;2,58;6,46;2,1;2,07;0;0;
28427;-30,46;8,36;-35,48;-12,08;2,5;4,5;2,27;2,05;0;0;
28446;-29,25;8,47;-40,18;-16,32;2,93;3,98;2;1,86;0;0;
28463;-31,35;17,63;-40,63;-15,7;2,91;2,58;1,78;2;0;0;
28482;-31,42;14,54;-37,28;-17,27;2,97;4,74;1,99;2,08;0;0;
28498;-29,15;13,46;-39,6;-15,79;2,9;4,91;2,18;2,23;0;0;
28517;-32,12;0,93;-38,58;-15,35;3,42;5,17;2,07;2,08;0;0;
28534;-23,69;11,42;-37,82;-19,25;3,37;5,13;2,41;2,06;0;0;
28553;-27,89;10,41;-36,42;-18,97;3,18;5,06;2,46;2,27;0;0;
28571;-29,02;6,51;-36,75;-15,78;3,3;4,39;2,3;2,23;0;0;
28587;-29,02;6,51;-36,75;-15,78;3,62;2,2;2,13;1,94;0;0;
28605;-31,22;13,97;-36,66;-17,93;3,37;2,26;2,01;1,83;0;0;
28621;-27,34;6,04;-38,13;-12,51;3,21;1,98;1,68;1,84;0;0;
28638;-27,2;5,31;-36,58;-17,97;3,16;2,2;1,46;1,72;0;0;
28657;-23,25;15,22;-33,64;-15,47;3,07;2,63;1,54;1,56;0;0;
28676;-30,26;9,1;-39,46;-17,57;2,61;2,76;1,55;1,68;0;0;
28691;-25,69;11,15;-30,32;-15,72;3,12;2,57;1,73;1,79;0;0;
28708;-25,69;11,15;-30,32;-15,72;3,41;2,78;1,91;1,76;0;0;
28726;-23,63;8,18;-31,25;-15,45;3,84;2,51;2,02;2,02;1;0;
28743;-27,67;10,36;-52,03;-15,57;3,86;2,31;2,36;1,9;1;0;
28760;0,69;3,72;-14,3;-2,21;10,04;2,48;7,11;2,85;1;0;
28778;0,69;3,72;-14,3;-2,21;16,09;2,95;11,87;3,82;1;0;
28796;108,58;19,63;-56,79;-25,38;30,82;3,67;20,95;5,61;1;0;
28814;64,42;9,69;-140,91;-25,21;42,17;3,89;29,24;6,74;1;0;
28832;-105,86;10,83;-103,86;-46,87;56,13;4,23;49,93;10,32;1;0;
28850;-105,86;10,83;-103,86;-46,87;68,08;4,42;68,55;13,6;0;0;
28868;-200,9;5,13;-85,84;-22,47;77,55;5,08;69,5;14,74;0;0;
28887;-28,85;11,52;72,78;5,06;87,82;4,88;67,5;15,48;0;0;
28904;-18,7;4,15;-25,33;-3,32;77,63;5,48;63,07;16,12;0;0;
28921;-146,42;11,53;-51,24;-13,55;79,69;5,9;52,62;14,47;0;0;
28937;65,17;-1,53;-29,11;-20,18;88,04;6,46;36,33;11,15;0;0;
28955;107,14;7,58;-39,69;-14,93;94,14;7,02;23,33;7,54;0;0;
28976;-7,16;-1,74;-34,62;-9,81;95,89;6,88;18,59;5,21;0;0;
28994;-160,61;14,93;-37,2;-19,33;102,61;7,05;11,85;3,12;0;0;
29013;-141,87;15,04;-40,16;-14,22;123,09;6,61;9,71;2,4;0;0;
29033;87,72;6,48;-40,08;-19,94;128,85;7,5;6,86;2,45;0;0;
29051;87,72;6,48;-40,08;-19,94;134,54;7,47;3,67;2,29;0;0;
29067;87,72;6,48;-40,08;-19,94;130,6;7,74;3,22;2,51;0;0;
29085;62,68;9,37;-39,11;-23,43;121,99;7,1;3,11;3,33;0;0;
29104;-85,2;8,54;-41,15;-16,86;116,2;7,24;4,12;3,51;0;0;
29124;-69,65;16,08;-34,88;-15,9;102,84;6,72;3,51;3,43;0;0;
29145;-22,51;17,2;-35,06;-13,93;79,74;5,67;3,61;3,33;0;0;
29162;-58,17;12,12;-40,99;-19,68;58,62;4,81;3,6;3,22;0;0;
29179;14,51;16,95;-37,88;-12,79;40,43;3,92;3,53;3,02;0;0;
29197;-46,92;9,34;-32,81;-15,06;29,74;3,79;3,44;2,24;0;0;
29215;-51,85;0,26;-25,29;-14,06;25,83;4,23;3,28;2,1;0;0;
29232;-9;6,17;-34,5;-14,21;27,19;6,59;3,39;1,95;0;0;
29248;-9;6,17;-34,5;-14,21;28,37;8,9;3,52;1,83;0;0;
29265;34,98;5,06;-40,75;-12,41;29,09;10,72;3,56;1,62;0;0;
29284;-21,51;5,92;-36,96;-14,34;26,69;11,18;3,62;1,64;0;0;
29302;-95,72;6,1;-39,65;-14;24,97;12,17;3,3;1,58;0;0;
29320;-27,36;15,3;-33,94;-15,95;24,77;11,64;2,48;1,71;0;0;
29338;-52,09;-24,05;-27,27;-8,59;22,82;10,53;2,73;2,01;0;0;
29355;-31,47;21,09;-38,78;-14,17;22,91;9,12;2,92;2,03;0;0;
29373;-49,21;21,02;-35,23;-14,83;18,01;10,43;2,86;2,1;0;0;
29397;-25,79;9,51;-36,46;-14,77;18,89;9,17;2,68;2,19;0;0;
29415;-23,75;9,02;-35,86;-15,38;16,43;8,38;2,8;2,22;0;0;
29432;-27,65;16,04;-37,57;-14,62;13,82;7,4;2,77;2,31;0;0;
29451;-31,24;43,77;-36,61;-18,15;11,64;7,17;2,03;2,51;0;0;
29467;-31,24;43,77;-36,61;-18,15;11,43;7,43;1,95;2,84;0;0;
29484;-23,27;5,93;-36,23;-20,84;10,51;7,64;1,91;2,91;0;0;
29499;-27,14;33,26;-34,87;-15,49;7,44;8,53;1,8;3,03;0;0;
29517;-13,24;8,75;-36,94;-21,23;7,95;8,64;1,91;3;0;0;
29537;-29,4;15,17;-42,7;-12,22;8,69;8,48;2,16;2,86;0;0;
29556;-25,68;14,51;-33,87;-11,14;8,83;6,89;2,08;2,67;0;0;
29574;-26,6;9,83;-33,46;-12,62;8,21;5,6;2,13;2,5;0;0;
29591;-24,45;31,66;-33,25;-13,64;7,93;6,8;2,39;2,53;0;0;
29609;-24,45;31,66;-33,25;-13,64;6,02;7,43;2,6;2,62;0;0;
29625;-31,76;6,76;-33,7;-19,46;4,27;7,4;2,46;2,67;0;0;
29645;-31,46;10,12;-36,82;-12,3;3,09;7,33;2,4;2,69;0;0;
29662;-25,86;7,83;-39,65;-14,15;2,98;5,86;2,6;2,63;0;0;
29678;-24,68;12,73;-36,64;-16,27;3,09;5,48;2,24;2,35;0;0;
29695;-26,27;11,54;-33,87;-17,62;3,22;6,02;2,14;2,14;0;0;
29713;-29,6;7,41;-46,2;-19,84;3,01;4,85;2,26;2,17;0;0;
29729;-29,6;7,41;-46,2;-19,84;2,61;5,21;2,51;2,06;0;0;
29748;-28,17;9,23;-35,36;-13,43;2,28;5,36;2,27;2,01;0;0;
29769;-21,02;9,73;-35,51;-17,66;2,49;5,56;2,31;2,09;0;0;
29785;-29,22;7,76;-40,37;-13,76;2,36;4,9;2,43;2,06;0;0;
29801;-27,51;13,13;-34,84;-12,93;2,36;3,28;2,59;2,1;0;0;
29817;-29,84;7,31;-40,4;-15,71;2,51;2,9;2,44;2,02;0;0;
29836;-31,55;18,53;-38,17;-19,35;2,68;2,83;2,25;2,04;0;0;
29853;-28,25;13,24;-40,65;-20,24;2,46;2,87;2,34;2,48;0;0;
29870;-28,25;13,24;-40,65;-20,24;2,12;2,79;2,53;2,84;0;0;
29885;-30,38;11,17;-37,51;-16,54;2,17;2,76;2,44;2,79;0;0;
29905;-22,29;10,02;-34,66;-12,74;2,14;2,63;2,29;2,93;0;0;
29921;-30,46;16,18;-36,68;-17,4;1,97;2,6;2,38;3,07;0;0;
29937;-30,46;16,18;-36,68;-17,4;1,98;2,5;2,31;3,04;0;0;
29953;-32,01;6,86;-37,96;-15,46;2,47;2,06;2,51;2,33;0;0;
29970;-32,01;6,86;-37,96;-15,46;3,06;1,97;2,83;2,22;0;0;
29985;-23,91;6,25;-34,85;-15,81;3,14;1,88;2,77;2,07;0;0;
30002;-27,47;11,66;-36,57;-14,23;2,78;1,9;2,77;2,11;0;0;
30019;-27,47;11,66;-36,57;-14,23;2,74;1,83;2,64;2,18;0;0;
30038;-31,33;5,11;-42,98;-14,92;2,37;2,08;2,58;2,29;0;0;
30056;-29,51;12,65;-38,06;-13,58;2,37;2,19;2,38;2,37;0;0;
30074;-28,27;12,52;-37,18;-15,21;2,43;2,58;2,13;2,44;0;0;
30090;-28,27;12,52;-37,18;-15,21;2,57;2,96;2,13;2,5;0;0;
30107;-29,12;7,63;-36,07;-16,45;2,76;3;1,98;2,34;0;0;
30123;-35,77;10,13;-38,29;-14,27;2,74;3,51;1,87;2,47;0;0;
30142;-29,83;12,68;-39,15;-19,02;2,88;3,27;1,94;2,38;0;0;
30158;-22,51;9,48;-39,06;-16,6;2,74;3,35;2,06;2,32;0;0;
30176;-32,22;8,37;-30,35;-12,83;2,82;2,93;2,37;2,46;0;0;
30195;-21,76;9,6;-37,82;-16,08;2,76;2,59;2,34;2,82;0;0;
30211;-21,76;9,6;-37,82;-16,08;2,73;2,41;2,31;3,23;0;0;
30226;-28,1;-9,9;-40,45;-15,69;2,68;2,66;2,24;2,77;0;0;
30247;-29,34;10,96;-38,94;-15,93;2,65;2,54;2,33;2,83;0;0;
30265;-25,71;11,61;-38,05;-13,24;2,54;2,61;2,12;2,92;0;0;
30282;-30,86;9,44;-34,41;-11,76;2,69;2,64;1,93;2,49;0;0;
30300;-29,5;8,58;-40,39;-19,08;3,1;2,91;1,95;2,2;0;0;
30318;-26,4;-5,91;-38,86;-9,54;2,92;3,25;1,96;2,45;0;0;
30336;-21,02;-7,26;-37,39;-14,24;3,18;4,38;1,73;2,45;0;0;
30353;-25,19;14,71;-33,17;-13,95;3,38;4,73;1,91;2,25;0;0;
30369;-25,19;14,71;-33,17;-13,95;3,49;5,01;2,07;2,15;0;0;
30388;-26,04;4,5;-37,65;-16,8;3,52;5,22;2,05;2,17;0;0;
30406;-28,1;7,75;-36,21;-15,85;3,16;5,47;1,92;1,92;0;0;
30423;-23,71;8,06;-34,06;-16,85;3,05;5,64;1,98;1,94;0;0;
30440;-29,87;8,92;-45,85;-16,12;3,09;5,69;2,24;1,81;0;0;
30458;-29,78;11,45;-38,55;-12,21;3,29;5,44;2,32;2,23;0;0;
30478;-27,14;8,33;-36,94;-14,71;3,53;5,41;2,36;2,52;0;0;
30497;-25,31;9,72;-37,33;-15,47;3,33;6,49;2,28;2,5;0;0;
30514;-28,61;3,03;-35,26;-14,43;3,42;6,21;2,59;2,33;0;0;
30530;-28,61;3,03;-35,26;-14,43;3,53;7,18;2,63;2,5;0;0;
30547;-30,09;10,4;-32,27;-16,45;3,43;7,43;2,18;2,58;0;0;
30565;-25,09;6,44;-42,74;-14,48;3,29;7,56;2,16;2,2;0;0;
30583;-24,68;7,15;-38,38;-16,57;3,49;7,1;2,37;1,88;0;0;
30600;-32,52;16,55;-38,54;-18,81;3,54;7,4;2,1;1,92;0;1;
30616;-30,16;12,84;-34,29;-11,06;3,51;7,06;2,26;1,92;0;1;
30633;-25,64;12,67;-35,49;-18,75;3,13;7,84;2,66;1,96;0;1;
30649;-25,64;12,67;-35,49;-18,75;2,94;8,39;2,92;2,03;0;1;
30668;-28,37;65,73;-37,61;-14,04;2,79;9,31;2,88;2,01;0;1;
30684;-28,16;6,81;-34,11;-17,5;2,9;11,15;3,01;2,18;0;1;
30702;-44,23;22,73;-32,63;-11,5;3,16;12,54;3,06;2,34;0;1;
30719;-26,05;24,29;-29,57;-14,23;5,08;16,75;3,09;2,28;0;1;
30736;-13,24;-71,49;-23,97;-15,05;10,17;23,38;3,08;2,36;0;1;
30754;-54,89;19,93;-30,62;-13,22;15,35;28,5;4,14;2,6;0;1;
30773;-41,42;-22,92;-17,13;16,46;19,94;30,13;4,72;4,25;0;1;
30788;-41,42;-22,92;-17,13;16,46;24,34;33,28;5,4;5,7;0;1;
30805;-0,12;90,73;-42,42;-2,38;45,25;46,69;8,18;8,49;0;1;
30823;-152,03;-252,44;-12,17;13,83;50,54;60,23;17,23;15,94;0;1;
30844;-11,63;19,91;-54,45;-41,19;52,49;75;19,89;19,58;0;1;
30864;5,36;-2,43;2,09;3,5;51,29;81,98;31,33;27,57;0;0;
30883;-95,26;-57,37;-25,65;97,76;55,79;81,92;34,06;33,74;0;0;
30902;-77,01;-130,52;-42,69;-25,4;52,03;92,44;34,36;34,88;0;0;
30920;41,56;-1,51;-37,99;4,44;38,22;83,85;30,41;31,93;0;0;
30943;-23,67;335,2;-38,26;-14,88;29,93;80,18;24,09;26,34;0;0;
30960;-30,69;-21,93;-40;-18,19;27,42;77,76;18,57;24,38;0;0;
30978;-38,87;221,87;-31,29;-31,14;23,58;85,97;7,81;15,05;0;0;
30998;-41,53;81,98;-43,02;-17,55;16,46;85,18;4,02;7,55;0;0;
31017;-10,35;-46,65;-38,25;-14,96;13,55;86,01;3,55;6,89;0;0;
31034;-37,16;-52,65;-42,15;-15,18;14,27;86,36;3,33;6,28;0;0;
31052;-34,02;-54,71;-37,59;-18,14;19,64;75,65;3,62;6,54;0;0;
31070;-34,02;-54,71;-37,59;-18,14;25,34;76,44;4,07;7,35;0;0;
31086;-33,99;-60,83;-43,8;-16,46;25,4;67,79;4,35;6,23;0;0;
31103;-27,62;189,64;-39,68;-17,74;24,4;66,47;4,8;6,43;0;0;
31120;-14,66;36,93;-36,29;-15,87;21,47;54,73;4,6;5,84;0;0;
31140;-14,66;36,93;-36,29;-15,87;13,85;53,34;4,41;5,57;0;0;
31157;-43,55;14,33;-27,88;-6,52;7,55;49,5;4,71;5,57;0;0;
31175;-14,5;-89,44;-33,28;-10,61;9,05;41,81;4,18;5,07;0;0;
31192;-14,5;-89,44;-33,28;-10,61;13,51;42,83;3,44;4,56;0;0;
31207;-14,5;-89,44;-33,28;-10,61;17,58;41,66;2,84;4,61;0;0;
31224;-32,4;21,56;-40,2;1,81;17,51;45,3;2,59;5,75;0;0;
31243;-42,32;-46,87;-39,19;-19,62;17,63;41,95;2,44;6,55;0;0;
31259;-30,32;71,8;-38,07;-11,54;15,96;47,41;2,5;6,17;0;0;
31276;-27,43;-13,74;-33,89;-17,31;11,64;45,15;2,62;5,92;0;0;
31294;-29,73;83,09;-39,52;-17,02;7,51;48,94;2,78;6,17;0;0;
31313;-37,49;4,06;-25,7;-0,61;4,62;45,03;2,87;6,24;0;0;
31331;-25,81;15,66;-33,94;-13,24;4,62;43,64;3,21;4,39;0;0;
31347;-25,81;15,66;-33,94;-13,24;4;42,65;3,16;3,9;0;0;
31364;-24,91;44,07;-36,07;-12,5;4,34;35,95;3,72;3,92;0;0;
31382;-25,58;69,66;-34,93;-17,53;4,35;33,02;3,52;3,89;0;0;
31398;-30,32;4,08;-38,82;-14,32;4,19;25,65;3,85;3,35;0;0;
31415;-28,5;47,34;-38,68;-15,97;3,77;23,27;3,53;2,53;0;0;
31434;-30,66;28,57;-36,71;-12,54;3,85;22,2;3,16;2,48;0;0;
31452;-29,63;80,54;-32,2;-18,86;3,68;22,44;2,77;2,67;0;0;
31469;-29,63;80,54;-32,2;-18,86;3,47;22,82;2,64;2,81;0;0;
31484;-33,31;11,85;-37,17;-16,45;3,06;22,75;2,53;3,13;0;0;
31501;-26,61;7,73;-37,22;-12,25;3,27;20,2;2,37;3,41;0;0;
31517;-27,63;11,74;-30,87;-12,88;2,77;16,69;2,44;3,48;0;0;
31533;-28,04;25,76;-41,7;-19,07;2,73;15,37;2,84;3,21;0;0;
31550;-28,04;25,76;-41,7;-19,07;2,76;12,1;3,08;2,91;0;0;
31569;-29,86;-10,85;-43,21;-18,11;3,14;7,08;3,14;2,82;0;0;
31587;-25,35;18,34;-37,33;-19,15;3;8,3;3,28;2,45;0;0;
31606;-26,39;-3,32;-41,35;-19,48;3,02;9,99;3,24;2,29;0;0;
31622;-27,77;5,49;-34,89;-14,98;3,19;10,12;3,73;2,62;0;0;
31638;-29,53;58,78;-37,94;-13,14;3,29;12,51;3,92;2,9;0;0;
31658;-36,53;10,19;-38,18;-14,84;3,22;13,29;3,44;2,92;0;0;
31676;-20,58;78,51;-39,89;-14,09;3,07;15,11;3,49;2,81;0;0;
31693;-30,49;66,16;-35,29;-15,17;3,11;17,93;3,54;2,89;0;0;
31710;-30,49;66,16;-35,29;-15,17;2,81;22,56;3,53;2,83;0;0;
31729;-25,61;0,73;-31,52;-16,06;2,81;24,29;2,88;2,54;0;0;
31746;-15,86;-25,32;-40,43;-16,6;2,95;21,54;2,75;2,58;0;0;
31764;-22,8;-4,59;-34,47;-13,2;2,7;20,5;2,83;2,4;0;0;
31781;-31,08;8,69;-37,58;-13,86;2,6;17,43;3,24;2,23;0;0;
31800;-25,13;0,4;-38,35;-14,65;2,61;14;3,1;2,2;0;0;
31815;-28,63;4,35;-40,63;-17,16;2,81;11,76;2,94;2,23;0;0;
31832;-28,78;5,26;-45,13;-16,98;2,81;11,32;3,13;2,21;0;0;
31853;-26,2;12,59;-37,57;-16,05;2,59;13,62;3,56;2,47;0;0;
31869;-26,2;12,59;-37,57;-16,05;2,57;16,89;3,73;2,76;0;0;
31887;-28,38;10,04;-40,89;-10,95;3,09;18;3,39;2,72;0;0;
31905;-28,12;10,85;-33,35;-12,87;3,22;14,24;3,55;2,63;0;0;
31923;-23,36;-0,14;-37,41;-14,48;3,21;22,62;3,34;2,93;0;0;
31940;-30,19;5,04;-38,75;-13,99;3,32;21,35;3;2,89;0;0;
31957;-23,03;0,61;-34,52;-13,01;3,49;17,54;2,65;2,57;0;0;
31978;-28,07;2;-23,48;-14,73;3,39;15,79;2,75;2,58;0;0;
31995;-31,77;-38,47;-40,14;-12,41;2,94;16,29;3,05;2,64;0;0;
32012;-22,29;23,08;-29,08;-13,38;2,92;13,81;3,23;2,35;0;0;
32030;-22,29;23,08;-29,08;-13,38;2,84;15,8;3,77;2,29;0;0;
32047;-24,56;17,51;-37,77;-15,35;2,89;17,67;3,51;2,41;0;0;
32066;-25,09;3,24;-32,22;-17,03;2,75;17,68;3,56;2,39;0;0;
32083;-30,63;44,95;-36,37;-13,17;2,75;19,77;3,44;2,13;0;0;
32102;-29,21;10,44;-32,72;-19,11;3,11;18,86;3,58;2,03;0;0;
32121;-23,42;6,94;-40,66;-11,04;3,1;15,42;3,19;1,99;0;0;
32138;-23,42;6,94;-40,66;-11,04;3,07;13,77;3,02;1,91;0;0;
32156;-25,34;53,31;-39,42;-10,46;3,04;16,27;3,05;1,89;0;0;
32173;-27,01;2,01;-30,25;-11,53;2,78;16,38;2,78;2,03;0;0;
32190;-27,01;2,01;-30,25;-11,53;2,53;15,16;2,7;2,11;0;0;
32206;-29,69;11,42;-41,31;-15,88;2,5;15,04;3,04;2,08;0;0;
32223;-28,93;46,4;-39,11;-15,73;2,58;16,71;3,01;1,98;0;0;
32243;-31,08;0,93;-35,74;-16,1;2,58;15,64;3,06;1,8;0;0;
32261;-26,92;6,71;-34,6;-17,36;2,53;13,97;3,09;1,86;0;0;
32279;-29,16;-20,44;-25,54;-15,59;2,73;13,95;3,44;1,88;0;0;
32299;-28,18;-5,25;-36,59;-24,15;2,72;15,68;3,01;2,06;0;0;
32318;-29,56;-7,33;-35,98;-18,05;2,41;15,15;2,58;2,34;0;0;
32339;-30,49;18,72;-34,94;-15,78;2,35;14,07;2,61;2,58;0;0;
32358;-28,36;7,7;-42,53;-18,41;2,47;14,5;2,56;2,67;0;0;
32378;-29,92;21,63;-38,33;-15,46;2,33;15,06;2,77;2,54;0;0;
32399;-28,98;46,42;-32,28;-13,46;2,25;13,95;2,51;2,34;0;0;
32416;-27,03;21,83;-39,3;-13,23;2,52;13,39;2,78;2,12;0;0;
32434;-26,44;-28,26;-38,73;-14,73;2,63;16,15;2,71;2,03;0;0;
32454;-27,03;3,42;-36,41;-17,02;2,55;15,32;2,71;2,16;0;0;
32476;-25,23;28,36;-40,25;-15,68;2,54;15,74;2,72;2,12;1;0;
32497;-30,46;10,33;-34,45;-17,2;2,56;15,04;2,81;2,27;1;0;
32517;-28,78;12,41;-39,05;-16,65;2,87;13,26;4,39;2,39;1;0;
32541;-39,41;11,35;-74,05;-21,69;3,23;9,38;11,01;3,12;1;0;
32559;-25,5;12,92;-147,17;-31,58;6,46;6,54;26,56;5,25;1;0;
32578;57,13;12,12;37,51;-5,36;15,55;4,72;33,26;5,9;1;0;
32596;-39,78;14,19;-110,18;-25,94;39,43;3,25;38,95;6,52;1;0;
32615;-46,11;-2,81;-98,09;-15,04;53,62;3,28;41,88;7,07;0;0;
32632;-61,19;9,38;-31,42;-18,29;62,25;4,05;50,74;8,22;0;0;
32652;318,34;20,28;-84,75;-12,87;77,04;4,19;38,33;7,12;0;0;
32668;318,34;20,28;-84,75;-12,87;90,56;4,53;30,24;6,43;0;0;
32686;-12,56;8,81;-137,6;-34,94;96,29;4,91;34;7,58;0;0;
32702;-50,28;3,08;-54,74;-19,67;85,42;5,07;42,64;9,9;0;0;
32718;-363,86;15,24;14,59;-3,21;94,39;4,83;37,59;9,51;0;0;
32738;-123,26;5,87;38,58;4,54;103,64;4,48;39,44;9,58;0;0;
32759;-410,37;37,78;-36,97;-17,84;100,88;4,93;40,75;9,83;0;0;
32780;122,23;5,21;-31,92;-15,59;100,38;4,85;41,54;9,65;0;0;
32796;7,07;4,53;-4,42;-17,34;92,87;5,08;31,88;7,04;0;0;
32812;-18,8;7,52;-51,15;-16,86;86,5;5,24;28,51;6,43;0;0;
32829;-18,8;7,52;-51,15;-16,86;65,69;5,06;26,13;6,35;0;0;
32846;-167,97;3,64;-13,83;-14,72;73,64;5,26;24,72;4,98;0;0;
32865;13,01;7,27;-16,05;-12,82;61,39;4,76;21,95;4,44;0;0;
32881;-8,6;7,38;-28,18;-7,75;45,25;4,2;18,7;4,39;0;0;
32901;60,93;5,8;-28,42;-12,99;43,65;3,72;16,59;4,15;0;0;
32921;-42,2;12,25;-28,45;-12,74;43,24;3,46;14,04;3,46;0;0;
32938;-66,78;13,47;-31,43;-17,13;35,63;3,36;9,8;3,02;0;0;
32956;-27,31;7,38;-38,53;-14,07;32,96;3,15;9,05;2,86;0;0;
32973;-20,68;8,87;-32,14;-17,79;28,61;2,87;6,92;2,61;0;0;
32990;-20,68;8,87;-32,14;-17,79;26,46;2,67;5,43;2,26;0;0;
33006;-23,1;11,91;-32,05;-18,88;19,98;2,71;6,67;2,54;0;0;
33020;-126,3;13,35;-42,59;-16,29;25,13;3,71;6,67;2,72;0;0;
33041;-46,28;27,38;-34,28;-18,87;20,73;4,41;5,94;3,3;0;0;
33056;-38,78;-2,93;-35,97;-15,3;21,23;5,74;5,32;3,26;0;0;
33073;-28,2;17,59;-39,38;-11,81;25,72;6,76;5,18;3,2;0;0;
33089;-28,2;17,59;-39,38;-11,81;29,21;7,58;3,99;3,18;0;0;
33107;-36,36;10,38;-35,89;-19,49;29,58;8,14;3,58;2,82;0;0;
33123;-34,75;7,69;-40,39;-13,77;27,06;7,13;3,22;2,62;0;0;
33139;-13,6;-5,76;-33,25;-18,41;29,06;6,44;3,34;2,14;0;0;
33158;-24,79;6,89;-51,94;-19,65;25,38;6,37;3,4;1,97;0;0;
33175;-27,19;-5,06;-34,99;-17,06;20,69;5,96;3,56;1,98;0;0;
33193;-69,64;-2,41;-41,08;-17,63;18,71;8,6;3,46;2,21;0;0;
33207;-69,64;-2,41;-41,08;-17,63;18,76;11,4;3,23;2,34;0;0;
33223;-17,96;6,9;-32,19;-17,17;17,36;11,68;3,11;2,35;0;0;
33241;-28,02;9,04;-34,85;-14,46;13,14;14,88;2,91;2,29;0;0;
33259;-39,33;19,24;-35,29;-13;16,35;17,48;2,67;2,35;0;0;
33278;-27,6;14,95;-38,55;-13,68;15,73;15,68;2,64;2,37;0;0;
33297;-26,79;27,78;-33,46;-10,98;13,09;13,22;2,45;2,48;0;0;
33314;-5,09;28,72;-39,52;-12,12;10,02;15,65;2,46;2,52;0;0;
33330;-5,09;28,72;-39,52;-12,12;9,8;16,86;2,65;2,56;0;0;
33350;-34,22;7,84;-36,61;-15,3;9,49;14,14;2,17;2,59;0;0;
33368;-28,66;14,72;-41,58;-12,77;7,71;11,45;2,2;2,5;0;0;
33385;-27,42;5,95;-38,57;-16,81;7,49;11,22;2,24;2,43;0;0;
33402;-30,49;16,1;-34,61;-17,45;7,47;9,39;2,09;2,25;0;0;
33418;-21,51;12,17;-32,63;-13,34;6,85;5,78;1,99;2,21;0;0;
33436;-26,72;12,69;-37,14;-9,81;5,45;4,05;2,17;2,14;0;0;
33455;-28,87;-29,55;-38,01;-18,59;3,92;6,04;2,28;2,24;0;0;
33471;-17,56;7,92;-35,73;-11,75;2,93;8,06;2,5;2,31;0;0;
33487;-17,56;7,92;-35,73;-11,75;2,77;9,87;2,77;2,38;0;0;
33506;-28,79;14,61;-36,06;-16,31;2,68;10,07;2,74;2,45;0;0;
33522;-25,86;11,42;-39,18;-17,73;2,53;9,59;2,73;2,43;0;0;
33540;-30,36;8,86;-40,81;-13,18;2,33;9,42;2,9;2,21;0;0;
33555;-32,9;17,49;-40,61;-20,6;2,38;5,38;2,57;2,09;0;0;
33573;-18,16;3,39;-36,97;-20,11;2,52;3,39;2,67;2,11;0;0;
33589;-18,16;3,39;-36,97;-20,11;2,61;2,76;2,98;2,1;0;0;
33608;-25,67;3,17;-31,23;-16,17;3;2,93;3,24;2,24;0;0;
33624;-27,55;10,35;-40,25;-15,62;2,95;3,31;3,12;2,29;0;0;
33640;-30,1;11,51;-35,18;-14,1;2,93;3,18;3,34;2,27;0;0;
33657;-28,3;5,51;-39,57;-14,84;2,94;3,19;3,23;2,08;0;0;
33673;-23,73;2,58;-33,04;-14,95;2,94;3,56;2,95;2,15;0;0;
33690;-23,73;2,58;-33,04;-14,95;2,58;3,83;2,91;2,33;0;0;
33705;-28,27;8,36;-38,14;-19,18;2,69;3,53;2,47;2,22;0;0;
33721;-28,01;8,97;-36,99;-17,67;2,66;3,4;2,1;2,07;0;0;
33738;-28,09;17,3;-40,99;-20,52;2,59;3,36;1,93;2,11;0;0;
33755;-23,46;8,7;-37,68;-15,7;2,75;2,95;1,86;2,13;0;0;
33774;-29;11,21;-41,82;-10,04;2,52;2,48;2,46;1,95;0;0;
33793;-25,35;10,68;-40,49;-17,28;2,63;2,37;2,67;2,14;0;0;
33811;-25,35;10,68;-40,49;-17,28;2,65;2,38;2,96;2,29;0;0;
33827;-24,77;4,48;-36,46;-15,48;2,77;3,14;2,97;2,33;0;0;
33844;-27,42;11,33;-38,11;-18,17;2,74;3,53;2,84;2,19;0;0;
33860;-27,5;11,4;-39,55;-16,56;3,12;3,37;2,64;2,31;0;0;
33876;-24,25;8,19;-35,97;-19,49;2,97;3,34;2,44;2,12;0;0;
33894;-25,33;15,09;-35,24;-10,7;3;3,28;2,42;2,22;0;0;
33911;-25,54;7,45;-38,12;-17,11;3,02;3,15;2,33;2,23;0;0;
33927;-25,54;7,45;-38,12;-17,11;2,99;2,99;2,39;2,38;0;0;
33943;-38,11;6,38;-36,45;-18,66;3,06;2,93;2,25;2,58;0;0;
33960;-19,47;10,05;-38,75;-16,86;2,77;2,82;2,26;2,67;0;0;
33979;-31,41;13,15;-33,46;-16,55;2,86;2,89;2,17;2,57;0;0;
33996;-24,15;12,37;-36,76;-14,95;2,57;4,85;2,27;2,35;0;0;
34011;-23,87;3,01;-35,62;-16,26;2,61;4,65;2,44;2,46;0;0;
34031;-23,87;3,01;-35,62;-16,26;2,76;4,44;2,54;2,63;0;0;
34049;-27,46;10,43;-35,85;-14,77;2,79;4,44;2,44;2,6;0;0;
34074;-27,94;16,8;-36,32;-14,85;2,65;4,81;2,87;2,51;0;0;
34089;-27,94;16,8;-36,32;-14,85;2,76;4,48;3,25;2,39;0;0;
34106;-29,71;14,93;-35,26;-13,75;2,83;3,49;2,99;2,06;0;0;
34122;-25,71;14,82;-41,36;-12,28;3,01;3,58;2,7;1,81;0;0;
34139;-29,84;10,44;-33,51;-11,48;2,73;3,55;2,76;1,84;0;0;
34157;-27,99;3,26;-34,72;-12,64;2,42;3,55;2,71;1,72;0;0;
34175;-26,75;4,32;-36,6;-15,09;2,4;5,11;2,35;1,8;0;0;
34195;-30,77;8,35;-40,88;-11,77;2,65;5,05;2,27;1,97;0;0;
34212;-23,61;8,31;-38,66;-18,26;2,56;5,43;2,27;1,84;0;0;
34227;-23,61;8,31;-38,66;-18,26;2,47;5,83;2,17;1,84;0;0;
34245;-29,18;12,88;-36,85;-14,79;2,56;5,81;2,31;1,8;0;0;
34263;-29,62;-13,62;-39,95;-14,8;2,81;5,93;2,6;1,8;0;0;
34281;-26,45;10,95;-41,36;-15,41;2,64;5,84;2,6;1,91;0;0;
34302;-22,11;9,85;-37,54;-14,39;2,81;6,62;2,67;2,08;0;0;
34323;-29,69;17,62;-41,43;-18,18;2,73;6,58;2,84;2,08;0;0;
34339;-33,01;8,41;-36,94;-11,56;3,04;6,51;2,55;2,28;0;0;
34355;-33,61;26,5;-40,7;-19,47;3,31;9,81;2,2;2,4;0;0;
34376;-24,76;7;-37,58;-13,23;3,22;9,65;2,36;2,48;0;0;
34394;-24,7;4,26;-38,89;-15,31;3,7;11,41;2,32;2,23;0;1;
34413;-31,56;29,51;-34,83;-19,14;3,86;12,4;2,37;2,21;0;1;
34429;-31,56;29,51;-34,83;-19,14;4,02;13,95;2,44;2,25;0;1;
34445;-13,05;-13,06;-38,49;-14,63;5,33;18,53;2,67;2,1;0;1;
34463;-28,59;-46,91;-48,05;-32,74;6,1;19,48;2,96;2,51;0;1;
34480;-35,2;35,8;-28,18;-9,55;8,31;20,62;3,46;3,74;0;1;
34498;-62,87;-51,3;-31,49;-19,39;13,94;26,82;3,92;4,07;0;1;
34515;37,36;35,44;-29,24;-9,79;20,03;30,08;5,62;4,94;0;1;
34533;53,61;15,42;-55,1;-28,03;28,73;29,82;8,89;6,66;0;1;
34548;53,61;15,42;-55,1;-28,03;37,14;29,65;12,28;8,43;0;1;
34570;-11,1;-1,03;-59,81;-20,92;44,49;37,92;16,58;9,69;0;1;
34588;-27,88;73,15;8,93;67,42;42,86;39,87;21,05;17,85;0;1;
34611;-11,22;-93,27;-19,71;-69,83;40,6;42,59;23,23;24,04;0;0;
34631;-50,53;12,62;-77,57;-27,08;34,91;42,94;25,02;29,34;0;0;
34650;-50,53;12,62;-77,57;-27,08;28,2;43,6;26,48;34,31;0;0;
34669;-39,05;-5,1;-53,63;4,43;25,11;42,05;23,87;35,92;0;0;
34689;-40,95;8,28;-46,51;-28,59;22,87;40,76;21,85;34,92;0;0;
34707;-23,09;11,92;-38,08;-10,98;24,04;36,97;20,48;26,76;0;0;
34726;-60,57;32,07;-25,8;-3,2;25,95;33,39;16,89;22,57;0;0;
34741;-27,11;-13,89;-57,42;-27,69;23,51;33,83;12,28;17,1;0;0;
34759;-44,85;24,08;-40,42;-23,54;17,34;30,96;9,38;12,17;0;0;
34780;-19,1;-40,89;-37,47;-2,88;16,82;29,56;7,09;12,95;0;0;
34797;-24,74;40,78;-25,8;47,1;13,61;32,94;5,62;14;0;0;
34813;-39,78;17,2;-44,01;-31,5;14,78;33,16;5,27;14,77;0;0;
34831;-19,55;-46,72;-31,3;13,6;16,84;36,47;5,56;15,57;0;0;
34846;-19,55;-46,72;-31,3;13,6;21,12;38,93;5,24;16,01;0;0;
34862;-25,63;24,44;-37,39;-19,79;19,46;36,79;4,8;13,57;0;0;
34877;-28,53;1,9;-32,5;-13,99;18,77;37,87;4,85;9,79;0;0;
34896;-22,38;-26,16;-38,26;-20,75;17,76;32,8;4,04;6,81;0;0;
34913;-24,38;44,79;-38,75;-19,04;12,25;33,98;3,54;6,16;0;0;
34930;-24,38;44,79;-38,75;-19,04;6,94;34,87;2,96;4,77;0;0;
34945;-17,57;129,41;-39,57;-4,2;4,33;37,35;3,35;3,9;0;0;
34963;-24,01;9,52;-41,73;-9,47;5,39;39,77;3,97;3,91;0;0;
34980;-22,53;75,67;-33,77;-17,17;5,65;41,35;3,93;3,66;0;0;
34999;-36,18;20,39;-36,48;-15,15;6,76;40,2;3,91;3,64;0;0;
35018;-38,22;-75,04;-29,98;-14,59;8,65;37,93;4,09;3,58;0;0;
35035;-30,79;6,98;-34,93;-4,65;8,94;35,6;4,13;3,61;0;0;
35050;-26;22,61;-38,2;-14,94;8,8;28,45;3,42;3,28;0;0;
35066;-26;22,61;-38,2;-14,94;8,06;26;3,44;3,08;0;0;
35083;-31,83;11,91;-32,94;-10,66;8,19;19,5;4,03;3,39;0;0;
35101;-11,29;8,25;-39,64;-16,14;7,14;17,39;4,06;3,5;0;0;
35120;-67,7;4,18;-41,44;-11,02;10,57;8,99;3,44;3,22;1;0;
35135;117,22;18,18;-45,52;-20,31;23,87;6,3;3,51;3;1;0;
35152;-64,05;22,19;-36,18;-13,48;33,51;6,33;4,45;3,09;1;0;
35169;-64,05;22,19;-36,18;-13,48;42,93;6,3;4,86;3,08;1;0;
35187;1,56;9,81;-38,57;-13,39;50,25;6,57;4,76;2,94;1;0;
35204;-157,25;2,58;-38,87;-19,14;57,13;6,61;4,97;2,96;1;0;
35221;52,4;33,56;-39,4;-15,12;62,05;6,68;4,99;2,71;1;0;
35238;95,91;10,25;-36,44;-17,1;69,22;6,69;3,8;2,54;1;0;
35255;-37,43;18,56;-46,72;-17,41;70,5;6,11;2,97;2,25;1;0;
35272;18,07;2,88;-17,98;-15,17;73,88;5,38;4,53;2,22;1;0;
35287;18,07;2,88;-17,98;-15,17;79,83;5,68;6,19;2,26;1;0;
35306;-33,86;4,36;-46,99;-16,86;80,25;5,96;25,62;4,67;1;0;
35324;-33,86;4,36;-46,99;-16,86;81,1;5,68;45,14;6,96;1;0;
35340;-164,5;-4,62;-199,61;-33,63;80,23;5,99;54,75;9,4;0;0;
35359;151,76;17,13;-109,92;-36,44;91,66;6,02;67,18;13,35;0;0;
35380;169,17;13,67;-154,26;-54,08;97,08;5,66;86,81;17,97;0;0;
35401;-27,5;9,43;106,85;31,65;97,58;6,08;86,73;19,13;0;0;
35418;149,45;2,52;-9,65;-6,1;96,54;5,52;72,29;19,56;0;0;
35435;-144,15;14,29;140,65;25,21;90,75;5,63;67,4;17,82;0;0;
35455;58,02;5,78;-35,76;-14,17;84,63;4,21;62,61;17,95;0;0;
35474;-32,47;12,81;4,79;-19,56;64,1;4,2;66,52;16,45;0;0;
35491;37,89;15,09;-4,53;-13,52;61,22;3,84;59,76;12,95;0;0;
35509;37,89;15,09;-4,53;-13,52;65,24;3,87;61,08;10,75;0;0;
35526;-120,89;9,52;-24,38;-22,92;53,47;3,59;58,74;9,79;0;0;
35543;-98,85;15,24;-46,57;-17,25;48,15;3,31;44,08;6,93;0;0;
35563;-55,14;7,51;-43,72;-21,97;47,6;3,38;36,46;5,39;0;0;
35584;-116,48;13,15;-31,54;-15,46;54,13;3,2;25,7;4,26;0;0;
35605;-22,69;13,4;-31,51;-17,42;47,95;3,05;16,83;3,42;0;0;
35623;-33,04;8,27;-45,88;-16,12;38,44;2,74;11,98;3,17;0;0;
35647;-60,37;4,21;-35;-13,94;38,22;3,06;10,65;3,22;0;0;
35668;-106,53;6,19;-41,76;-14,12;34,32;5,07;8,08;2,77;0;0;
35684;-56,08;-10,62;-31,12;-19,46;28,76;5,76;6,8;2,67;0;0;
35701;-21,67;18,73;-36,5;-27,69;20,22;8,32;5,54;3,37;0;0;
35717;-48,79;6,04;-38,45;-21,73;20,22;8,88;5,72;3,65;0;0;
35736;-31,31;-11,18;-37,25;-17,69;19,42;10,05;5,81;3,67;0;0;
35753;-28,61;25,15;-40,38;-16,84;15,09;11,06;5,84;3,56;0;0;
35772;-15,32;-6,98;-31,2;-15,68;18,97;11,93;5,57;3,59;0;0;
35791;-29,76;-8,84;-38,64;-7,63;17,1;13,47;4,74;3,43;0;0;
35807;-29,76;-8,84;-38,64;-7,63;17,56;14,63;4,22;3,19;0;0;
35822;-48,73;6,41;-34,42;-23,9;16,54;15,19;3,84;5,09;0;0;
35839;-48,73;6,41;-34,42;-23,9;16,92;14,51;3,45;7,42;0;0;
35858;-26,17;31,51;-34,75;-14,63;11,36;16,73;3,63;7,26;0;0;
35875;-24,41;22,54;-36,6;-15,1;5,93;15,32;3,56;7,2;0;0;
35892;-27,3;5,34;-39,38;-18,85;7,43;14,24;3,62;7,18;0;0;
35909;-27,3;5,34;-39,38;-18,85;10,41;13,62;3,75;5,39;0;0;
35928;-27,26;8,25;-40,38;-21,56;9,56;12,68;4,2;3,21;0;0;
35944;-27,26;8,25;-40,38;-21,56;8,52;11,09;4,73;3,05;0;0;
35961;-29,85;15,86;-39,55;-19,13;6,75;7,23;3,96;3,06;0;0;
35979;-32,3;10,92;-37,56;-5,87;3,91;6,82;4,12;3;0;0;
35996;-26,63;24,21;-35,02;-17,1;3,19;7,72;3,78;2,76;0;0;
36011;-26,63;24,21;-35,02;-17,1;3,44;8,67;3,23;2,46;0;0;
36026;-26,63;24,21;-35,02;-17,1;3,53;9,78;2,89;1,83;0;0;
36043;-28,42;10,62;-40,82;-15,5;3,36;11;3,12;2,12;0;0;
36059;-27,66;3,58;-36,17;-11,4;3;9,48;2,73;1,97;0;0;
36076;-24,82;12,44;-36,2;-16,48;2,79;8,42;2,51;1,9;0;0;
36093;-23,51;-3,3;-41,11;-17,98;2,85;8,15;2,68;2,11;0;0;
36111;-30,83;7,36;-35,38;-7,6;3,11;8,22;3,12;2,72;0;0;
36130;-30,83;7,36;-35,38;-7,6;3,48;6,96;3,56;3,15;0;0;
36145;-27,54;12,75;-32,48;-12,75;3,01;8,03;3,66;3,74;0;0;
36161;-25,01;8,84;-39,65;-13,21;3,34;7,69;3,55;3,83;0;0;
36179;-21,44;10,18;-34,61;-14,76;3,09;6,97;3,54;3,8;0;0;
36196;-28,87;8,47;-34,66;-14;2,99;5,33;4,07;3,96;0;0;
36212;-22,85;14,24;-32,51;-12,01;2,62;3,86;3,8;3,58;0;0;
36230;-22,85;14,24;-32,51;-12,01;2,22;2,21;3,75;3,01;0;0;
36246;-28,19;11,84;-40,72;-18,51;2,2;2,23;4,01;2,85;0;0;
36263;-22,91;0,95;-39,32;-15,75;2,17;4,43;4,86;3,19;0;0;
36280;-33,65;7,42;-37,71;-15,61;2,49;4,71;5,31;3,26;0;0;
36298;-28,2;13,08;-37,2;-16,85;2,45;4,63;4,56;3,41;0;1;
36313;-24,86;12,12;-23,09;2,24;2,51;4,6;5,67;3,72;0;1;
36330;-24,86;12,12;-23,09;2,24;2,69;4,52;6,6;3,92;0;1;
36346;-21,07;-6,37;-10,02;26,57;2,96;4,82;7,89;6,23;0;1;
36363;-31,84;-6,89;-35,8;-4,88;3,33;4,82;9,41;7,3;0;1;
36380;-29,6;-1,06;-49,11;-18,1;3,48;8,12;10,35;8,05;0;1;
36397;-23,82;52,18;-33,48;13,21;3,94;12,58;11,37;10,55;0;1;
36415;-22,75;20,45;-50;-12,26;6,15;18,23;14,59;13,38;0;1;
36433;5,27;-58,07;-63,05;-31,53;7,96;23,78;14,7;13,22;0;1;
36452;-23,45;78,04;-38,54;-12,28;10,01;35,96;13,78;13,25;0;1;
36472;-59,21;-210,06;-74,81;-56,55;16,33;56,47;16,57;16,33;0;1;
36488;-59,21;-210,06;-74,81;-56,55;23,05;78,03;19,01;19,34;0;1;
36506;-95,76;-78,14;-97,77;-38,39;27,99;90,99;18,78;18,73;0;1;
36524;41,61;-73,39;-22,58;-12,73;34,55;101,9;19,31;17,88;0;1;
36542;-25,74;22,22;-30,61;-21,26;45,2;99,6;18,73;21,6;0;0;
36565;105,11;-64,51;-47,33;-20,32;48,65;82,91;16,77;17,61;0;0;
36583;-9,19;45,36;-30,92;-5,53;49,18;65,43;13,14;15,27;0;0;
36602;-53,02;-7,65;-37,84;-32,76;47,18;61,43;8,85;15,58;0;0;
36619;-66,33;-114,96;-39,34;-0,42;43,87;63,33;5,71;14,08;0;0;
36634;-11,57;-127,3;-36,32;-21,35;35,81;76,17;3,95;10,95;0;0;
36651;-94,83;185,36;-26,19;11,24;28,76;87,2;4,16;13,58;0;0;
36667;-94,83;185,36;-26,19;11,24;22,75;93,28;4,61;16,53;0;0;
36682;-37,85;-106,69;-46,54;-17,31;24,09;92,59;4,62;15,74;0;0;
36701;6,4;110,54;-41,35;-8,26;24,44;99,12;4,64;14,49;0;0;
36719;-39,6;3,62;-31,72;-16,17;23,84;76,82;4,41;12,42;0;0;
36737;14,21;21,34;-39,16;-20,3;28,56;69,24;4,7;10,1;0;0;
36753;-33,67;-11,65;-39,43;-15,85;25,26;63,72;4,19;6,74;0;0;
36770;-33,67;-11,65;-39,43;-15,85;18,81;59,36;3,48;4,88;0;0;
36786;-20,35;51,95;-41,73;-16,16;17,36;56,48;3,44;4,81;0;0;
36806;-27,42;-60,22;-46,01;-18,79;13,21;49,13;4,02;4,99;0;0;
36822;-20,31;-44,1;-31,56;-19,14;9,5;51,72;4,06;4,96;0;0;
36840;-43,11;17,9;-38,42;-14,81;6,83;53,71;4,15;4,7;0;0;
36856;-25,42;-17,67;-32,79;-19,25;7,3;51,54;4,25;4,37;0;0;
36873;-44,31;56,1;-24,23;-15,23;7,81;48,84;4,66;3,67;0;0;
36888;-44,31;56,1;-24,23;-15,23;8,52;50,81;5,01;3,23;0;0;
36905;-25,75;-13,68;-41,15;-17,12;8;42,45;4,61;2,4;0;0;
36923;-35,45;23,08;-20,3;-15,82;8,11;37,76;5,12;2,16;0;0;
36940;-39,14;-14,26;-42,41;-15,13;6,73;35,74;5,22;2,16;0;0;
36957;-20,47;10,15;-42,11;-15,98;5,9;30,71;4,85;2,13;0;0;
36973;-20,47;10,15;-42,11;-15,98;5,71;24,52;5,08;2,03;0;0;
36991;-20,13;-6,78;-35,97;-16,69;5,35;22,32;4,84;2,01;0;0;
37008;-20,13;-6,78;-35,97;-16,69;5,63;16,71;5,3;2,34;0;0;
37025;-21,98;20,84;-41,43;-15,61;5,04;16,24;5,2;2,41;0;0;
37041;-21,98;20,84;-41,43;-15,61;4,83;14,16;5,22;2,48;0;0;
37058;-30,6;13,27;-43,68;-17,18;4,46;16,61;4,63;2,49;0;0;
37075;-22,25;-23,49;-39,82;-19,49;4,12;16,48;3,75;2,37;0;0;
37091;-22,25;-23,49;-39,82;-19,49;3,76;16,53;3,27;2,14;0;0;
37108;-22,25;-23,49;-39,82;-19,49;3,85;16,25;3,37;2,2;0;0;
37126;-25,44;42,35;-40,09;-13,75;3,72;19,79;3,14;2,24;0;0;
37142;-26,81;3,74;-39,18;-18,53;3,5;18,76;2,91;2,19;0;0;
37165;-25,22;4,34;-41,99;-12,41;3,27;17,47;2,9;2,24;0;0;
37181;-19,01;32,6;-39,62;-16,67;3,25;16,81;3,44;2,2;0;0;
37197;-24,74;4,94;-37,3;-20,03;3,2;17,02;3,44;2,18;0;0;
37214;-27,23;5,08;-41,07;-14,15;3,23;15,89;3,89;2,14;0;0;
37230;-27,23;5,08;-41,07;-14,15;3,47;13,57;4,31;2,27;0;0;
37248;-22,56;18,56;-39,61;-16,97;3,53;17,16;4,74;2,53;0;0;
37264;-27,19;-12,27;-33,76;-14,81;3,37;18,35;4,18;2,45;0;0;
37280;-26,07;11,03;-43,41;-13,63;3,17;18,07;4,89;2,48;0;0;
37299;-28,9;13,51;-39,71;-13,5;2,79;16,61;4,66;2,24;0;0;
37316;-23,32;10,44;-37,54;-14,67;2,54;13,78;3,96;2,35;0;0;
37335;-29,36;4,82;-32,39;-11,39;2,84;13,49;3,59;2,44;0;0;
37351;-23,14;6,66;-31,67;-16,27;2,57;9,86;3,59;2,23;0;0;
37367;-23,14;6,66;-31,67;-16,27;2,75;8,89;2,79;2,19;0;0;
37385;-21,78;-14,06;-37,08;-18,92;2,7;6,85;2,64;2,15;0;0;
37403;-23,42;4,91;-29,86;-13,75;2,9;7,3;2,76;2,06;0;0;
37419;-24,47;14,37;-36,84;-15,18;2,88;5,02;3,2;1,9;0;0;
37438;-19,78;8,96;-39,63;-15,59;2,71;4,45;3,13;1,83;0;0;
37453;-26,32;9,04;-26,17;-12;2,71;4,08;3,63;2;0;0;
37471;-33,27;-12,92;-40,8;-16,96;2,99;4,4;3,48;1,96;0;0;
37488;-33,27;-12,92;-40,8;-16,96;3,24;3,85;3,43;2,05;0;0;
37506;-25,55;25,44;-33,02;-15,06;3,24;4,63;3,26;2,19;0;0;
37523;-23,86;7,52;-34,86;-18,38;3,12;7,13;2,91;2,35;0;0;
37540;-23,86;7,52;-34,86;-18,38;3,12;9,32;3,04;2,24;0;0;
37556;-27,32;25,88;-40,35;-13,63;2,88;11,3;2,49;2,38;0;0;
