Time;EMG1;EMG2;EMG3;EMG4;EMG1_F;EMG2_F;EMG3_F;EMG4_F;Note_R;Note_V;;Level 3;Joueur;Score;Notes hit;% Reussite R;Offset EMG1;Onset EMG1;% Reussite V;Offset EMG2;Onset EMG2
11;-19,53;-7,85;-19,53;-7,85;1,86;2,08;1,86;2,08;0;0;;;1;10000;94;48,48485;-16,66498;99,04076;46,46465;-8,547417;42,27052
35;-12,63;-7,54;-12,63;-7,54;1,94;1,9;1,94;1,9;0;0;;;2;10500;96;50,50505;-16,66498;99,04076;46,46465;-8,547417;42,27052
51;-16,75;-6,69;-16,75;-6,69;1,97;1,99;1,97;1,99;0;0;
71;-21,72;-2,8;-21,72;-2,8;1,93;2,09;1,93;2,09;0;0;
87;-21,72;-2,8;-21,72;-2,8;2,02;2,15;2,02;2,15;0;0;
110;-18,26;-4,7;-18,26;-4,7;2,5;2,36;2,5;2,36;0;0;
128;-18,91;-9,11;-18,91;-9,11;2,53;2,55;2,53;2,55;0;0;
148;-21,08;-5,32;-21,08;-5,32;2,36;2,9;2,36;2,9;0;0;
169;-18,19;-6,6;-18,19;-6,6;2,48;2,57;2,48;2,57;0;0;
190;-25,3;-5,88;-25,3;-5,88;3,02;2,5;3,02;2,5;0;0;
208;-15,73;-8,92;-15,73;-8,92;2,66;2,42;2,66;2,42;0;0;
225;-20,23;-7,57;-20,23;-7,57;2,76;2,47;2,76;2,47;0;0;
246;-13,6;-9,25;-13,6;-9,25;2,85;1,97;2,85;1,97;0;0;
263;-13,57;-9,25;-13,57;-9,25;2,99;2,02;2,99;2,02;0;0;
281;-12,6;-8,81;-12,6;-8,81;2,76;1,95;2,76;1,95;0;0;
300;-21,17;-2,98;-21,17;-2,98;2,97;2,09;2,97;2,09;0;0;
317;-14,18;-2,98;-14,18;-2,98;3,55;2,71;3,55;2,71;0;0;
334;-20,17;-3,47;-20,17;-3,47;3,76;2,78;3,76;2,78;0;0;
352;-14,6;-9,65;-14,6;-9,65;3,72;2,76;3,72;2,76;0;0;
369;-14,6;-9,65;-14,6;-9,65;3,64;2,62;3,64;2,62;0;0;
388;-21,4;-12,38;-21,4;-12,38;3,33;2,73;3,33;2,73;0;0;
407;-14,82;-10,81;-14,82;-10,81;3,17;2,35;3,17;2,35;0;0;
424;-15,23;-8,73;-15,23;-8,73;2,74;1,99;2,74;1,99;0;0;
443;-16,83;-9,15;-16,83;-9,15;2,56;1,97;2,56;1,97;0;0;
461;-21,62;-11,59;-21,62;-11,59;2,71;2,12;2,71;2,12;0;0;
478;-16,46;-14,18;-16,46;-14,18;2,73;2,28;2,73;2,28;0;0;
495;-16,72;-5,51;-16,72;-5,51;2,62;2,61;2,62;2,61;0;0;
512;-17,22;-7,06;-17,22;-7,06;2,86;2,72;2,86;2,72;0;0;
529;-17,22;-7,06;-17,22;-7,06;2,93;2,84;2,93;2,84;0;0;
546;-19,36;-1,74;-19,36;-1,74;2,97;2,81;2,97;2,81;0;0;
565;-17,46;-7,66;-17,46;-7,66;2,72;2,69;2,72;2,69;0;0;
583;-16,23;-8,13;-16,23;-8,13;2,71;2,39;2,71;2,39;0;0;
600;-20,88;-6,68;-20,88;-6,68;3,21;2,13;3,21;2,13;0;0;
616;-18,58;-2,37;-18,58;-2,37;3,23;1,97;3,23;1,97;0;0;
636;-8,25;-4,55;-8,25;-4,55;3,68;2,05;3,68;2,05;0;0;
653;-13,69;-10,45;-13,69;-10,45;4,08;1,97;4,08;1,97;0;0;
674;-14,28;-10,09;-14,28;-10,09;4,05;2,01;4,05;2,01;0;0;
692;-17,42;-10,39;-17,42;-10,39;3,59;2,05;3,59;2,05;0;0;
710;-17,42;-10,39;-17,42;-10,39;3,1;2,07;3,1;2,07;0;0;
728;-18,8;-4,78;-18,8;-4,78;2,87;2,05;2,87;2,05;0;0;
745;-22,48;-4,58;-22,48;-4,58;1,99;2,24;1,99;2,24;0;0;
763;-19,98;-8,63;-19,98;-8,63;2,48;2,39;2,48;2,39;0;0;
781;-16,04;-6,32;-16,04;-6,32;2,42;2,33;2,42;2,33;0;0;
798;-13,87;-12,34;-13,87;-12,34;2,61;2,33;2,61;2,33;0;0;
814;-13,7;-8,66;-13,7;-8,66;2,97;2,32;2,97;2,32;0;0;
832;-20,31;-7,82;-20,31;-7,82;3,2;2,16;3,2;2,16;0;0;
850;-20,31;-7,82;-20,31;-7,82;3,05;1,9;3,05;1,9;0;0;
867;-20,98;-6,01;-20,98;-6,01;2,75;1,8;2,75;1,8;0;0;
885;-20,98;-6,01;-20,98;-6,01;2,67;1,8;2,67;1,8;0;0;
902;-12,59;-6,69;-12,59;-6,69;2,66;1,77;2,66;1,77;0;0;
923;-23,44;-6,42;-23,44;-6,42;2,87;1,91;2,87;1,91;0;0;
945;-10,32;-12,86;-10,32;-12,86;2,8;1,98;2,8;1,98;0;0;
965;-21,65;-4,34;-21,65;-4,34;2,64;1,96;2,64;1,96;0;0;
985;-23,67;-4,9;-23,67;-4,9;2,89;1,97;2,89;1,97;0;0;
1003;-13,96;-8,06;-13,96;-8,06;3,07;1,91;3,07;1,91;0;0;
1023;-17,78;-4,13;-17,78;-4,13;2,59;1,92;2,59;1,92;0;0;
1043;-18,9;-8,39;-18,9;-8,39;2,68;1,88;2,68;1,88;0;0;
1062;-15,04;-9,13;-15,04;-9,13;2,56;2,13;2,56;2,13;0;0;
1081;-15,41;-8,13;-15,41;-8,13;2,57;2,02;2,57;2,02;0;0;
1098;-19,08;-5,3;-19,08;-5,3;2,29;2,02;2,29;2,02;0;0;
1117;-9,62;-8,13;-9,62;-8,13;2,5;2,3;2,5;2,3;0;0;
1134;-15,34;-4,24;-15,34;-4,24;2,81;2,19;2,81;2,19;0;0;
1154;-14,02;-5,47;-14,02;-5,47;3,02;2,26;3,02;2,26;0;0;
1175;-12,79;-6,68;-12,79;-6,68;3,05;2,34;3,05;2,34;0;0;
1195;-22,03;-4,09;-22,03;-4,09;3,04;2,63;3,04;2,63;0;0;
1218;-11,88;-4,23;-11,88;-4,23;3,23;2,56;3,23;2,56;0;0;
1237;-18,48;-2,62;-18,48;-2,62;2,78;2,49;2,78;2,49;0;0;
1256;-15,43;-9,97;-15,43;-9,97;2,87;2,64;2,87;2,64;0;0;
1275;-24,41;-7,88;-24,41;-7,88;2,69;2,48;2,69;2,48;0;0;
1291;-17,04;-8,14;-17,04;-8,14;2,71;2,17;2,71;2,17;0;0;
1309;-17,04;-8,14;-17,04;-8,14;2,66;1,86;2,66;1,86;0;0;
1328;-15,9;-8,69;-15,9;-8,69;2,77;2,01;2,77;2,01;0;0;
1348;-16,08;-11,32;-16,08;-11,32;2,49;2,13;2,49;2,13;0;0;
1365;-16,4;-2,01;-16,4;-2,01;2,56;2,08;2,56;2,08;0;0;
1383;-15,42;-2,08;-15,42;-2,08;2,54;2,82;2,54;2,82;0;0;
1403;-21,82;-7,15;-21,82;-7,15;2,7;2,62;2,7;2,62;0;0;
1421;-18,22;-10,01;-18,22;-10,01;3,06;2,54;3,06;2,54;0;0;
1440;-13,02;-8,07;-13,02;-8,07;3,51;2,38;3,51;2,38;0;0;
1459;-13,87;-8,36;-13,87;-8,36;3,41;2,31;3,41;2,31;0;0;
1476;-15,93;-6,7;-15,93;-6,7;3,09;2,03;3,09;2,03;0;0;
1493;-7,39;-8,74;-7,39;-8,74;3,19;1,7;3,19;1,7;0;0;
1513;-23,14;-9,66;-23,14;-9,66;3,21;1,78;3,21;1,78;0;0;
1530;-23,14;-9,66;-23,14;-9,66;3,73;1,85;3,73;1,85;0;0;
1548;-11,42;-7,48;-11,42;-7,48;3,44;2,11;3,44;2,11;0;0;
1569;-14,84;-8,81;-14,84;-8,81;3,62;2,12;3,62;2,12;0;0;
1587;-15,24;-8,17;-15,24;-8,17;3,88;2,47;3,88;2,47;0;0;
1606;-16,86;-2,79;-16,86;-2,79;3,33;2,87;3,33;2,87;0;0;
1626;-14,99;-10,36;-14,99;-10,36;2,84;2,7;2,84;2,7;0;0;
1646;-17,92;-6,53;-17,92;-6,53;2,55;2,47;2,55;2,47;0;0;
1663;-18,14;-3,51;-18,14;-3,51;2,38;2,51;2,38;2,51;0;0;
1682;-14,24;-9,91;-14,24;-9,91;2,34;2,38;2,34;2,38;0;0;
1699;-20,47;-3,77;-20,47;-3,77;2,55;2,34;2,55;2,34;0;0;
1716;-24,46;-9,92;-24,46;-9,92;2,55;2,26;2,55;2,26;0;0;
1734;-20,34;-10,17;-20,34;-10,17;2,51;2,28;2,51;2,28;0;0;
1752;-16,5;-7,59;-16,5;-7,59;2,75;2,34;2,75;2,34;0;0;
1770;-16,5;-7,59;-16,5;-7,59;2,85;2,14;2,85;2,14;0;0;
1787;-13,59;-11,08;-13,59;-11,08;2,78;2,05;2,78;2,05;0;0;
1804;-24,33;-2,63;-24,33;-2,63;2,84;2,11;2,84;2,11;0;0;
1824;-16,16;-11,27;-16,16;-11,27;3,11;2,09;3,11;2,09;0;0;
1842;-13,13;-8,44;-13,13;-8,44;2,95;2,11;2,95;2,11;0;0;
1860;-11,68;-8,42;-11,68;-8,42;3,04;2,28;3,04;2,28;0;0;
1878;-19,43;-7,28;-19,43;-7,28;3,18;2,59;3,18;2,59;0;0;
1895;-13,61;-6,7;-13,61;-6,7;2,94;2,57;2,94;2,57;0;0;
1915;-23,35;-7,66;-23,35;-7,66;2,97;3,14;2,97;3,14;0;0;
1931;-15,57;-8,51;-15,57;-8,51;3,39;3,21;3,39;3,21;0;0;
1947;-15,57;-8,51;-15,57;-8,51;3,53;3,08;3,53;3,08;0;0;
1966;-15,89;-6,05;-15,89;-6,05;3,55;2,93;3,55;2,93;0;0;
1984;-14,18;-10,7;-14,18;-10,7;3,8;2,89;3,8;2,89;0;0;
2002;-21,53;-7,52;-21,53;-7,52;3,56;2,15;3,56;2,15;0;0;
2018;-11,41;-3,37;-11,41;-3,37;3,6;1,87;3,6;1,87;0;0;
2038;-26,31;-9,31;-26,31;-9,31;3,52;1,84;3,52;1,84;0;0;
2056;-13,28;-3,99;-13,28;-3,99;3,47;1,87;3,47;1,87;0;0;
2076;-15,66;-7,4;-15,66;-7,4;3,31;1,82;3,31;1,82;0;0;
2093;-21,23;-3;-21,23;-3;3,28;1,92;3,28;1,92;0;0;
2112;-13,89;-7,66;-13,89;-7,66;3,31;1,94;3,31;1,94;0;0;
2130;-13,89;-7,66;-13,89;-7,66;3,32;1,94;3,32;1,94;0;0;
2148;-15,63;-5,21;-15,63;-5,21;2,96;1,89;2,96;1,89;0;0;
2168;-14,51;-6,7;-14,51;-6,7;3,35;1,92;3,35;1,92;0;0;
2190;-21,99;-3,24;-21,99;-3,24;4,18;2,02;4,18;2,02;0;0;
2213;-12,89;-4,37;-12,89;-4,37;5,15;2,03;5,15;2,03;0;0;
2234;-13,86;-6,61;-13,86;-6,61;4,95;2,16;4,95;2,16;0;0;
2253;-27,64;-8,03;-27,64;-8,03;5,1;2,02;5,1;2,02;0;0;
2271;-27,64;-8,03;-27,64;-8,03;5,18;1,77;5,18;1,77;0;0;
2289;-6,84;-7,89;-6,84;-7,89;5,18;1,87;5,18;1,87;0;0;
2306;-20,17;-14,8;-20,17;-14,8;3,88;1,89;3,88;1,89;0;0;
2325;-12,58;-6,05;-12,58;-6,05;3,85;2,07;3,85;2,07;0;0;
2345;-24,2;-7,86;-24,2;-7,86;3,92;2,22;3,92;2,22;0;0;
2367;-18,53;-1,14;-18,53;-1,14;3,71;2,66;3,71;2,66;0;0;
2386;-17,26;-9,74;-17,26;-9,74;3,33;2,77;3,33;2,77;0;0;
2404;-20,3;-8,51;-20,3;-8,51;3,26;2,75;3,26;2,75;0;0;
2422;-13,96;-11,35;-13,96;-11,35;3,17;2,45;3,17;2,45;0;0;
2444;-12,81;-7,57;-12,81;-7,57;2,97;2,28;2,97;2,28;0;0;
2464;-16,37;-11,46;-16,37;-11,46;3,32;2,13;3,32;2,13;0;0;
2481;-16,48;-6,88;-16,48;-6,88;3,12;1,82;3,12;1,82;0;0;
2498;-14,67;-7,34;-14,67;-7,34;3,21;1,89;3,21;1,89;0;0;
2516;-16,6;-9,45;-16,6;-9,45;3,03;1,88;3,03;1,88;0;0;
2536;-16,13;-6,99;-16,13;-6,99;3,11;1,83;3,11;1,83;0;0;
2556;-9,5;-8,57;-9,5;-8,57;3,28;1,89;3,28;1,89;0;0;
2577;-26;-3,14;-26;-3,14;3,97;2,05;3,97;2,05;0;0;
2598;-19,96;-0,73;-19,96;-0,73;5,42;2,27;5,42;2,27;0;0;
2618;-11,18;-9,08;-11,18;-9,08;5,87;2,17;5,87;2,17;0;0;
2638;-15;-12,25;-15;-12,25;6,12;2,21;6,12;2,21;0;0;
2661;-14,58;-4,46;-14,58;-4,46;5,65;2,33;5,65;2,33;0;0;
2681;-12,64;-11,34;-12,64;-11,34;4,9;2,35;4,9;2,35;0;0;
2697;-19,89;-7,11;-19,89;-7,11;3,59;2,08;3,59;2,08;0;0;
2718;-19,75;-7,05;-19,75;-7,05;2,48;2,18;2,48;2,18;0;0;
2736;-18,87;-6,13;-18,87;-6,13;2,43;2,17;2,43;2,17;0;0;
2754;-21,56;-6,46;-21,56;-6,46;2,58;2,18;2,58;2,18;0;0;
2775;-11,84;-6,55;-11,84;-6,55;2,65;2,29;2,65;2,29;0;0;
2795;-15,72;-7,68;-15,72;-7,68;2,8;2,26;2,8;2,26;0;0;
2814;-20,72;-4,22;-20,72;-4,22;2,51;2,21;2,51;2,21;0;0;
2837;-10,22;-8,23;-10,22;-8,23;2,85;2,21;2,85;2,21;0;0;
2857;-14,93;-8,91;-14,93;-8,91;2,82;2,29;2,82;2,29;0;0;
2878;-12,76;-10,73;-12,76;-10,73;2,97;2,19;2,97;2,19;0;0;
2895;-20,27;-9,73;-20,27;-9,73;3,05;2,07;3,05;2,07;0;0;
2918;-15,91;-7,59;-15,91;-7,59;3,22;1,9;3,22;1,9;0;0;
2934;-15,91;-7,59;-15,91;-7,59;3,22;1,67;3,22;1,67;0;0;
2952;-16,69;-6,15;-16,69;-6,15;2,92;1,58;2,92;1,58;0;0;
2975;-24,37;-6,06;-24,37;-6,06;2,98;1,65;2,98;1,65;0;0;
2994;-12,89;-7,94;-12,89;-7,94;2,69;1,69;2,69;1,69;0;0;
3011;-12,89;-7,94;-12,89;-7,94;2,61;1,76;2,61;1,76;0;0;
3031;-18,86;-3,44;-18,86;-3,44;2,4;2;2,4;2;0;0;
3052;-25,64;-6,07;-25,64;-6,07;2,5;2,3;2,5;2,3;0;0;
3070;-25,64;-6,07;-25,64;-6,07;2,59;2,59;2,59;2,59;0;0;
3089;-14,79;-15,12;-14,79;-15,12;2,85;2,97;2,85;2,97;0;0;
3108;-23,25;-7,16;-23,25;-7,16;2,82;3,06;2,82;3,06;0;0;
3126;-13,28;-11,45;-13,28;-11,45;3,25;3,14;3,25;3,14;0;0;
3144;-24,41;-9,28;-24,41;-9,28;3,24;2,96;3,24;2,96;0;0;
3164;-18,21;-12,44;-18,21;-12,44;3,12;2,7;3,12;2,7;0;0;
3184;-13,79;-7,78;-13,79;-7,78;3,03;2,6;3,03;2,6;0;0;
3202;-15,73;-7,82;-15,73;-7,82;2,88;2,23;2,88;2,23;0;0;
3222;-18,42;-9,24;-18,42;-9,24;2,64;2,31;2,64;2,31;0;0;
3242;-14,51;-0,06;-14,51;-0,06;2,63;2,44;2,63;2,44;0;0;
3260;-8,54;-7,13;-8,54;-7,13;2,79;2,31;2,79;2,31;0;0;
3280;-15,5;-4,83;-15,5;-4,83;3,27;2,33;3,27;2,33;0;0;
3299;-20,25;-12,45;-20,25;-12,45;3,15;2,33;3,15;2,33;0;0;
3322;-16,74;-10,86;-16,74;-10,86;3,13;2,67;3,13;2,67;0;0;
3343;-18,29;-8,81;-18,29;-8,81;3,13;2,66;3,13;2,66;0;0;
3362;-18,88;-7,48;-18,88;-7,48;3,08;2,64;3,08;2,64;0;0;
3382;-15,46;-10,1;-15,46;-10,1;2,73;2,53;2,73;2,53;0;0;
3403;-11,41;-7,57;-11,41;-7,57;2,64;3,46;2,64;3,46;0;0;
3422;-11,41;-7,57;-11,41;-7,57;2,63;4,34;2,63;4,34;0;0;
3445;-17,22;-10,34;-17,22;-10,34;2,79;4,12;2,79;4,12;0;0;
3464;-17,54;-7,47;-17,54;-7,47;2,42;3,87;2,42;3,87;0;0;
3483;-13,32;-10,37;-13,32;-10,37;2,29;3,75;2,29;3,75;0;0;
3501;-13,34;-6,26;-13,34;-6,26;2,45;2,88;2,45;2,88;0;0;
3524;-15,35;-6,8;-15,35;-6,8;2,86;2,21;2,86;2,21;0;0;
3540;-23,99;-7,16;-23,99;-7,16;3,01;2,2;3,01;2,2;0;0;
3559;-19,61;-9,34;-19,61;-9,34;3,25;2,19;3,25;2,19;0;0;
3579;-18,6;-6,69;-18,6;-6,69;3,47;2,52;3,47;2,52;0;0;
3597;-7,07;-5,72;-7,07;-5,72;3,81;2,37;3,81;2,37;0;0;
3615;-12,33;-11,7;-12,33;-11,7;3,58;2,23;3,58;2,23;0;0;
3635;-19,57;-5,34;-19,57;-5,34;3,49;2,15;3,49;2,15;0;0;
3652;-10,25;-6,23;-10,25;-6,23;3,34;2,03;3,34;2,03;0;0;
3670;-10,25;-6,23;-10,25;-6,23;3,05;1,93;3,05;1,93;0;0;
3689;-25,02;-6,67;-25,02;-6,67;3,28;1,93;3,28;1,93;0;0;
3708;-18,67;-12,25;-18,67;-12,25;3,19;2;3,19;2;0;0;
3727;-12,67;-9,84;-12,67;-9,84;3,07;1,88;3,07;1,88;0;0;
3744;-19,43;-4,24;-19,43;-4,24;2,89;1,9;2,89;1,9;0;0;
3762;-21,06;-8,64;-21,06;-8,64;2,83;1,83;2,83;1,83;0;0;
3780;-15,82;-7,37;-15,82;-7,37;3,05;1,87;3,05;1,87;0;0;
3801;-18,24;-6,13;-18,24;-6,13;2,75;1,89;2,75;1,89;0;0;
3820;-14,7;-9,13;-14,7;-9,13;2,76;1,89;2,76;1,89;0;0;
3838;-28,17;-5,52;-28,17;-5,52;2,86;1,84;2,86;1,84;0;0;
3856;-13,4;-8,13;-13,4;-8,13;3,21;1,78;3,21;1,78;0;0;
3874;-19,53;-6,34;-19,53;-6,34;3,14;2,01;3,14;2,01;0;0;
3889;-19,53;-6,34;-19,53;-6,34;3,09;1,98;3,09;1,98;0;0;
3907;-15,71;-6,14;-15,71;-6,14;3,2;1,95;3,2;1,95;0;0;
3926;-17,56;-7,92;-17,56;-7,92;3,03;2,02;3,03;2,02;0;0;
3943;-12,98;-8,89;-12,98;-8,89;2,84;2,03;2,84;2,03;0;0;
3960;-16,74;-7,01;-16,74;-7,01;2,56;2,21;2,56;2,21;0;0;
3981;-20,26;-9,06;-20,26;-9,06;2,61;2,16;2,61;2,16;0;0;
3998;-12,83;-12,22;-12,83;-12,22;2,67;2,16;2,67;2,16;0;0;
4015;-19,42;-7,22;-19,42;-7,22;2,98;2,23;2,98;2,23;0;0;
4037;-13,65;-11,08;-13,65;-11,08;2,79;2,19;2,79;2,19;0;0;
4054;-20,07;-5,61;-20,07;-5,61;3,16;2,13;3,16;2,13;0;0;
4073;-21,15;-8,99;-21,15;-8,99;3,51;2,1;3,51;2,1;0;0;
4094;-13,6;-7,18;-13,6;-7,18;3,51;2,15;3,51;2,15;0;0;
4114;-14,74;-6,06;-14,74;-6,06;3,13;2,17;3,13;2,17;0;0;
4131;-14,74;-6,06;-14,74;-6,06;2,87;2,2;2,87;2,2;0;0;
4149;-22,88;-1,16;-22,88;-1,16;2,54;2,14;2,54;2,14;0;0;
4166;-9,56;-3,71;-9,56;-3,71;2,39;2,21;2,39;2,21;0;0;
4185;-19,53;-5,44;-19,53;-5,44;2,31;2,24;2,31;2,24;0;0;
4204;-22,46;-10,72;-22,46;-10,72;2,43;2,08;2,43;2,08;0;0;
4221;-16,67;-10,71;-16,67;-10,71;2,94;2;2,94;2;0;0;
4241;-16,76;-13,39;-16,76;-13,39;3,09;2,14;3,09;2,14;0;0;
4261;-24,34;-10,53;-24,34;-10,53;3,88;2,19;3,88;2,19;0;0;
4279;-8,51;-10,76;-8,51;-10,76;5,12;1,98;5,12;1,98;0;0;
4296;-13,19;-8,15;-13,19;-8,15;5,19;2,04;5,19;2,04;0;0;
4315;-5,03;-10,36;-5,03;-10,36;5,71;1,93;5,71;1,93;0;0;
4332;-12,55;-6,05;-12,55;-6,05;5,87;1,83;5,87;1,83;0;0;
4349;-12,55;-6,05;-12,55;-6,05;5,96;1,61;5,96;1,61;0;0;
4365;-21,03;-12,24;-21,03;-12,24;4,84;1,65;4,84;1,65;0;0;
4386;-15,06;-10,71;-15,06;-10,71;4,75;1,63;4,75;1,63;0;0;
4404;-19,48;-4,69;-19,48;-4,69;4,8;1,72;4,8;1,72;0;0;
4421;-13,89;-10,68;-13,89;-10,68;3,76;1,69;3,76;1,69;0;0;
4444;-11,73;-3,19;-11,73;-3,19;3,64;2,31;3,64;2,31;0;0;
4463;-20,16;-5,92;-20,16;-5,92;3,78;2,46;3,78;2,46;0;0;
4481;-19,82;-10,19;-19,82;-10,19;2,73;2,69;2,73;2,69;0;0;
4500;-18,54;-8,4;-18,54;-8,4;2,6;2,58;2,6;2,58;0;0;
4519;-19,3;-10,6;-19,3;-10,6;3,05;2,47;3,05;2,47;0;0;
4539;-1,89;-9,11;-1,89;-9,11;3,26;2,31;3,26;2,31;0;0;
4556;-71,9;-11,05;-71,9;-11,05;20,41;2,43;20,41;2,43;0;0;
4574;16,33;-8,63;16,33;-8,63;39,18;2,6;39,18;2,6;0;0;
4595;-133,06;5,37;-133,06;5,37;48,69;2,8;48,69;2,8;0;0;
4612;-89,18;-6,69;-89,18;-6,69;67,68;3,1;67,68;3,1;0;0;
4632;-0,86;-7,6;-0,86;-7,6;71,92;2,9;71,92;2,9;0;0;
4650;-0,86;-7,6;-0,86;-7,6;68,07;2,5;68,07;2,5;0;0;
4667;-25,71;-8,74;-25,71;-8,74;48,55;2,25;48,55;2,25;0;0;
4685;-20,67;-8,04;-20,67;-8,04;37,46;2,19;37,46;2,19;0;0;
4703;-14,68;-12,83;-14,68;-12,83;23,15;1,82;23,15;1,82;0;0;
4722;-5,19;-6,26;-5,19;-6,26;10,55;2,31;10,55;2,31;0;0;
4739;-21,96;-8,22;-21,96;-8,22;6,23;2,57;6,23;2,57;0;0;
4756;-16,63;-11,06;-16,63;-11,06;4,35;2,67;4,35;2,67;0;0;
4774;-119,05;-8,85;-119,05;-8,85;7,04;2,66;7,04;2,66;0;0;
4795;-224,69;-6,18;-224,69;-6,18;24,34;3,14;24,34;3,14;0;0;
4814;-153,9;-8,75;-153,9;-8,75;39,62;2,96;39,62;2,96;0;0;
4832;260,16;-12,17;260,16;-12,17;64,64;2,93;64,64;2,93;0;0;
4851;236,24;-2,97;236,24;-2,97;90,94;3,25;90,94;3,25;0;0;
4869;236,24;-2,97;236,24;-2,97;116,09;3,7;116,09;3,7;0;0;
4886;205,71;-4,57;205,71;-4,57;126,88;4,41;126,88;4,41;0;0;
4903;2,52;-7,44;2,52;-7,44;122,19;4,05;122,19;4,05;0;0;
4921;112,9;-6,94;112,9;-6,94;124,04;3,91;124,04;3,91;0;0;
4939;403,62;-4,45;403,62;-4,45;115,52;3,94;115,52;3,94;0;0;
4957;-169,6;-11,93;-169,6;-11,93;106,43;3,68;106,43;3,68;0;0;
4975;-41,22;-11,75;-41,22;-11,75;98,13;3,29;98,13;3,29;0;0;
4993;-35,37;-18,9;-35,37;-18,9;102,3;3,57;102,3;3,57;0;0;
5011;230,81;-12,49;230,81;-12,49;113,36;3,71;113,36;3,71;0;0;
5032;-13,48;-8,04;-13,48;-8,04;108,8;3,49;108,8;3,49;0;0;
5055;-53,73;-8,61;-53,73;-8,61;98,06;3,52;98,06;3,52;0;0;
5077;-69,68;-4,37;-69,68;-4,37;77,46;3,32;77,46;3,32;0;0;
5100;-7,6;-8,86;-7,6;-8,86;64,63;3,2;64,63;3,2;0;0;
5123;-23,67;-11,31;-23,67;-11,31;44,26;3,32;44,26;3,32;0;0;
5144;-20,12;-4,06;-20,12;-4,06;18,96;6,54;18,96;6,54;0;0;
5166;-25,02;-37,44;-25,02;-37,44;12,69;13,42;12,69;13,42;0;0;
5188;-28,91;-17,61;-28,91;-17,61;11,07;18,83;11,07;18,83;0;0;
5210;-32,11;67,05;-32,11;67,05;10,09;26,42;10,09;26,42;0;0;
5234;-16,4;-33,3;-16,4;-33,3;10,44;30,87;10,44;30,87;0;0;
5253;-10,39;-20,56;-10,39;-20,56;10,25;31,79;10,25;31,79;0;0;
5272;-26,33;-41,67;-26,33;-41,67;9,51;34,36;9,51;34,36;0;0;
5288;-26,33;-41,67;-26,33;-41,67;9,27;32,19;9,27;32,19;0;0;
5307;23,13;-28,79;23,13;-28,79;9,37;26,32;9,37;26,32;0;0;
5325;-18,51;2,24;-18,51;2,24;8,25;22,22;8,25;22,22;0;0;
5342;-23,85;34,88;-23,85;34,88;8,28;23,41;8,28;23,41;0;0;
5361;-16,85;-26,87;-16,85;-26,87;7,31;22,54;7,31;22,54;0;1;
5379;-7,08;-5,34;-7,08;-5,34;7,31;21,01;7,31;21,01;0;1;
5398;-25,89;-19,38;-25,89;-19,38;6,77;18,58;6,77;18,58;0;1;
5415;-25,89;-93,01;-25,89;-93,01;5,55;21,41;5,55;21,41;0;1;
5434;-18,35;-16,4;-18,35;-16,4;5,33;23,15;5,33;23,15;0;1;
5454;-16,24;142,29;-16,24;142,29;4,96;28,81;4,96;28,81;0;1;
5472;1,89;90,99;1,89;90,99;7,46;37,98;7,46;37,98;0;1;
5494;1,89;90,99;1,89;90,99;9,64;47,2;9,64;47,2;0;0;
5512;-16,89;95,42;-16,89;95,42;9,46;57,06;9,46;57,06;0;0;
5534;-33,27;79,14;-33,27;79,14;11,4;71,62;11,4;71,62;0;0;
5552;-21,48;84,48;-21,48;84,48;12,15;76,32;12,15;76,32;0;0;
5573;-12,9;-191,57;-12,9;-191,57;11,27;75,46;11,27;75,46;0;0;
5591;-1,52;-89,22;-1,52;-89,22;9,28;70,59;9,28;70,59;0;0;
5608;-1,52;-89,22;-1,52;-89,22;7,7;68,87;7,7;68,87;0;0;
5629;-26,5;-82,14;-26,5;-82,14;5,39;46,65;5,39;46,65;0;0;
5651;-14,5;64,52;-14,5;64,52;5,25;45,59;5,25;45,59;0;0;
5669;-14,5;64,52;-14,5;64,52;5,33;42,63;5,33;42,63;0;0;
5686;-25,87;-14,01;-25,87;-14,01;5,82;36,04;5,82;36,04;0;0;
5704;-15,37;111,43;-15,37;111,43;9,91;34,23;9,91;34,23;0;0;
5723;12,41;-15,94;12,41;-15,94;11,15;35,27;11,15;35,27;0;0;
5740;24,99;-11,64;24,99;-11,64;20,38;27,43;20,38;27,43;0;0;
5760;26,97;-20,64;26,97;-20,64;24,58;21,95;24,58;21,95;0;0;
5780;-10,35;52,46;-10,35;52,46;23,79;27,12;23,79;27,12;0;0;
5798;-15,76;10,99;-15,76;10,99;23,48;28,4;23,48;28,4;0;0;
5816;-6,72;0,32;-6,72;0,32;23,81;23,68;23,81;23,68;0;0;
5833;-5,83;-9,71;-5,83;-9,71;21,3;23,2;21,3;23,2;0;0;
5852;-15,52;-6,91;-15,52;-6,91;15,63;23,06;15,63;23,06;0;0;
5869;-15,52;-6,91;-15,52;-6,91;12,26;21,21;12,26;21,21;0;0;
5888;-23,5;-7,59;-23,5;-7,59;10,16;12,72;10,16;12,72;0;0;
5906;-16,36;11,39;-16,36;11,39;9,69;9,35;9,69;9,35;0;0;
5926;-11,59;3,68;-11,59;3,68;7,9;9,32;7,9;9,32;0;0;
5943;-14,15;-15,32;-14,15;-15,32;8,14;10,42;8,14;10,42;0;0;
5962;-16,87;-9,54;-16,87;-9,54;7,03;10,35;7,03;10,35;0;0;
5981;-39,46;-4,7;-39,46;-4,7;6,79;9,18;6,79;9,18;0;0;
6000;0;-1,63;0;-1,63;8,12;8,8;8,12;8,8;0;0;
6016;-15,99;-6,32;-15,99;-6,32;9,32;5,36;9,32;5,36;0;0;
6037;-4;-10,79;-4;-10,79;9,7;3,85;9,7;3,85;0;0;
6057;-20,08;-16,93;-20,08;-16,93;8,57;3,14;8,57;3,14;0;0;
6076;-17,11;-6;-17,11;-6;7,99;4;7,99;4;0;0;
6099;-19,32;-6,44;-19,32;-6,44;6,32;4,24;6,32;4,24;0;0;
6118;-20,38;-3,43;-20,38;-3,43;4,11;4,22;4,11;4,22;0;0;
6135;-20,38;-3,43;-20,38;-3,43;3,99;4,4;3,99;4,4;0;0;
6152;-17,7;-20,41;-17,7;-20,41;3,29;6,82;3,29;6,82;0;0;
6170;-17,7;-20,41;-17,7;-20,41;3,08;8,32;3,08;8,32;0;0;
6188;-13,95;7,77;-13,95;7,77;2,81;8,6;2,81;8,6;0;0;
6207;-16,53;-8,41;-16,53;-8,41;2,85;8,27;2,85;8,27;0;0;
6227;-16,81;-11,64;-16,81;-11,64;2,99;8,34;2,99;8,34;0;0;
6244;-11,14;-31,18;-11,14;-31,18;3,17;9,88;3,17;9,88;0;0;
6263;-19,95;-20,62;-19,95;-20,62;3,4;9,13;3,4;9,13;0;0;
6280;-15,8;-33,63;-15,8;-33,63;3,7;10,69;3,7;10,69;0;0;
6298;-22,42;0,11;-22,42;0,11;3,8;13,78;3,8;13,78;0;0;
6319;-15,56;-13,9;-15,56;-13,9;3,46;16,78;3,46;16,78;0;0;
6336;-20,81;-13,9;-20,81;-13,9;3,4;16,13;3,4;16,13;0;0;
6355;-20,09;-10,58;-20,09;-10,58;3,08;13,44;3,08;13,44;0;0;
6372;-9,51;-6,26;-9,51;-6,26;3,15;12,01;3,15;12,01;0;0;
6392;-21,02;-11,01;-21,02;-11,01;2,68;8,55;2,68;8,55;0;0;
6408;-21,02;-11,01;-21,02;-11,01;2,61;3,09;2,61;3,09;0;0;
6426;-11,47;-7,58;-11,47;-7,58;2,88;2,63;2,88;2,63;0;0;
6445;-22,55;-9,2;-22,55;-9,2;2,63;2,29;2,63;2,29;0;0;
6463;-16;-8,87;-16;-8,87;2,53;2,14;2,53;2,14;0;0;
6480;-16,5;-9,56;-16,5;-9,56;2,24;1,73;2,24;1,73;0;0;
6497;-20,42;-7,63;-20,42;-7,63;2,51;1,46;2,51;1,46;0;0;
6517;-13,3;-5,41;-13,3;-5,41;2,44;1,44;2,44;1,44;0;0;
6533;-16,1;-8,88;-16,1;-8,88;2,2;1,49;2,2;1,49;0;0;
6551;-13,13;-16,43;-13,13;-16,43;2,1;1,75;2,1;1,75;0;0;
6568;-13,13;-16,43;-13,13;-16,43;2,11;2,05;2,11;2,05;0;0;
6589;-24,95;-6,45;-24,95;-6,45;2,32;2,3;2,32;2,3;0;0;
6606;-19,66;-7,76;-19,66;-7,76;2,09;2,48;2,09;2,48;0;0;
6622;-20,46;-6,2;-20,46;-6,2;2,31;2,51;2,31;2,51;0;0;
6639;-21,74;-7,98;-21,74;-7,98;2,39;2,7;2,39;2,7;0;0;
6658;-20,49;-14,69;-20,49;-14,69;2,48;2,93;2,48;2,93;0;0;
6677;-14,91;-5,56;-14,91;-5,56;2,59;3,2;2,59;3,2;0;0;
6698;-8,04;3,63;-8,04;3,63;2,65;6,76;2,65;6,76;0;0;
6716;-15,03;-9,84;-15,03;-9,84;2,72;7,77;2,72;7,77;0;0;
6733;-21,17;-1,72;-21,17;-1,72;2,99;8,29;2,99;8,29;0;0;
6752;-16,09;17,67;-16,09;17,67;3,07;8,93;3,07;8,93;0;0;
6770;-16,09;17,67;-16,09;17,67;3,24;8,89;3,24;8,89;0;0;
6804;-14,91;-8,01;-14,91;-8,01;3,24;8,05;3,24;8,05;0;0;
6822;-16,1;-8,74;-16,1;-8,74;3;5,15;3;5,15;0;0;
6840;-15,97;-9,06;-15,97;-9,06;2,92;5,01;2,92;5,01;0;0;
6855;-22,37;-2,94;-22,37;-2,94;2,91;4,83;2,91;4,83;0;0;
6873;-19,77;-57,23;-19,77;-57,23;2,96;8,87;2,96;8,87;0;0;
6890;-19,77;-57,23;-19,77;-57,23;3,04;12,82;3,04;12,82;0;0;
6917;-15,57;-28,87;-15,57;-28,87;3,92;17,26;3,92;17,26;0;0;
6939;-28,71;-30,34;-28,71;-30,34;5,28;27,31;5,28;27,31;0;0;
6960;-21,67;-64,41;-21,67;-64,41;5,79;32,97;5,79;32,97;0;0;
6982;-29,05;-56,45;-29,05;-56,45;6,41;37,23;6,41;37,23;0;0;
7004;-21,21;-80,08;-21,21;-80,08;6,75;40,35;6,75;40,35;0;0;
7027;-22,13;55,57;-22,13;55,57;6,95;44,55;6,95;44,55;0;0;
7047;-25,51;-10,42;-25,51;-10,42;6,62;41,66;6,62;41,66;0;0;
7065;2,46;-66,11;2,46;-66,11;6,72;38,68;6,72;38,68;0;0;
7084;-17,93;-17,17;-17,93;-17,17;6,5;38,17;6,5;38,17;0;0;
7103;-9,24;-22,53;-9,24;-22,53;5,98;40,39;5,98;40,39;0;0;
7121;-6,08;46,71;-6,08;46,71;6,26;36,2;6,26;36,2;0;0;
7138;-24,56;-91,38;-24,56;-91,38;6,38;38,14;6,38;38,14;0;0;
7156;-33,56;119,42;-33,56;119,42;6,22;46,24;6,22;46,24;0;0;
7177;-25,01;77,9;-25,01;77,9;5,86;48,99;5,86;48,99;0;0;
7197;-2,58;-120,61;-2,58;-120,61;6,26;49,54;6,26;49,54;0;0;
7215;-15,51;20,37;-15,51;20,37;6,14;52,64;6,14;52,64;0;0;
7281;-29,16;87,58;-29,16;87,58;6,31;56,32;6,31;56,32;0;0;
7384;-14,88;-25,92;-14,88;-25,92;5,08;37,47;5,08;37,47;0;0;
7482;-17,47;-64,25;-17,47;-64,25;14,01;28,03;14,01;28,03;0;0;
7509;-16,36;-10,52;-16,36;-10,52;11,33;29,58;11,33;29,58;0;0;
7535;-24,41;-9,61;-24,41;-9,61;7,13;28,85;7,13;28,85;0;0;
7561;-10,28;-10,73;-10,28;-10,73;6,58;29,11;6,58;29,11;0;0;
7588;-33,91;-10,36;-33,91;-10,36;7,34;14,91;7,34;14,91;0;0;
7610;-21,09;-11,68;-21,09;-11,68;6,75;9,24;6,75;9,24;0;0;
7633;-7,47;-22,84;-7,47;-22,84;6,46;7,23;6,46;7,23;0;0;
7652;-14,7;-4,44;-14,7;-4,44;6,34;7,73;6,34;7,73;0;0;
7675;-30,53;-8,04;-30,53;-8,04;8,25;7,19;8,25;7,19;0;0;
7696;9,06;-6,92;9,06;-6,92;9,38;6,54;9,38;6,54;0;0;
7715;-6,46;-23,57;-6,46;-23,57;12,2;6,65;12,2;6,65;0;0;
7733;-25,28;-8,88;-25,28;-8,88;12,76;5,88;12,76;5,88;0;0;
7750;-25,28;-8,88;-25,28;-8,88;12,69;4,14;12,69;4,14;0;0;
7769;-19,27;-9,23;-19,27;-9,23;10,79;3,77;10,79;3,77;0;0;
7788;-16,56;-4,61;-16,56;-4,61;8,9;4,48;8,9;4,48;0;1;
7811;-13,04;-12,2;-13,04;-12,2;5,22;7,62;5,22;7,62;0;1;
7834;-17,22;-4,99;-17,22;-4,99;3,39;6,7;3,39;6,7;0;1;
7855;-16,32;-11,86;-16,32;-11,86;2,69;6,64;2,69;6,64;0;1;
7877;-13,29;-0,79;-13,29;-0,79;1,97;7,56;1,97;7,56;0;1;
7900;-15,08;-10,3;-15,08;-10,3;2,21;7,7;2,21;7,7;0;1;
7921;-17,5;-7,93;-17,5;-7,93;2,13;6,82;2,13;6,82;0;1;
7944;-12,55;-20,81;-12,55;-20,81;2,28;5,08;2,28;5,08;0;1;
7965;-14,17;-5,91;-14,17;-5,91;2,45;6,48;2,45;6,48;0;1;
7984;-18,11;-8;-18,11;-8;2,54;5,81;2,54;5,81;0;1;
8001;-20,38;-9,31;-20,38;-9,31;2,64;4,88;2,64;4,88;0;1;
8020;-12,66;17,95;-12,66;17,95;2,87;4,07;2,87;4,07;0;1;
8038;-17,15;-11,08;-17,15;-11,08;3,14;4,37;3,14;4,37;0;1;
8054;-13,95;-7,05;-13,95;-7,05;3,23;2,62;3,23;2,62;0;1;
8073;-24,33;-12,47;-24,33;-12,47;3,52;3,56;3,52;3,56;0;1;
8092;-11,14;0,08;-11,14;0,08;3,94;5,69;3,94;5,69;0;1;
8111;-11,14;0,08;-11,14;0,08;4,14;8;4,14;8;0;1;
8132;-13,95;-12,42;-13,95;-12,42;3,88;7,49;3,88;7,49;0;0;
8150;-18,3;-5,78;-18,3;-5,78;3,67;7,6;3,67;7,6;0;0;
8169;-14,05;-19,87;-14,05;-19,87;3,63;7,78;3,63;7,78;0;0;
8189;-20,3;-9,1;-20,3;-9,1;3,58;7,19;3,58;7,19;0;0;
8207;-23,39;-27,57;-23,39;-27,57;3,28;8,05;3,28;8,05;0;0;
8232;-11,39;-9,61;-11,39;-9,61;2,97;6,99;2,97;6,99;0;0;
8255;-10,94;-15,11;-10,94;-15,11;3,33;7,75;3,33;7,75;0;0;
8273;-21,3;1,55;-21,3;1,55;3,84;7,92;3,84;7,92;0;0;
8296;-24,77;-13,07;-24,77;-13,07;3,62;7,5;3,62;7,5;0;0;
8321;-14,2;-17,63;-14,2;-17,63;3,3;7,46;3,3;7,46;0;0;
8338;-16,94;-12,42;-16,94;-12,42;3,39;4,34;3,39;4,34;0;0;
8356;-18,53;-20,92;-18,53;-20,92;3,06;4,79;3,06;4,79;0;0;
8373;-9,41;-8,03;-9,41;-8,03;2,63;4,69;2,63;4,69;0;0;
8391;-9,41;-8,03;-9,41;-8,03;2,55;5,03;2,55;5,03;0;0;
8410;-20,68;-23,73;-20,68;-23,73;2,41;5,86;2,41;5,86;0;0;
8432;-13,36;-2,65;-13,36;-2,65;2,24;5,31;2,24;5,31;0;0;
8451;-18,02;-10,19;-18,02;-10,19;2,46;6,02;2,46;6,02;0;0;
8471;-14,9;-11,17;-14,9;-11,17;2,52;4,92;2,52;4,92;0;0;
8489;-16,23;-24,21;-16,23;-24,21;2,51;5,6;2,51;5,6;0;0;
8508;-14,92;4,71;-14,92;4,71;2,51;5,28;2,51;5,28;0;0;
8525;-10,28;14,06;-10,28;14,06;2,91;5,23;2,91;5,23;1;0;
8543;-10,81;-8,19;-10,81;-8,19;3,06;5,81;3,06;5,81;1;0;
8560;-17,96;-9,81;-17,96;-9,81;2,86;4,89;2,86;4,89;1;0;
8578;-13,03;-9,85;-13,03;-9,85;2,96;4,82;2,96;4,82;1;0;
8596;50,04;-7,78;50,04;-7,78;15,94;3,32;15,94;3,32;1;0;
8613;-30,29;-12,16;-30,29;-12,16;31,88;2,89;31,88;2,89;1;0;
8635;-9,56;-11,01;-9,56;-11,01;46,22;2,44;46,22;2,44;1;0;
8655;114,34;-14,84;114,34;-14,84;62,75;2,51;62,75;2,51;1;0;
8672;114,34;-14,84;114,34;-14,84;79,57;2,88;79,57;2,88;1;0;
8689;232,97;-5,32;232,97;-5,32;95,44;3,11;95,44;3,11;1;0;
8706;-85,74;-13,74;-85,74;-13,74;112,15;3,82;112,15;3,82;1;0;
8737;92,3;-10,85;92,3;-10,85;115,65;3,91;115,65;3,91;0;0;
8762;-208,63;-4,67;-208,63;-4,67;124,83;3,93;124,83;3,93;0;0;
8784;-8,88;-7,06;-8,88;-7,06;118,02;3,8;118,02;3,8;0;0;
8804;-28,52;-21,24;-28,52;-21,24;107,41;3,77;107,41;3,77;0;0;
8826;-15,28;-43,52;-15,28;-43,52;79,67;4,78;79,67;4,78;0;0;
8849;-16,29;0;-16,29;0;59,8;9,7;59,8;9,7;0;0;
8865;-15,26;-61,36;-15,26;-61,36;33,29;13,64;33,29;13,64;0;0;
8883;-23,44;-38,85;-23,44;-38,85;12,57;16,68;12,57;16,68;0;0;
8904;-21,87;13,94;-21,87;13,94;8,91;22,17;8,91;22,17;0;0;
8923;-19,9;-16,49;-19,9;-16,49;4,86;24,49;4,86;24,49;0;0;
8939;-8,68;-7,32;-8,68;-7,32;4,89;22,93;4,89;22,93;0;0;
8958;-29,07;56,87;-29,07;56,87;4,36;24,78;4,36;24,78;0;0;
8977;-26,27;-30,77;-26,27;-30,77;4,87;24,57;4,87;24,57;0;0;
8995;-10,58;35,56;-10,58;35,56;5,32;27,39;5,32;27,39;0;0;
9010;-10,58;35,56;-10,58;35,56;5,74;28,49;5,74;28,49;0;0;
9030;-2,22;-11,89;-2,22;-11,89;6,04;26,62;6,04;26,62;0;0;
9048;-17,3;-8,22;-17,3;-8,22;7,23;23,92;7,23;23,92;0;0;
9065;-26,41;-6,69;-26,41;-6,69;8,36;17,8;8,36;17,8;0;0;
9083;8,94;-9,35;8,94;-9,35;10,06;13,97;10,06;13,97;0;0;
9101;-3,04;-1,88;-3,04;-1,88;16,03;7,87;16,03;7,87;0;0;
9120;-42,96;-6,04;-42,96;-6,04;24,37;3,11;24,37;3,11;0;0;
9139;5,1;-7,56;5,1;-7,56;29,87;2,71;29,87;2,71;0;0;
9156;-12,96;-9,73;-12,96;-9,73;29,15;2,7;29,15;2,7;0;0;
9174;-15,08;-8,91;-15,08;-8,91;28,96;3,76;28,96;3,76;0;0;
9190;-15,08;-8,91;-15,08;-8,91;26,18;4,65;26,18;4,65;0;0;
9207;-21,21;-5,71;-21,21;-5,71;19,81;4,68;19,81;4,68;0;0;
9225;-8,11;-8,64;-8,11;-8,64;12,7;4,49;12,7;4,49;0;0;
9243;-17,23;-34,08;-17,23;-34,08;7,06;4,95;7,06;4,95;0;0;
9263;-22,48;-8,34;-22,48;-8,34;6,57;6,47;6,57;6,47;0;0;
9281;-12,17;-1,75;-12,17;-1,75;5,81;6,39;5,81;6,39;0;0;
9300;-23,07;-2,78;-23,07;-2,78;4,56;6,7;4,56;6,7;0;0;
9319;-16,86;-12,07;-16,86;-12,07;4,03;6,63;4,03;6,63;0;0;
9338;-18,08;-5,91;-18,08;-5,91;3,11;6,57;3,11;6,57;0;0;
9356;-17,82;-3;-17,82;-3;3,03;4,3;3,03;4,3;0;0;
9384;-13,83;-11,15;-13,83;-11,15;2,32;4,73;2,32;4,73;0;0;
9404;-18,55;-1,09;-18,55;-1,09;2,21;3,79;2,21;3,79;0;0;
9421;-19,63;-1,28;-19,63;-1,28;2,27;3,62;2,27;3,62;0;0;
9441;-17,82;-7,18;-17,82;-7,18;2,22;3,7;2,22;3,7;0;0;
9459;-11,58;-6,08;-11,58;-6,08;2,43;3,89;2,43;3,89;0;0;
9479;-18,33;-10,83;-18,33;-10,83;4,13;3,17;4,13;3,17;0;0;
9498;-148,89;-0,32;-148,89;-0,32;26,99;3,18;26,99;3,18;0;0;
9516;-90,75;-6,74;-90,75;-6,74;46,88;3,37;46,88;3,37;0;0;
9534;-29,87;-14,36;-29,87;-14,36;63,44;3,74;63,44;3,74;0;0;
9551;-29,87;-14,36;-29,87;-14,36;80,12;4,26;80,12;4,26;0;0;
9574;-269,82;2,02;-269,82;2,02;93,27;4,59;93,27;4,59;0;0;
9592;-269,82;2,02;-269,82;2,02;96,95;4,93;96,95;4,93;0;0;
9613;-101,26;-5,2;-101,26;-5,2;82,81;4,88;82,81;4,88;0;0;
9631;-101,26;-5,2;-101,26;-5,2;71,88;4,29;71,88;4,29;0;0;
9650;-67,3;-4,56;-67,3;-4,56;67,73;3,96;67,73;3,96;0;0;
9667;-84,62;-9,68;-84,62;-9,68;65,21;3,82;65,21;3,82;0;0;
9686;-138,31;-10,62;-138,31;-10,62;59,03;3,39;59,03;3,39;0;0;
9705;-129,56;-4,61;-129,56;-4,61;64,97;3,36;64,97;3,36;1;0;
9724;67,34;-18,58;67,34;-18,58;70,84;3,73;70,84;3,73;1;0;
9742;-177,79;3,35;-177,79;3,35;82,62;3,92;82,62;3,92;1;0;
9762;-2,38;-7,44;-2,38;-7,44;84,6;3,73;84,6;3,73;1;0;
9780;135,14;-1,04;135,14;-1,04;92,24;3,72;92,24;3,72;1;0;
9801;-45,51;-3,17;-45,51;-3,17;95,46;3,99;95,46;3,99;1;0;
9819;-293,78;-7,7;-293,78;-7,7;101,56;3,58;101,56;3,58;0;0;
9842;12,72;-7,41;12,72;-7,41;97,09;3;97,09;3;0;0;
9864;-26,2;-2,52;-26,2;-2,52;80,69;2,61;80,69;2,61;0;0;
9884;-13,9;-14;-13,9;-14;69,06;2,67;69,06;2,67;0;0;
9908;-15,9;-15,53;-15,9;-15,53;50,56;3,83;50,56;3,83;0;0;
9930;-13,34;10,01;-13,34;10,01;39,24;6,7;39,24;6,7;0;0;
9950;-14,32;-11,03;-14,32;-11,03;13,04;7,57;13,04;7,57;0;0;
9969;-16,92;-0,03;-16,92;-0,03;4,18;8,6;4,18;8,6;0;0;
9987;-11,18;-15;-11,18;-15;3,41;9,44;3,41;9,44;0;0;
10004;-13,74;-17,83;-13,74;-17,83;3,39;11,13;3,39;11,13;0;0;
10022;-19,01;-11,5;-19,01;-11,5;3,52;11,97;3,52;11,97;0;0;
10042;-15,39;-1,75;-15,39;-1,75;3,31;11,29;3,31;11,29;0;0;
10064;-17,24;-9,34;-17,24;-9,34;2,65;10,65;2,65;10,65;0;0;
10082;-22,41;-10,77;-22,41;-10,77;3,04;10,2;3,04;10,2;0;0;
10101;-24,94;-4,16;-24,94;-4,16;2,84;10,01;2,84;10,01;0;0;
10118;33,15;-3,39;33,15;-3,39;5,14;6,35;5,14;6,35;0;0;
10136;-48,31;-10,07;-48,31;-10,07;9,15;4,97;9,15;4,97;0;0;
10153;-24,38;-4,74;-24,38;-4,74;13,44;4,39;13,44;4,39;0;0;
10170;-24,38;-4,74;-24,38;-4,74;17,53;4,34;17,53;4,34;0;0;
10187;-11,92;-8,83;-11,92;-8,83;17,73;4,09;17,73;4,09;0;0;
10207;-16,39;-6,86;-16,39;-6,86;17,02;3,57;17,02;3,57;0;0;
10224;-20,17;-4,1;-20,17;-4,1;13,04;3,69;13,04;3,69;0;0;
10243;-23,59;-9,05;-23,59;-9,05;9,7;3,29;9,7;3,29;0;0;
10260;-12,51;-2,75;-12,51;-2,75;5,85;2,8;5,85;2,8;0;0;
10279;-13,58;-1,79;-13,58;-1,79;3,93;2,49;3,93;2,49;0;0;
10296;-19,77;-9,37;-19,77;-9,37;3,69;2,34;3,69;2,34;0;0;
10319;-16,96;-7,04;-16,96;-7,04;3,46;2,38;3,46;2,38;0;0;
10341;-11,47;0,44;-11,47;0,44;3,29;2,3;3,29;2,3;0;0;
10360;-15,17;-10,26;-15,17;-10,26;2,63;2,48;2,63;2,48;0;0;
10381;-20,12;-4,07;-20,12;-4,07;2,47;2,55;2,47;2,55;0;0;
10400;-17,61;-10,42;-17,61;-10,42;2,41;2,51;2,41;2,51;0;0;
10453;-18,86;-6,68;-18,86;-6,68;2,44;2,74;2,44;2,74;0;0;
10605;-10,97;-11,82;-10,97;-11,82;2,53;2,67;2,53;2,67;0;0;
10634;-15,16;-7,64;-15,16;-7,64;2,41;2,39;2,41;2,39;0;0;
10652;-13,77;-5,92;-13,77;-5,92;2,5;2,43;2,5;2,43;0;0;
10674;-17,66;-11,03;-17,66;-11,03;2,82;2,35;2,82;2,35;0;0;
10691;-19,77;-7,2;-19,77;-7,2;3,04;2,26;3,04;2,26;0;0;
10712;-18,66;-9,1;-18,66;-9,1;2,87;2,23;2,87;2,23;0;0;
10733;-24,93;-2,51;-24,93;-2,51;2,78;2,19;2,78;2,19;0;0;
10751;-16,69;-3,03;-16,69;-3,03;2,75;2,3;2,75;2,3;0;0;
10770;-15,49;-6,64;-15,49;-6,64;2,8;2,25;2,8;2,25;0;0;
10798;-16,48;-6,79;-16,48;-6,79;3,01;2,17;3,01;2,17;0;0;
10816;-20,21;-5,88;-20,21;-5,88;2,8;2,33;2,8;2,33;0;0;
10835;-19,49;-7,97;-19,49;-7,97;2,77;2,44;2,77;2,44;0;0;
10855;-16,9;-6,54;-16,9;-6,54;2,53;2,56;2,53;2,56;0;0;
10875;-19,5;-7,5;-19,5;-7,5;2,28;2,68;2,28;2,68;0;0;
10893;-16,49;-14,03;-16,49;-14,03;2,21;2,9;2,21;2,9;0;0;
10919;-12,55;-6,85;-12,55;-6,85;2,22;2,83;2,22;2,83;0;0;
10938;-17,89;-4,56;-17,89;-4,56;2,66;2,99;2,66;2,99;0;0;
10968;-15,93;-9,4;-15,93;-9,4;2,75;3,14;2,75;3,14;0;0;
10990;-14,71;-0,5;-14,71;-0,5;2,87;3,1;2,87;3,1;0;0;
11009;-15,27;-10,18;-15,27;-10,18;2,78;2,85;2,78;2,85;0;0;
11029;-17,82;-7,07;-17,82;-7,07;2,55;3,15;2,55;3,15;0;0;
11049;-22,45;-8,95;-22,45;-8,95;2,65;3,19;2,65;3,19;0;0;
11067;-24,44;-6,43;-24,44;-6,43;3,05;3,02;3,05;3,02;0;0;
11087;-22,14;-10,51;-22,14;-10,51;3,27;2,86;3,27;2,86;0;0;
11115;-9,65;-2,38;-9,65;-2,38;3,43;2,72;3,43;2,72;0;0;
11133;-17,37;-3,68;-17,37;-3,68;3,55;2,64;3,55;2,64;0;0;
11152;-21,1;-8,13;-21,1;-8,13;4,06;2,46;4,06;2,46;0;0;
11170;-16,97;-5,12;-16,97;-5,12;3,41;2,64;3,41;2,64;0;0;
11188;-13,07;-13,86;-13,07;-13,86;3,14;2,96;3,14;2,96;0;0;
11208;-15,03;-6,98;-15,03;-6,98;2,9;2,78;2,9;2,78;0;0;
11224;-21,06;-9,33;-21,06;-9,33;2,75;2,94;2,75;2,94;0;0;
11245;-14,81;-5,89;-14,81;-5,89;3,22;2,63;3,22;2,63;0;0;
11273;-17,48;-8,06;-17,48;-8,06;2,79;2,78;2,79;2,78;0;0;
11290;-19,9;-1,75;-19,9;-1,75;3,01;2,8;3,01;2,8;0;0;
11308;-13,39;-10,22;-13,39;-10,22;3,26;2,47;3,26;2,47;0;0;
11326;-18,55;-7,42;-18,55;-7,42;3,02;2,14;3,02;2,14;0;0;
11345;-14,96;-6,43;-14,96;-6,43;2,97;2,24;2,97;2,24;0;0;
11365;-14,02;-6,33;-14,02;-6,33;3,55;2,01;3,55;2,01;0;0;
11381;-14,02;-6,33;-14,02;-6,33;4,12;2,03;4,12;2,03;0;0;
11399;-19,62;-3,35;-19,62;-3,35;4,4;1,87;4,4;1,87;0;0;
11427;-9,03;-9,12;-9,03;-9,12;5,9;2,16;5,9;2,16;0;0;
11447;-124,43;-14,14;-124,43;-14,14;17,75;2,56;17,75;2,56;0;0;
11467;-73,69;-13;-73,69;-13;36;2,78;36;2,78;0;0;
11485;11,68;-1,25;11,68;-1,25;58,75;3,26;58,75;3,26;0;0;
11502;11,68;-1,25;11,68;-1,25;81,69;3,8;81,69;3,8;0;0;
11520;86,07;-1,24;86,07;-1,24;122,01;3,75;122,01;3,75;0;0;
11539;36,54;-3,74;36,54;-3,74;117,78;3,67;117,78;3,67;0;0;
11558;132,23;-3,28;132,23;-3,28;117,64;3,53;117,64;3,53;0;0;
11586;26,87;-0,98;26,87;-0,98;103,77;3,54;103,77;3,54;0;0;
11605;11,11;-14,82;11,11;-14,82;99,65;3,63;99,65;3,63;1;0;
11625;33,77;-8,11;33,77;-8,11;84,91;3,66;84,91;3,66;1;0;
11645;136,75;-14,23;136,75;-14,23;93,93;3,79;93,93;3,79;1;0;
11662;136,75;-14,23;136,75;-14,23;99,73;3,87;99,73;3,87;1;0;
11681;-9,92;-0,71;-9,92;-0,71;91,6;3,94;91,6;3,94;1;0;
11699;-130,88;-6,37;-130,88;-6,37;93,04;3,7;93,04;3,7;1;0;
11719;64,55;-13,99;64,55;-13,99;96,51;3,23;96,51;3,23;1;0;
11745;-100,15;-8,42;-100,15;-8,42;92,17;3,07;92,17;3,07;1;0;
11767;-80,1;-2;-80,1;-2;83,94;2,81;83,94;2,81;1;0;
11785;46,39;-10,84;46,39;-10,84;94,56;3,08;94,56;3,08;1;0;
11805;111,05;-12,36;111,05;-12,36;95,43;2,92;95,43;2,92;1;0;
11825;-158,35;-9,96;-158,35;-9,96;103,17;2,9;103,17;2,9;1;0;
11846;550,58;-2,43;550,58;-2,43;104,05;3,24;104,05;3,24;1;0;
11863;550,58;-2,43;550,58;-2,43;112,02;3,49;112,02;3,49;1;0;
11882;-194,75;-4,1;-194,75;-4,1;109,28;3,64;109,28;3,64;1;0;
11910;-47,42;-12,89;-47,42;-12,89;110,18;3,58;110,18;3,58;1;0;
11929;2,41;-4,22;2,41;-4,22;101,52;3,76;101,52;3,76;1;0;
11947;71,76;0,41;71,76;0,41;98,29;4,55;98,29;4,55;1;0;
11968;-28,18;-5,33;-28,18;-5,33;88,62;4,3;88,62;4,3;0;0;
11986;144,6;-5,02;144,6;-5,02;75,12;3,77;75,12;3,77;0;0;
12004;-155,62;-6,46;-155,62;-6,46;70,52;3,95;70,52;3,95;0;0;
12022;-155,62;-6,46;-155,62;-6,46;66,94;4,03;66,94;4,03;0;0;
12044;-0,91;-6,24;-0,91;-6,24;85,97;3,29;85,97;3,29;0;0;
12073;-369,34;-7,62;-369,34;-7,62;88,14;2,99;88,14;2,99;0;0;
12096;-35,82;1,08;-35,82;1,08;108,11;3,26;108,11;3,26;0;0;
12120;187,23;-14,7;187,23;-14,7;110,17;3,68;110,17;3,68;0;0;
12136;-11,02;-7,51;-11,02;-7,51;117,85;3,59;117,85;3,59;0;0;
12155;-89,83;-7,72;-89,83;-7,72;112,46;3,78;112,46;3,78;0;0;
12173;-24,34;-4,97;-24,34;-4,97;92,61;3,76;92,61;3,76;0;0;
12196;-142,82;-11,45;-142,82;-11,45;77,81;3,64;77,81;3,64;0;0;
12227;-57,35;-7,54;-57,35;-7,54;82,68;3,46;82,68;3,46;0;0;
12252;83,3;0,81;83,3;0,81;65,04;3,16;65,04;3,16;0;0;
12269;-83,16;-9,41;-83,16;-9,41;63,2;3,98;63,2;3,98;0;0;
12287;10,43;-11,94;10,43;-11,94;67,95;3,65;67,95;3,65;0;0;
12307;-22,81;-5,41;-22,81;-5,41;70,17;3,8;70,17;3,8;0;0;
12327;12,49;-10,5;12,49;-10,5;49,41;3,4;49,41;3,4;0;0;
12343;12,49;-10,5;12,49;-10,5;41,73;3,17;41,73;3,17;0;0;
12363;-10,31;-32,21;-10,31;-32,21;25,37;3,11;25,37;3,11;0;0;
12393;-6,68;-9,66;-6,68;-9,66;18,68;5,82;18,68;5,82;0;0;
12411;115,31;-7,89;115,31;-7,89;19,91;5,88;19,91;5,88;0;0;
12430;-55,71;-5,13;-55,71;-5,13;25,26;5,78;25,26;5,78;0;0;
12449;-17,61;-16,94;-17,61;-16,94;25,44;6,46;25,44;6,46;0;0;
12466;-5,64;-17,2;-5,64;-17,2;26,36;6,95;26,36;6,95;0;0;
12483;-5,64;-17,2;-5,64;-17,2;26,77;5,1;26,77;5,1;0;0;
12500;-13,32;-4,3;-13,32;-4,3;25,26;5,18;25,26;5,18;0;0;
12521;-18,19;-18,64;-18,19;-18,64;8,69;5,99;8,69;5,99;0;0;
12549;-20,15;-6,02;-20,15;-6,02;5,25;5,99;5,25;5,99;0;0;
12568;-18,21;-8,16;-18,21;-8,16;4,66;5,99;4,66;5,99;0;0;
12590;-16,06;-7,84;-16,06;-7,84;4,58;5,98;4,58;5,98;0;0;
12607;-12,21;-9,12;-12,21;-9,12;3,52;6,83;3,52;6,83;0;0;
12626;-24,2;-28,93;-24,2;-28,93;2,8;8,85;2,8;8,85;0;0;
12643;-16,28;-1,96;-16,28;-1,96;3,11;9,65;3,11;9,65;0;0;
12663;-16,28;-1,96;-16,28;-1,96;3,3;10,73;3,3;10,73;0;0;
12680;-33,13;-18,19;-33,13;-18,19;6,63;11,72;6,63;11,72;0;0;
12708;-4,98;-4,44;-4,98;-4,44;7,9;10,41;7,9;10,41;0;0;
12727;-30,44;-5,79;-30,44;-5,79;8,72;8,07;8,72;8,07;0;0;
12746;-26,91;-7,7;-26,91;-7,7;9,93;5,37;9,93;5,37;0;0;
12768;-20,15;-7,49;-20,15;-7,49;9,69;3,78;9,69;3,78;0;0;
12788;98,03;-5,35;98,03;-5,35;18,11;3,09;18,11;3,09;0;0;
12806;-61,63;-10,4;-61,63;-10,4;27,13;2,87;27,13;2,87;0;0;
12824;-61,63;-10,4;-61,63;-10,4;36,03;2,89;36,03;2,89;0;0;
12843;-17,5;-9,49;-17,5;-9,49;35,21;2,76;35,21;2,76;0;0;
12870;-19,97;-10,6;-19,97;-10,6;34,49;3,13;34,49;3,13;0;0;
12887;-11,83;-7,24;-11,83;-7,24;33,69;4,08;33,69;4,08;0;0;
12905;-10,61;-17,86;-10,61;-17,86;17,71;3,72;17,71;3,72;0;0;
12924;-17,72;6,29;-17,72;6,29;7,55;4,03;7,55;4,03;0;0;
12941;-17,72;6,29;-17,72;6,29;3,79;4,51;3,79;4,51;0;0;
12959;-23,7;-6,79;-23,7;-6,79;3,89;4,33;3,89;4,33;0;0;
12979;-14,41;-6,42;-14,41;-6,42;4,05;4,06;4,05;4,06;0;0;
13000;-15,99;-6,19;-15,99;-6,19;3,61;2,89;3,61;2,89;0;0;
13026;-20,88;-4,16;-20,88;-4,16;3,21;3,31;3,21;3,31;0;0;
13046;-16,57;-17,54;-16,57;-17,54;3,15;2,9;3,15;2,9;0;0;
13066;-19,14;-8,77;-19,14;-8,77;3,3;3,15;3,3;3,15;0;0;
13085;-11,07;-7,02;-11,07;-7,02;3,28;3,12;3,28;3,12;0;0;
13102;-11,07;-7,02;-11,07;-7,02;3,31;3,13;3,31;3,13;0;0;
13119;-18,3;-9,98;-18,3;-9,98;3,33;2,82;3,33;2,82;0;0;
13137;-8,89;-8,99;-8,89;-8,99;3,26;2,42;3,26;2,42;0;0;
13155;-16,31;-10,79;-16,31;-10,79;3,31;2,07;3,31;2,07;0;0;
13185;-18,42;-7,89;-18,42;-7,89;3,31;1,8;3,31;1,8;0;0;
13202;-18,42;-7,89;-18,42;-7,89;3,41;1,93;3,41;1,93;0;0;
13219;-20,91;-8,83;-20,91;-8,83;3,31;1,96;3,31;1,96;0;0;
13238;-16,52;-6,55;-16,52;-6,55;3,37;2;3,37;2;0;0;
13254;-17,45;-9,09;-17,45;-9,09;3,18;1,99;3,18;1,99;0;0;
13272;-16,08;-3,53;-16,08;-3,53;3,15;2,15;3,15;2,15;0;0;
13289;-15,03;-10,09;-15,03;-10,09;3,2;1,88;3,2;1,88;0;0;
13309;-16,11;-4,41;-16,11;-4,41;2,95;1,87;2,95;1,87;0;0;
13336;4,49;-8,47;4,49;-8,47;6,35;1,89;6,35;1,89;0;0;
13354;35,07;-8,12;35,07;-8,12;13,71;2,13;13,71;2,13;0;0;
13373;6,01;-6,17;6,01;-6,17;22,58;2,21;22,58;2,21;0;0;
13392;-1,08;-5,56;-1,08;-5,56;26,62;2,13;26,62;2,13;0;0;
13410;-19,8;-7,44;-19,8;-7,44;27,26;2,47;27,26;2,47;0;0;
13432;-34,52;-10,11;-34,52;-10,11;25,59;2,46;25,59;2,46;0;0;
13452;-28,2;-4,44;-28,2;-4,44;27,26;2,38;27,26;2,38;0;0;
13471;-21,14;-10,61;-21,14;-10,61;18,97;2,4;18,97;2,4;0;0;
13497;-13,15;-6,39;-13,15;-6,39;14,51;2,47;14,51;2,47;0;0;
13517;3,4;-5,19;3,4;-5,19;12,42;2,3;12,42;2,3;1;0;
13536;-204,5;-14,17;-204,5;-14,17;20,62;2,6;20,62;2,6;1;0;
13553;-192,91;-3,22;-192,91;-3,22;39,06;2,55;39,06;2,55;1;0;
13572;-17,08;-0,91;-17,08;-0,91;54,6;2,61;54,6;2,61;1;0;
13591;-17,43;-12,43;-17,43;-12,43;63,21;2,89;63,21;2,89;1;0;
13608;65,72;-17,49;65,72;-17,49;78,6;3,45;78,6;3,45;1;0;
13630;170,82;-4,37;170,82;-4,37;92,3;3,49;92,3;3,49;1;0;
13659;-34,01;-4,98;-34,01;-4,98;112,48;3,51;112,48;3,51;1;0;
13678;-50,58;-7,72;-50,58;-7,72;107,96;3,72;107,96;3,72;0;0;
13703;142,69;-12,68;142,69;-12,68;105,4;3,72;105,4;3,72;0;0;
13726;-6,16;-13,17;-6,16;-13,17;106,55;4,2;106,55;4,2;0;0;
13744;1,77;-8,16;1,77;-8,16;103,89;4,34;103,89;4,34;0;0;
13765;126,92;-11,79;126,92;-11,79;109;4,35;109;4,35;0;0;
13785;-77,54;-4,2;-77,54;-4,2;90,77;4,06;90,77;4,06;0;0;
13816;-7,79;0,17;-7,79;0,17;102,79;4,54;102,79;4,54;0;0;
13840;314,96;-8,83;314,96;-8,83;127,16;4,31;127,16;4,31;0;0;
13856;42,6;-10,7;42,6;-10,7;120,52;3,95;120,52;3,95;0;0;
13878;-35,04;-9,45;-35,04;-9,45;121,83;3,2;121,83;3,2;0;0;
13898;5,56;-1,06;5,56;-1,06;98,89;3,34;98,89;3,34;0;0;
13919;-14,88;16,01;-14,88;16,01;79,05;3,99;79,05;3,99;0;0;
13937;-15,12;-2,31;-15,12;-2,31;54,89;4,23;54,89;4,23;0;0;
13965;-19,61;6,71;-19,61;6,71;26,46;8,93;26,46;8,93;0;0;
13984;-26,43;17,85;-26,43;17,85;15,12;11,87;15,12;11,87;0;0;
14002;-26,43;17,85;-26,43;17,85;9,55;15,04;9,55;15,04;0;0;
14025;-21;2,86;-21;2,86;6,7;16,56;6,7;16,56;0;0;
14042;-21;2,86;-21;2,86;7,3;17,8;7,3;17,8;0;0;
14060;-19,97;32,48;-19,97;32,48;6,71;18,78;6,71;18,78;0;0;
14079;-9,19;0,97;-9,19;0,97;5,61;19,8;5,61;19,8;0;0;
14096;-18,55;-8,87;-18,55;-8,87;4,78;19,36;4,78;19,36;0;0;
14124;-23,94;-7,16;-23,94;-7,16;4,19;16,41;4,19;16,41;0;0;
14143;38,44;2,19;38,44;2,19;5,75;15,23;5,75;15,23;0;0;
14163;-41,96;-11,1;-41,96;-11,1;9,19;14,53;9,19;14,53;0;0;
14182;11,5;-11,97;11,5;-11,97;10,7;8,32;10,7;8,32;0;0;
14202;-29,42;-6,08;-29,42;-6,08;12,49;6,49;12,49;6,49;0;0;
14219;-28,94;-3,06;-28,94;-3,06;14,81;4,93;14,81;4,93;0;0;
14237;-17,93;-5,37;-17,93;-5,37;14,79;5,15;14,79;5,15;0;0;
14255;-16,89;-11,21;-16,89;-11,21;10,07;3,59;10,07;3,59;0;0;
14282;-11,03;-8,65;-11,03;-8,65;8,85;3,52;8,85;3,52;0;0;
14302;-7,43;-6,34;-7,43;-6,34;6,26;4,4;6,26;4,4;0;0;
14320;-18,12;-4,4;-18,12;-4,4;5,33;4,23;5,33;4,23;0;0;
14339;-13,91;-7,92;-13,91;-7,92;4,44;3,59;4,44;3,59;0;0;
14357;-19,34;-4,9;-19,34;-4,9;4,44;3,04;4,44;3,04;0;0;
14375;-19,67;-2,62;-19,67;-2,62;4,35;3,21;4,35;3,21;0;0;
14395;4,41;-8,51;4,41;-8,51;8,6;2,96;8,6;2,96;0;0;
14413;-29,25;4,11;-29,25;4,11;35,12;2,69;35,12;2,69;0;0;
14439;104,47;-4,18;104,47;-4,18;47,9;3,17;47,9;3,17;0;0;
14457;-15,2;-8,24;-15,2;-8,24;53,65;3,19;53,65;3,19;1;0;
14476;-10,44;-10,95;-10,44;-10,95;54,25;3,3;54,25;3,3;1;0;
14494;-20,41;-4,48;-20,41;-4,48;53,83;3,37;53,83;3,37;1;0;
14512;-14,2;-13,22;-14,2;-13,22;39,45;3,09;39,45;3,09;1;0;
14530;-2,73;-8,14;-2,73;-8,14;18,69;2,29;18,69;2,29;1;0;
14547;253,05;-0,09;253,05;-0,09;29,93;2,74;29,93;2,74;1;0;
14566;-45,41;-2,06;-45,41;-2,06;45,51;3,08;45,51;3,08;1;0;
14596;-165,35;-3,6;-165,35;-3,6;60,65;3,15;60,65;3,15;1;0;
14613;-39,83;-10,13;-39,83;-10,13;70,06;3,48;70,06;3,48;1;0;
14635;225,84;-5,47;225,84;-5,47;88,92;4,13;88,92;4,13;1;0;
14653;97,58;-12,11;97,58;-12,11;95,68;4,05;95,68;4,05;1;0;
14677;12,05;-10,77;12,05;-10,77;83,6;4,05;83,6;4,05;1;0;
14698;100,77;-6,37;100,77;-6,37;78,04;3,81;78,04;3,81;1;0;
14718;-107,58;-9,95;-107,58;-9,95;90,13;4,13;90,13;4,13;1;0;
14746;130,62;-9,46;130,62;-9,46;94,16;3,66;94,16;3,66;1;0;
14764;-173,94;-8,59;-173,94;-8,59;88,48;3,24;88,48;3,24;1;0;
14784;13,92;-22,3;13,92;-22,3;69,34;4,46;69,34;4,46;1;0;
14802;13,92;-22,3;13,92;-22,3;57,77;5,62;57,77;5,62;1;0;
14823;-224,75;-6,6;-224,75;-6,6;72,3;5,79;72,3;5,79;0;0;
14841;50,67;-6,35;50,67;-6,35;59,18;5,44;59,18;5,44;0;0;
14858;42,93;-12,71;42,93;-12,71;60,44;5,88;60,44;5,88;0;0;
14878;-8,49;-2,09;-8,49;-2,09;58,27;4,96;58,27;4,96;0;0;
14908;-12,08;39,25;-12,08;39,25;58,08;7,18;58,08;7,18;0;0;
14931;-18,68;-8,54;-18,68;-8,54;46,96;10,19;46,96;10,19;0;0;
14955;-14,71;1,65;-14,71;1,65;31,11;12,13;31,11;12,13;0;0;
14973;-20,47;3,75;-20,47;3,75;15,97;12,28;15,97;12,28;0;0;
14992;-13,29;-16,75;-13,29;-16,75;6,86;16,29;6,86;16,29;0;0;
15011;-20,61;11,39;-20,61;11,39;4,8;24,09;4,8;24,09;0;0;
15032;-25,53;49,23;-25,53;49,23;5,22;23,17;5,22;23,17;0;0;
15065;-22,01;-4,54;-22,01;-4,54;4,69;22,9;4,69;22,9;0;0;
15086;-28,52;-31,44;-28,52;-31,44;6,36;23,06;6,36;23,06;0;0;
15104;-29,32;-0,09;-29,32;-0,09;8,25;24,71;8,25;24,71;0;0;
15126;-25,55;-6,64;-25,55;-6,64;9,13;17,55;9,13;17,55;0;0;
15142;-25,55;-6,64;-25,55;-6,64;11,05;12,21;11,05;12,21;0;0;
15159;3,55;6,56;3,55;6,56;12;8,98;12;8,98;0;0;
15177;-38,52;-10,44;-38,52;-10,44;12,18;7,21;12,18;7,21;0;0;
15197;-9,66;-6,79;-9,66;-6,79;10,68;4,95;10,68;4,95;0;0;
15227;-24,94;-1,05;-24,94;-1,05;8,12;7,43;8,12;7,43;0;0;
15246;-12,75;-10,32;-12,75;-10,32;6,95;8,1;6,95;8,1;0;0;
15264;-11,07;-4,03;-11,07;-4,03;6,61;8,58;6,61;8,58;0;0;
15282;-11,07;-4,03;-11,07;-4,03;4,54;8,05;4,54;8,05;0;0;
15299;-19,6;-6,08;-19,6;-6,08;4,1;8,06;4,1;8,06;0;0;
15320;-18,1;-13,24;-18,1;-13,24;3,77;5,35;3,77;5,35;0;0;
15339;-128,27;-5,75;-128,27;-5,75;8,34;4;8,34;4;0;0;
15360;-146,21;0,19;-146,21;0,19;21,32;3,67;21,32;3,67;0;0;
15387;90,52;-4,53;90,52;-4,53;34,35;4,32;34,35;4,32;0;0;
15405;-91,99;-8,9;-91,99;-8,9;58,68;4,18;58,68;4,18;0;0;
15425;-136,03;-11,69;-136,03;-11,69;88,59;4,5;88,59;4,5;0;0;
15444;4,15;-8,48;4,15;-8,48;97,78;4,41;97,78;4,41;1;0;
15463;4,15;-8,48;4,15;-8,48;95,57;3,85;95,57;3,85;1;0;
15484;-29,57;-12,19;-29,57;-12,19;92,3;3,51;92,3;3,51;0;0;
15512;-148,44;-4,75;-148,44;-4,75;75,92;3,22;75,92;3,22;0;0;
15548;85,23;3,53;85,23;3,53;69,45;3,87;69,45;3,87;0;0;
15573;-58,19;-7,02;-58,19;-7,02;57,91;3,94;57,91;3,94;0;0;
15591;-10,42;2,1;-10,42;2,1;49,61;4,55;49,61;4,55;0;0;
15609;-29,63;-32,03;-29,63;-32,03;41,38;9,14;41,38;9,14;0;0;
15628;-28,09;41,2;-28,09;41,2;34,96;15,48;34,96;15,48;0;0;
15645;-19,99;-8,41;-19,99;-8,41;21,15;15,9;21,15;15,9;0;0;
15664;-18,45;45,46;-18,45;45,46;8,66;19,94;8,66;19,94;0;0;
15692;-27,54;44,2;-27,54;44,2;6,67;23,43;6,67;23,43;0;0;
15712;-20,98;-67,22;-20,98;-67,22;6,25;26,95;6,25;26,95;0;0;
15731;-20,02;6,07;-20,02;6,07;5,68;20,72;5,68;20,72;0;0;
15750;9,32;-7,62;9,32;-7,62;6,72;17,28;6,72;17,28;0;0;
15768;-32,27;-7,41;-32,27;-7,41;8,35;16,03;8,35;16,03;0;0;
15785;-17,74;-15,11;-17,74;-15,11;8,35;12,98;8,35;12,98;0;0;
15804;-18,88;-24,49;-18,88;-24,49;7,48;9,1;7,48;9,1;0;0;
15821;-18,88;-24,49;-18,88;-24,49;7,36;8,98;7,36;8,98;0;0;
15847;-36,6;25,37;-36,6;25,37;8,41;8,59;8,41;8,59;0;0;
15866;-15,89;-14,62;-15,89;-14,62;6,97;8,76;6,97;8,76;0;0;
15887;-13,17;-14,23;-13,17;-14,23;7,26;8,6;7,26;8,6;0;0;
15905;-11,49;-6,8;-11,49;-6,8;7,05;9,25;7,05;9,25;0;0;
15925;-22,15;-6,31;-22,15;-6,31;7,21;7,59;7,21;7,59;0;0;
15942;-22,15;-6,31;-22,15;-6,31;7,34;6,51;7,34;6,51;0;0;
15966;-16,02;11,24;-16,02;11,24;5,65;5,67;5,65;5,67;0;0;
15987;-20,89;-10,05;-20,89;-10,05;4,77;5,05;4,77;5,05;0;0;
16014;-19,24;-9,84;-19,24;-9,84;4;4,04;4;4,04;0;0;
16036;-16,09;-7,45;-16,09;-7,45;3,66;3,38;3,66;3,38;0;0;
16054;-13,77;-7,77;-13,77;-7,77;3,35;3,28;3,35;3,28;0;0;
16071;-23,38;-5,17;-23,38;-5,17;3,27;3,03;3,27;3,03;0;0;
16091;-14,54;-10,84;-14,54;-10,84;3,44;2,29;3,44;2,29;0;0;
16110;-17,61;-12,87;-17,61;-12,87;3,19;3,11;3,19;3,11;0;0;
16129;-20,49;-9,35;-20,49;-9,35;3,67;4,33;3,67;4,33;0;0;
16147;-17,16;-2,45;-17,16;-2,45;3,81;4,15;3,81;4,15;0;0;
16174;-13,37;-6,02;-13,37;-6,02;3,88;4,33;3,88;4,33;0;0;
16193;-18,38;-12,46;-18,38;-12,46;3,67;4,35;3,67;4,35;0;0;
16212;-16,8;6,44;-16,8;6,44;3,21;5,97;3,21;5,97;0;0;
16230;-12,11;-17,12;-12,11;-17,12;3,47;6,47;3,47;6,47;0;0;
16250;-18,46;-10,22;-18,46;-10,22;2,93;6,07;2,93;6,07;0;0;
16269;-18,56;-13,53;-18,56;-13,53;2,59;6,28;2,59;6,28;0;0;
16287;-15,32;-9,03;-15,32;-9,03;2,64;6,2;2,64;6,2;0;0;
16306;-15,59;-6,3;-15,59;-6,3;2,84;5,97;2,84;5,97;0;0;
16333;-17,72;-5,61;-17,72;-5,61;2,86;2,94;2,86;2,94;0;0;
16351;-21,47;-8,4;-21,47;-8,4;2,82;2,98;2,82;2,98;0;0;
16372;-19,76;-9,1;-19,76;-9,1;2,97;2,62;2,97;2,62;0;0;
16390;-20,5;-7,19;-20,5;-7,19;3,02;2,64;3,02;2,64;0;0;
16407;-19,93;-8,03;-19,93;-8,03;2,81;2,81;2,81;2,81;0;0;
16424;-13,91;0,02;-13,91;0,02;2,93;3,42;2,93;3,42;0;0;
16442;-13,91;0,02;-13,91;0,02;3,07;3,98;3,07;3,98;0;0;
16460;-15,47;-6,77;-15,47;-6,77;2,69;3,51;2,69;3,51;0;0;
16489;-15,26;-8,11;-15,26;-8,11;2,78;3,59;2,78;3,59;0;0;
16510;-20,42;-1,78;-20,42;-1,78;2,89;3,72;2,89;3,72;0;0;
16530;-9,3;-5,18;-9,3;-5,18;3;3,18;3;3,18;0;0;
16550;-18,98;-8,36;-18,98;-8,36;2,82;2,76;2,82;2,76;0;0;
16570;-13,97;-9,28;-13,97;-9,28;2,96;2,5;2,96;2,5;0;0;
16588;-21,31;-11,44;-21,31;-11,44;3,1;2,57;3,1;2,57;0;0;
16606;-13,39;-6,04;-13,39;-6,04;3,05;2,41;3,05;2,41;0;0;
16625;-26;-8,06;-26;-8,06;3,06;3,26;3,06;3,26;0;0;
16653;-17,57;-7;-17,57;-7;2,99;3,16;2,99;3,16;0;0;
16670;-12,42;-24,81;-12,42;-24,81;2,82;3,99;2,82;3,99;0;0;
16689;-22,14;-10,11;-22,14;-10,11;2,93;4,49;2,93;4,49;0;0;
16708;-11,4;-15,16;-11,4;-15,16;2,71;4,37;2,71;4,37;0;0;
16725;-15,67;-2,7;-15,67;-2,7;2,95;4,23;2,95;4,23;0;0;
16742;-15,67;-2,7;-15,67;-2,7;2,94;4,71;2,94;4,71;0;0;
16761;-13,9;-9,01;-13,9;-9,01;3,28;5,07;3,28;5,07;0;0;
16782;-26,78;-3,69;-26,78;-3,69;3,21;3,98;3,21;3,98;0;0;
16812;-15,79;-8,39;-15,79;-8,39;3,58;3,99;3,58;3,99;0;0;
16831;-13,53;-4,24;-13,53;-4,24;3,86;3,68;3,86;3,68;0;0;
16849;-18,12;-7,92;-18,12;-7,92;3,47;3,6;3,47;3,6;0;0;
16870;-16,34;-9,27;-16,34;-9,27;3,24;3,16;3,24;3,16;0;0;
16888;-16,99;-9,31;-16,99;-9,31;2,93;2,55;2,93;2,55;0;0;
16909;-11,14;-8,63;-11,14;-8,63;2,52;2,43;2,52;2,43;0;0;
16928;-2,86;-4,69;-2,86;-4,69;2,7;2,82;2,7;2,82;0;0;
16946;-15,46;-6,52;-15,46;-6,52;2,9;2,42;2,9;2,42;0;0;
16974;-15,66;-13,62;-15,66;-13,62;3,04;3,27;3,04;3,27;0;0;
16991;-17,44;-9,5;-17,44;-9,5;3,07;3,53;3,07;3,53;0;0;
17010;-13,47;-3,67;-13,47;-3,67;3,07;3,63;3,07;3,63;0;0;
17028;-21,31;-10,21;-21,31;-10,21;3,12;3,65;3,12;3,65;0;0;
17047;-9,21;-5,51;-9,21;-5,51;2,59;4,13;2,59;4,13;0;0;
17064;-304,68;-9,64;-304,68;-9,64;14,13;4,04;14,13;4,04;0;0;
17081;-304,68;-9,64;-304,68;-9,64;25,74;3,21;25,74;3,21;0;0;
17102;-5,97;0,86;-5,97;0,86;28,04;3,08;28,04;3,08;0;0;
17130;-7,86;-11,06;-7,86;-11,06;28,55;3,1;28,55;3,1;0;0;
17148;-24,07;-9,55;-24,07;-9,55;29,44;2,43;29,44;2,43;0;0;
17167;-16,94;-5,89;-16,94;-5,89;27,89;2,15;27,89;2,15;0;0;
17184;-25,89;-8,15;-25,89;-8,15;17,15;2,09;17,15;2,09;0;0;
17208;-16,98;-6,36;-16,98;-6,36;5,2;2,08;5,2;2,08;0;0;
17226;-78,04;-9,73;-78,04;-9,73;6,88;2,69;6,88;2,69;0;0;
17261;-148,11;-8,18;-148,11;-8,18;26,48;2,99;26,48;2,99;0;0;
17289;-34,15;-2,99;-34,15;-2,99;49,24;3,51;49,24;3,51;0;0;
17310;266,47;-8,56;266,47;-8,56;65,95;3,51;65,95;3,51;0;0;
17328;-37,62;-11,01;-37,62;-11,01;80,89;3,78;80,89;3,78;1;0;
17345;205,64;-7,61;205,64;-7,61;89,79;3,44;89,79;3,44;1;0;
17365;227,99;-9,59;227,99;-9,59;98,9;3,43;98,9;3,43;1;0;
17389;-1,28;2,02;-1,28;2,02;89,79;3,48;89,79;3,48;0;0;
17415;25,6;-4,6;25,6;-4,6;96,55;3,33;96,55;3,33;0;0;
17453;-46,12;3,25;-46,12;3,25;96,25;3,66;96,25;3,66;0;0;
17476;-295,6;-8,9;-295,6;-8,9;111,68;3,79;111,68;3,79;0;0;
17493;-59,03;-9,09;-59,03;-9,09;111,2;4,05;111,2;4,05;0;0;
17513;-72,73;-1,05;-72,73;-1,05;100,98;4,11;100,98;4,11;0;0;
17531;-246,46;-8,72;-246,46;-8,72;118,74;4,33;118,74;4,33;0;0;
17550;-8,43;-7,43;-8,43;-7,43;101,74;4,06;101,74;4,06;0;0;
17569;10,88;-8,57;10,88;-8,57;98,53;3,52;98,53;3,52;0;0;
17597;31,86;-9,49;31,86;-9,49;101,92;3,36;101,92;3,36;0;0;
17617;-44,65;-2,75;-44,65;-2,75;108,19;3,24;108,19;3,24;0;0;
17635;172,72;-1,97;172,72;-1,97;103,47;3,33;103,47;3,33;0;0;
17653;287,49;-9,2;287,49;-9,2;113,22;3,23;113,22;3,23;0;0;
17671;-165,03;-7,79;-165,03;-7,79;123,37;3,42;123,37;3,42;0;0;
17689;21,43;-5,83;21,43;-5,83;126,04;3,88;126,04;3,88;0;0;
17708;-49,89;-10,22;-49,89;-10,22;103,86;3,78;103,86;3,78;0;0;
17727;-37,55;-8,56;-37,55;-8,56;88,19;3,61;88,19;3,61;0;0;
17751;-20,96;8,05;-20,96;8,05;70,81;5,34;70,81;5,34;0;0;
17771;-13,16;-29,31;-13,16;-29,31;47,05;11,37;47,05;11,37;0;0;
17791;-17,13;-16,54;-17,13;-16,54;21,91;14,08;21,91;14,08;0;0;
17809;-15,71;13,71;-15,71;13,71;14,89;15,82;14,89;15,82;0;0;
17829;-14,82;-8,76;-14,82;-8,76;11,77;16,06;11,77;16,06;0;0;
17848;-17,48;-22,71;-17,48;-22,71;3,31;18,37;3,31;18,37;0;0;
17865;-18,2;-22,5;-18,2;-22,5;2,95;15,76;2,95;15,76;0;0;
17884;-26,19;-22,27;-26,19;-22,27;3,43;14,25;3,43;14,25;0;0;
17915;-22,05;-18,22;-22,05;-18,22;3,61;16;3,61;16;0;0;
17932;-15,92;-13,63;-15,92;-13,63;3,71;15,18;3,71;15,18;0;0;
17952;-17,46;-3,37;-17,46;-3,37;3,84;13,4;3,84;13,4;0;0;
17973;-29,98;-1,27;-29,98;-1,27;4,34;12,4;4,34;12,4;0;0;
17991;-19,1;-10,14;-19,1;-10,14;4,48;10,14;4,48;10,14;0;0;
18009;-3,63;-10,55;-3,63;-10,55;4,71;7,37;4,71;7,37;0;0;
18027;-11,26;-12,55;-11,26;-12,55;7,3;4,57;7,3;4,57;0;0;
18046;-17,88;-12,51;-17,88;-12,51;8,3;6,93;8,3;6,93;0;0;
18074;-16,09;-8,4;-16,09;-8,4;8,42;7,29;8,42;7,29;0;0;
18095;-10,67;-13,03;-10,67;-13,03;7,77;7,23;7,77;7,23;0;0;
18114;-14,44;-0,09;-14,44;-0,09;7,6;6,9;7,6;6,9;0;0;
18131;-15,99;0,68;-15,99;0,68;5,76;7,77;5,76;7,77;0;0;
18151;-20,18;-4,84;-20,18;-4,84;3,39;8,93;3,39;8,93;0;0;
18170;-18,68;-11,55;-18,68;-11,55;3,34;7,12;3,34;7,12;0;0;
18193;-14,79;-4,01;-14,79;-4,01;3,74;7,67;3,74;7,67;0;0;
18214;-20,52;-2,62;-20,52;-2,62;3,5;7,8;3,5;7,8;0;0;
18242;-17,52;-0,7;-17,52;-0,7;3,82;8,81;3,82;8,81;0;0;
18262;-10,86;-15,68;-10,86;-15,68;3,7;9,49;3,7;9,49;0;0;
18282;-21,59;-15,72;-21,59;-15,72;3,81;9,41;3,81;9,41;0;0;
18299;-22,02;-10,51;-22,02;-10,51;3,61;10,06;3,61;10,06;0;0;
18318;-19,1;-2,24;-19,1;-2,24;3,66;9,93;3,66;9,93;0;0;
18336;-20,34;7,11;-20,34;7,11;3,13;8,99;3,13;8,99;0;0;
18355;-16,66;-44,49;-16,66;-44,49;3,2;7,96;3,2;7,96;0;0;
18376;-15,65;-15,08;-15,65;-15,08;2,97;7,59;2,97;7,59;0;0;
18408;-23,09;-5,73;-23,09;-5,73;2,92;6,56;2,92;6,56;0;0;
18429;-13,89;-8,42;-13,89;-8,42;2,8;6,5;2,8;6,5;0;0;
18446;-11,23;-8,55;-11,23;-8,55;3,05;5,5;3,05;5,5;0;0;
18463;-11,23;-8,55;-11,23;-8,55;3,35;4,81;3,35;4,81;0;0;
18489;-16,25;-11,52;-16,25;-11,52;2,93;4,78;2,93;4,78;0;0;
18510;-22,86;-4,15;-22,86;-4,15;2,83;5,52;2,83;5,52;0;0;
18528;-13,5;-7,26;-13,5;-7,26;3,19;5,32;3,19;5,32;0;0;
18555;-7,03;-9,88;-7,03;-9,88;3,34;5,76;3,34;5,76;0;0;
18573;-16,26;-12,31;-16,26;-12,31;3,03;6,33;3,03;6,33;0;0;
18592;-18,44;-10,55;-18,44;-10,55;2,87;6,49;2,87;6,49;0;0;
18610;-13,78;-28,78;-13,78;-28,78;2,68;6,43;2,68;6,43;0;0;
18631;-18,96;-7,32;-18,96;-7,32;2,34;5,89;2,34;5,89;0;0;
18652;-21,06;-4,58;-21,06;-4,58;2,2;5,36;2,2;5,36;0;0;
18670;-26,25;-8,2;-26,25;-8,2;2,43;5,17;2,43;5,17;0;0;
18687;-15,84;-15,36;-15,84;-15,36;2,65;5,22;2,65;5,22;0;0;
18716;-13,33;-9,99;-13,33;-9,99;2,73;4,72;2,73;4,72;0;0;
18736;-17,65;-8,29;-17,65;-8,29;2,95;3,87;2,95;3,87;0;0;
18756;-23,81;-9,19;-23,81;-9,19;3,76;3,92;3,76;3,92;0;0;
18773;-13,22;-21,63;-13,22;-21,63;3,63;4,98;3,63;4,98;0;0;
18793;-12,11;-11,9;-12,11;-11,9;3,31;8,46;3,31;8,46;0;0;
18810;-19,31;-25,04;-19,31;-25,04;3,43;10,5;3,43;10,5;0;0;
18828;-13,94;-4,99;-13,94;-4,99;3,21;9,79;3,21;9,79;0;0;
18845;-20,54;-24,21;-20,54;-24,21;3,03;9,71;3,03;9,71;0;0;
18874;-15,56;-13,34;-15,56;-13,34;2,84;9,85;2,84;9,85;0;0;
18891;-26,56;-11,06;-26,56;-11,06;2,89;8,93;2,89;8,93;0;0;
18911;-21,3;-5,06;-21,3;-5,06;3,02;5,8;3,02;5,8;0;0;
18930;-17,98;-7,98;-17,98;-7,98;3;6,86;3;6,86;0;0;
18950;-10,66;-14,59;-10,66;-14,59;2,89;7,65;2,89;7,65;0;0;
18970;-17;-13,69;-17;-13,69;2,87;7,5;2,87;7,5;0;0;
18988;-15,64;-3,76;-15,64;-3,76;2,73;8,65;2,73;8,65;0;0;
19006;-16,4;-8,07;-16,4;-8,07;2,61;8,67;2,61;8,67;0;0;
19031;-16,64;41,13;-16,64;41,13;2,69;8,49;2,69;8,49;0;0;
19049;-21,98;-1;-21,98;-1;2,98;8,91;2,98;8,91;0;0;
19068;-13,36;-33,42;-13,36;-33,42;3,12;8,97;3,12;8,97;0;0;
19085;-17,48;-9,03;-17,48;-9,03;2,89;10,12;2,89;10,12;0;0;
19104;-19,62;22,69;-19,62;22,69;3,14;15,43;3,14;15,43;0;0;
19124;-19,62;22,69;-19,62;22,69;3,13;22,71;3,13;22,71;0;0;
19141;-19,62;22,69;-19,62;22,69;3,12;28,08;3,12;28,08;0;0;
19159;-14,64;7,33;-14,64;7,33;2,84;28,84;2,84;28,84;0;0;
19187;-24,33;11,79;-24,33;11,79;2,79;29,92;2,79;29,92;0;0;
19205;-22,85;33,05;-22,85;33,05;2,98;33,25;2,98;33,25;0;0;
19225;-13,71;42,18;-13,71;42,18;3,54;30,86;3,54;30,86;0;1;
19242;-13,71;42,18;-13,71;42,18;4,11;28,46;4,11;28,46;0;1;
19260;-12,37;28,05;-12,37;28,05;4,92;30,97;4,92;30,97;0;1;
19278;-8,6;-36,18;-8,6;-36,18;5,31;35,81;5,31;35,81;0;1;
19296;-6,09;68,33;-6,09;68,33;5,96;39,34;5,96;39,34;0;1;
19315;-18,71;54,18;-18,71;54,18;6,55;41,74;6,55;41,74;0;1;
19342;-18,74;-17,9;-18,74;-17,9;6,39;42,46;6,39;42,46;0;0;
19364;-9,96;-2;-9,96;-2;6,01;39,97;6,01;39,97;0;0;
19388;-5,63;-67,5;-5,63;-67,5;7,33;41,59;7,33;41,59;0;0;
19411;-20,2;-12,65;-20,2;-12,65;7,14;38,64;7,14;38,64;0;0;
19429;-21,03;-38,76;-21,03;-38,76;8,14;40,71;8,14;40,71;0;0;
19448;-25,64;-15,6;-25,64;-15,6;7,6;36,51;7,6;36,51;0;0;
19465;-19,93;70,38;-19,93;70,38;7,66;41,26;7,66;41,26;0;0;
19484;-6,33;-34,43;-6,33;-34,43;8,52;43,6;8,52;43,6;0;0;
19519;-18,11;-47,08;-18,11;-47,08;8,49;39,82;8,49;39,82;0;0;
19542;-7,55;-87;-7,55;-87;8,59;36,24;8,59;36,24;0;0;
19559;-8,27;-18,89;-8,27;-18,89;25,57;30,05;25,57;30,05;0;0;
19579;-57,89;-10,4;-57,89;-10,4;36,44;25,53;36,44;25,53;0;0;
19597;-0,78;-9,11;-0,78;-9,11;42,49;12,85;42,49;12,85;0;0;
19614;-14,28;-4,62;-14,28;-4,62;43,68;13,76;43,68;13,76;0;0;
19632;-18,84;23,84;-18,84;23,84;42,37;14,16;42,37;14,16;0;0;
19650;-8,84;13,78;-8,84;13,78;32,88;15,84;32,88;15,84;0;0;
19677;-12,93;-3,61;-12,93;-3,61;24,3;18,23;24,3;18,23;0;0;
19699;-22,41;-8,87;-22,41;-8,87;7,16;18,47;7,16;18,47;0;0;
19721;-19,86;-1,25;-19,86;-1,25;5,98;17,59;5,98;17,59;0;0;
19745;-10,09;-8,03;-10,09;-8,03;4,71;13,66;4,71;13,66;0;0;
19766;-17,08;-6,07;-17,08;-6,07;4,66;8,92;4,66;8,92;0;0;
19781;-17,08;-6,07;-17,08;-6,07;4,15;5,44;4,15;5,44;0;0;
19802;-12,13;-3,69;-12,13;-3,69;4;3,01;4;3,01;0;0;
19828;-21,13;-7,41;-21,13;-7,41;4,59;3,06;4,59;3,06;0;0;
19845;-14,65;-11,23;-14,65;-11,23;4,2;2,43;4,2;2,43;0;0;
19862;-14,65;-11,23;-14,65;-11,23;3,68;2,58;3,68;2,58;0;0;
19881;-15,89;-8,14;-15,89;-8,14;4,83;2,49;4,83;2,49;0;0;
19901;-13,76;-5,46;-13,76;-5,46;4,78;2,6;4,78;2,6;0;0;
19920;-21,46;-11,84;-21,46;-11,84;4,01;2,53;4,01;2,53;0;0;
19939;-44,87;-9,48;-44,87;-9,48;5,64;2,55;5,64;2,55;0;0;
19956;-117,4;-11,82;-117,4;-11,82;46,68;2,85;46,68;2,85;1;0;
19985;-41,6;-5,43;-41,6;-5,43;78,64;2,74;78,64;2,74;1;0;
20007;254,01;-4,21;254,01;-4,21;103,19;3,29;103,19;3,29;1;0;
20027;-155,15;-6,7;-155,15;-6,7;114,6;3,14;114,6;3,14;0;0;
20052;-2,81;-12,75;-2,81;-12,75;127,13;3,37;127,13;3,37;0;0;
20075;-373,78;-6,4;-373,78;-6,4;137,55;3,18;137,55;3,18;0;0;
20093;-252,93;-2,37;-252,93;-2,37;109,94;3,24;109,94;3,24;0;0;
20112;-140,04;-6,56;-140,04;-6,56;109,58;3,47;109,58;3,47;0;0;
20146;-71,59;-12,47;-71,59;-12,47;96,02;3,17;96,02;3,17;0;0;
20170;-282,65;-5,71;-282,65;-5,71;107,83;3,47;107,83;3,47;0;0;
20190;-37,02;-7,55;-37,02;-7,55;110,58;3,54;110,58;3,54;0;0;
20209;-20,63;-10,9;-20,63;-10,9;81,79;3,65;81,79;3,65;0;0;
20226;-17,92;-4,88;-17,92;-4,88;62,36;4,12;62,36;4,12;0;0;
20244;-5,35;-103,72;-5,35;-103,72;50,45;10,87;50,45;10,87;0;0;
20264;-28,22;47,57;-28,22;47,57;36,14;20,43;36,14;20,43;0;0;
20292;-25,25;30,68;-25,25;30,68;13,04;25;13,04;25;0;0;
20312;0,96;-83,01;0,96;-83,01;6,32;34,26;6,32;34,26;0;0;
20333;-10,98;5,86;-10,98;5,86;6,49;39,41;6,49;39,41;0;0;
20350;-9,48;153,99;-9,48;153,99;6,62;47,75;6,62;47,75;0;0;
20369;-14,17;-14,13;-14,17;-14,13;7,82;39,71;7,82;39,71;0;0;
20387;-22,63;-10,86;-22,63;-10,86;6,95;38,2;6,95;38,2;0;0;
20405;-31,42;-5,63;-31,42;-5,63;7,2;31,47;7,2;31,47;0;0;
20422;-31,42;-5,63;-31,42;-5,63;7,39;24,16;7,39;24,16;0;0;
20449;-15,85;-6,44;-15,85;-6,44;7,16;17,87;7,16;17,87;0;0;
20466;-18,92;-7,06;-18,92;-7,06;7,09;9,02;7,09;9,02;0;0;
20484;-26,89;-5,47;-26,89;-5,47;5,93;6,95;5,93;6,95;0;0;
20502;-26,89;-5,47;-26,89;-5,47;6,07;4,71;6,07;4,71;0;0;
20522;-11,9;1,98;-11,9;1,98;4,76;4,32;4,76;4,32;0;0;
20543;-17,62;-8,92;-17,62;-8,92;3,81;4,51;3,81;4,51;0;0;
20561;-15,8;-2,28;-15,8;-2,28;4,06;4,8;4,06;4,8;0;0;
20580;-23,38;-9,84;-23,38;-9,84;4,26;8;4,26;8;0;0;
20609;-19,88;-9,52;-19,88;-9,52;4,34;8,57;4,34;8,57;0;0;
20630;-16,52;-10,35;-16,52;-10,35;3,93;8,99;3,93;8,99;0;0;
20648;-14,74;-20,13;-14,74;-20,13;3,94;8,86;3,94;8,86;0;0;
20664;-18,89;-6,71;-18,89;-6,71;4,21;9,45;4,21;9,45;0;0;
20680;-18,89;-6,71;-18,89;-6,71;4,08;9,31;4,08;9,31;0;0;
20698;-16,73;-5,07;-16,73;-5,07;3,53;7,23;3,53;7,23;0;0;
20717;-7,16;-8,24;-7,16;-8,24;3,62;6,63;3,62;6,63;0;0;
20735;-20,31;-7,41;-20,31;-7,41;3,55;6,19;3,55;6,19;0;0;
20762;-14,81;-3,56;-14,81;-3,56;3,94;4,7;3,94;4,7;0;0;
20780;-16,91;-13,04;-16,91;-13,04;3,72;5,09;3,72;5,09;0;0;
20797;-15,71;-0,91;-15,71;-0,91;3,73;4,83;3,73;4,83;0;0;
20816;-20,34;-24,73;-20,34;-24,73;3,26;5,11;3,26;5,11;0;0;
20835;-16,58;-7,68;-16,58;-7,68;2,71;5,36;2,71;5,36;0;0;
20853;-17,7;-3,27;-17,7;-3,27;2,77;5,6;2,77;5,6;0;0;
20872;-14,16;-10,73;-14,16;-10,73;2,65;5,53;2,65;5,53;0;0;
20889;-15,75;-4,45;-15,75;-4,45;2,69;4,64;2,69;4,64;0;0;
20918;-19,44;-5,97;-19,44;-5,97;2,57;5,03;2,57;5,03;0;0;
20936;-18,36;-13,68;-18,36;-13,68;2,99;4,74;2,99;4,74;0;0;
20955;-12,15;-4,99;-12,15;-4,99;3,29;5,26;3,29;5,26;0;0;
20973;-20,4;-12,12;-20,4;-12,12;3,2;4,99;3,2;4,99;0;0;
20998;-21,36;-8,33;-21,36;-8,33;3,32;4,14;3,32;4,14;0;0;
21015;-11,18;-4,87;-11,18;-4,87;3,37;4;3,37;4;0;0;
21034;-15,03;-13,01;-15,03;-13,01;2,97;3,21;2,97;3,21;0;0;
21052;-23,73;-7,91;-23,73;-7,91;2,98;3,28;2,98;3,28;0;0;
21079;-0,02;-2,64;-0,02;-2,64;3,48;2,75;3,48;2,75;0;0;
21097;-93,61;-4,26;-93,61;-4,26;5,17;2,91;5,17;2,91;0;0;
21117;91,24;-4,07;91,24;-4,07;16,05;3,19;16,05;3,19;0;0;
21134;36,3;-8,6;36,3;-8,6;36,62;3,23;36,62;3,23;1;0;
21154;-70,81;-9,29;-70,81;-9,29;47,47;2,96;47,47;2,96;1;0;
21171;-125,13;-5,97;-125,13;-5,97;66,12;3,08;66,12;3,08;1;0;
21192;-263,77;-6,32;-263,77;-6,32;83,28;2,98;83,28;2,98;1;0;
21210;18,45;-11,8;18,45;-11,8;95,12;2,78;95,12;2,78;1;0;
21235;15,15;-15,27;15,15;-15,27;93,68;3,16;93,68;3,16;1;0;
21255;-66,39;-4,71;-66,39;-4,71;88,37;3,3;88,37;3,3;1;0;
21273;-118,33;-8,58;-118,33;-8,58;87,13;3,03;87,13;3,03;1;0;
21292;-17,15;-3,4;-17,15;-3,4;81,28;3,17;81,28;3,17;1;0;
21312;-43,38;-5,39;-43,38;-5,39;81,22;3,28;81,22;3,28;1;0;
21329;82,07;-9,25;82,07;-9,25;90,04;3,25;90,04;3,25;1;0;
21347;-82,48;-10,12;-82,48;-10,12;85,24;2,65;85,24;2,65;1;0;
21366;-9,73;-18,54;-9,73;-18,54;103,08;3,4;103,08;3,4;1;0;
21397;19,14;-8,58;19,14;-8,58;102,1;3,65;102,1;3,65;0;0;
21419;-9,93;-2,38;-9,93;-2,38;105,14;3,7;105,14;3,7;0;0;
21442;-22,96;-4,12;-22,96;-4,12;85,69;3,87;85,69;3,87;0;0;
21462;-22,76;8,92;-22,76;8,92;63,63;4,2;63,63;4,2;0;0;
21480;-13,8;3,75;-13,8;3,75;46,32;4,78;46,32;4,78;0;0;
21498;-21,08;-23,99;-21,08;-23,99;24,02;7,24;24,02;7,24;0;0;
21517;-4,99;2,87;-4,99;2,87;9,44;8,77;9,44;8,77;0;0;
21549;-9,35;-1,76;-9,35;-1,76;4,11;9,51;4,11;9,51;0;0;
21572;-13,17;27,78;-13,17;27,78;3,36;11,69;3,36;11,69;0;0;
21592;-17,23;-16,96;-17,23;-16,96;3,35;12,11;3,35;12,11;0;0;
21611;-13,98;-22,72;-13,98;-22,72;3,09;10,09;3,09;10,09;0;0;
21628;-21,79;-16,03;-21,79;-16,03;3,43;10,05;3,43;10,05;0;0;
21647;-27,26;-3,23;-27,26;-3,23;3,76;10,11;3,76;10,11;0;0;
21668;-14,7;-10,27;-14,7;-10,27;4,05;9,26;4,05;9,26;0;0;
21696;-17,53;-33,07;-17,53;-33,07;4,2;9,01;4,2;9,01;0;0;
21716;10,64;-9,96;10,64;-9,96;6,63;8,82;6,63;8,82;0;0;
21732;-34,84;-2,07;-34,84;-2,07;8,17;8,1;8,17;8,1;0;0;
21750;-26,81;-15,27;-26,81;-15,27;11,16;8,39;11,16;8,39;0;0;
21770;-13,32;-7,45;-13,32;-7,45;10,27;8,36;10,27;8,36;0;0;
21789;-18,69;-3,79;-18,69;-3,79;10,1;8,67;10,1;8,67;0;0;
21807;-22,31;-3,19;-22,31;-3,19;9,83;7,92;9,83;7,92;0;0;
21824;-22,77;-4,95;-22,77;-4,95;6,81;6,96;6,81;6,96;0;0;
21852;-16,49;-8,53;-16,49;-8,53;5,57;6,74;5,57;6,74;0;0;
21871;-20,87;-10,37;-20,87;-10,37;3,93;5,06;3,93;5,06;0;0;
21891;-12,3;-15,02;-12,3;-15,02;3,86;3,88;3,86;3,88;0;0;
21912;-14,36;-8,61;-14,36;-8,61;3,92;3,35;3,92;3,35;0;0;
21929;-14,52;-8,08;-14,52;-8,08;3,51;2,97;3,51;2,97;0;0;
21947;-22,22;-5,45;-22,22;-5,45;2,97;2,48;2,97;2,48;0;0;
21964;-13,04;-7,98;-13,04;-7,98;2,68;2,31;2,68;2,31;0;0;
21982;-13,04;-7,98;-13,04;-7,98;2,71;2,48;2,71;2,48;0;0;
22008;-14,27;-12,11;-14,27;-12,11;3,33;2,64;3,33;2,64;0;0;
22027;-21,82;-11,81;-21,82;-11,81;3,66;2,59;3,66;2,59;0;0;
22046;-23,61;-14,08;-23,61;-14,08;3,98;2,78;3,98;2,78;0;0;
22066;-14,8;-8,51;-14,8;-8,51;3,76;2,74;3,76;2,74;0;0;
22082;-14,8;-8,51;-14,8;-8,51;3,82;2,79;3,82;2,79;0;0;
22099;-14,77;-2,75;-14,77;-2,75;4,01;3,07;4,01;3,07;0;0;
22118;-13,12;1,11;-13,12;1,11;4;3,25;4;3,25;0;0;
22137;-15,65;-7,86;-15,65;-7,86;3,78;3,17;3,78;3,17;0;0;
22165;-13,5;-7,87;-13,5;-7,87;3,68;3,42;3,68;3,42;0;0;
22184;-15,44;-6,43;-15,44;-6,43;3,4;3,21;3,4;3,21;0;0;
22200;-15,44;-6,43;-15,44;-6,43;3,22;2,91;3,22;2,91;0;0;
22219;-19,32;-6,39;-19,32;-6,39;3,17;2,66;3,17;2,66;0;0;
22244;-14,9;-13,43;-14,9;-13,43;3,29;2,15;3,29;2,15;0;0;
22263;-14,9;-13,43;-14,9;-13,43;3,81;1,69;3,81;1,69;0;0;
22285;-21,91;-12,29;-21,91;-12,29;4,3;2,24;4,3;2,24;0;0;
22310;-13,18;-2,46;-13,18;-2,46;4,69;2,49;4,69;2,49;0;0;
22342;-24,4;-6,83;-24,4;-6,83;4,78;2,5;4,78;2,5;0;0;
22361;-19,68;-4,47;-19,68;-4,47;4,46;2,6;4,46;2,6;0;0;
22379;-15,54;-11,92;-15,54;-11,92;4;2,56;4;2,56;0;0;
22398;-17,1;-4,81;-17,1;-4,81;3,75;2,6;3,75;2,6;0;0;
22417;-10,3;-51,97;-10,3;-51,97;3,26;4,29;3,26;4,29;0;0;
22435;-10,3;-51,97;-10,3;-51,97;3,26;6,16;3,26;6,16;0;0;
22454;-13,66;17,02;-13,66;17,02;2,98;8,57;2,98;8,57;0;0;
22473;-10,23;-24,6;-10,23;-24,6;2,96;10,72;2,96;10,72;0;0;
22499;-14,85;-3,94;-14,85;-3,94;3,44;12,18;3,44;12,18;0;0;
22516;-15,9;-8,25;-15,9;-8,25;3,74;12,21;3,74;12,21;0;0;
22534;-9,86;-14,52;-9,86;-14,52;4,07;11,67;4,07;11,67;0;0;
22552;-23,36;-11,36;-23,36;-11,36;4,07;12,46;4,07;12,46;0;0;
22571;-11,85;-5,13;-11,85;-5,13;4,03;10,82;4,03;10,82;0;0;
22591;-24,34;-8,77;-24,34;-8,77;3,47;8,46;3,47;8,46;0;0;
22608;-12,79;-8,38;-12,79;-8,38;3,87;8;3,87;8;0;0;
22627;-15,04;-11,92;-15,04;-11,92;5;7,92;5;7,92;0;0;
22655;-17,84;-7,73;-17,84;-7,73;5,01;5,05;5,01;5,05;0;0;
22679;-18,67;-8,32;-18,67;-8,32;5,18;3,88;5,18;3,88;0;0;
22696;-15,69;-6,23;-15,69;-6,23;5,51;3,4;5,51;3,4;0;0;
22717;-14,34;-8,81;-14,34;-8,81;5,23;3,31;5,23;3,31;0;0;
22739;-7,59;-4,85;-7,59;-4,85;4,58;3,43;4,58;3,43;0;0;
22757;-21,74;-0,92;-21,74;-0,92;4,04;3,69;4,04;3,69;0;0;
22778;-17,12;-1,17;-17,12;-1,17;4,16;6,69;4,16;6,69;0;0;
22803;-18,9;-3,69;-18,9;-3,69;3,97;6,77;3,97;6,77;0;0;
22820;-18,9;-3,69;-18,9;-3,69;4,22;7,02;4,22;7,02;0;0;
22839;-27,59;-8,35;-27,59;-8,35;4,99;7,25;4,99;7,25;0;0;
22857;-10,38;-9,37;-10,38;-9,37;4,78;7,03;4,78;7,03;0;0;
22877;-27,47;-9,87;-27,47;-9,87;4,8;5,43;4,8;5,43;0;0;
22896;-9,08;-6,41;-9,08;-6,41;4,84;3,47;4,84;3,47;0;0;
22917;-14;2,23;-14;2,23;5;3,57;5;3,57;0;0;
22934;-19,43;-12,04;-19,43;-12,04;5,55;3,47;5,55;3,47;0;0;
22961;-15,79;-3,04;-15,79;-3,04;4,99;3,92;4,99;3,92;0;0;
22979;-22,7;-12,44;-22,7;-12,44;4,94;4,35;4,94;4,35;0;0;
22997;-16,53;-4,28;-16,53;-4,28;4,77;4,59;4,77;4,59;0;0;
23013;-17,11;-7,05;-17,11;-7,05;4,37;3,77;4,37;3,77;0;0;
23032;-9,17;-5,43;-9,17;-5,43;4,25;3,57;4,25;3,57;0;1;
23051;-15,51;-3,51;-15,51;-3,51;3,43;3,59;3,43;3,59;0;1;
23070;-12,73;-8,94;-12,73;-8,94;3,56;3,69;3,56;3,69;0;1;
23086;-19,16;-5,7;-19,16;-5,7;3,51;3,6;3,51;3,6;0;1;
23115;-19,44;-5,78;-19,44;-5,78;3,69;3,47;3,69;3,47;0;1;
23132;-19,13;-11,03;-19,13;-11,03;3,92;3,4;3,92;3,4;0;1;
23151;-21,75;-7,56;-21,75;-7,56;3,08;2,94;3,08;2,94;0;1;
23170;-18,57;-15,25;-18,57;-15,25;3,54;3,67;3,54;3,67;0;1;
23187;-17,85;-9,31;-17,85;-9,31;3,49;3,77;3,49;3,77;0;1;
23206;-20,06;1,07;-20,06;1,07;3,53;4,4;3,53;4,4;0;1;
23226;-3,78;8,51;-3,78;8,51;4,63;8,73;4,63;8,73;0;1;
23244;-28,17;-52,81;-28,17;-52,81;6,13;16,95;6,13;16,95;0;1;
23270;0,23;9,69;0,23;9,69;7,44;18,7;7,44;18,7;0;1;
23287;-14,62;-47,3;-14,62;-47,3;8,58;24,41;8,58;24,41;0;1;
23306;-17,33;-25,55;-17,33;-25,55;8,53;32,18;8,53;32,18;0;1;
23325;-14,9;22,94;-14,9;22,94;8,05;39,98;8,05;39,98;0;1;
23342;-14,9;22,94;-14,9;22,94;6,77;44,45;6,77;44,45;0;0;
23361;-26,66;-14,51;-26,66;-14,51;5,83;48,21;5,83;48,21;0;0;
23386;-15,04;-34,02;-15,04;-34,02;5,12;49,55;5,12;49,55;0;0;
23412;-30,5;-76,94;-30,5;-76,94;5,02;45,95;5,02;45,95;0;0;
23442;-36,56;79,05;-36,56;79,05;6,66;43,43;6,66;43,43;0;0;
23466;-13,22;-10,56;-13,22;-10,56;7,48;43,76;7,48;43,76;0;0;
23484;-13,34;-23,31;-13,34;-23,31;7,66;40,28;7,66;40,28;0;0;
23508;-0,48;-19,2;-0,48;-19,2;7,32;34,85;7,32;34,85;0;0;
23527;-13,67;2,99;-13,67;2,99;7,21;34,85;7,21;34,85;0;0;
23546;-14,4;-12,39;-14,4;-12,39;6,31;32,3;6,31;32,3;0;0;
23566;-12,27;-6,94;-12,27;-6,94;7,16;23,11;7,16;23,11;0;0;
23600;-13,3;-51,19;-13,3;-51,19;7,7;20,9;7,7;20,9;0;0;
23618;-9,72;2,07;-9,72;2,07;7,89;20,69;7,89;20,69;0;0;
23639;-7,4;-5,36;-7,4;-5,36;7,34;16,03;7,34;16,03;0;0;
23657;-25,88;-15,61;-25,88;-15,61;8,17;15,02;8,17;15,02;0;0;
23681;-37,97;-6,78;-37,97;-6,78;9,29;13,39;9,29;13,39;0;0;
23705;-17,88;-8,11;-17,88;-8,11;8,17;13,57;8,17;13,57;0;0;
23731;-9,2;-5,31;-9,2;-5,31;7,71;7,92;7,71;7,92;0;0;
23764;-12,5;-2,94;-12,5;-2,94;7,35;5,96;7,35;5,96;1;0;
23788;-13,55;-0,19;-13,55;-0,19;8,59;5,92;8,59;5,92;1;0;
23812;-2,67;-9,23;-2,67;-9,23;9,19;5,91;9,19;5,91;1;0;
23832;-10,48;-9,14;-10,48;-9,14;9,39;4,5;9,39;4,5;1;0;
23855;-18,32;-28,86;-18,32;-28,86;9,11;5,26;9,11;5,26;1;0;
23884;-14,5;-12,39;-14,5;-12,39;10,09;5,98;10,09;5,98;1;0;
23912;-10,54;17,56;-10,54;17,56;10,6;6,75;10,6;6,75;1;0;
23932;-22,51;3,16;-22,51;3,16;7,61;7,52;7,61;7,52;1;0;
23951;-6,55;-13,26;-6,55;-13,26;5,79;7,62;5,79;7,62;1;0;
23971;-24,63;-19,45;-24,63;-19,45;5,94;8,98;5,94;8,98;1;0;
23991;-15,43;2,61;-15,43;2,61;6,3;9,08;6,3;9,08;1;0;
24009;-15,41;-29,66;-15,41;-29,66;5,76;9,06;5,76;9,06;1;0;
24026;-2,49;-2,8;-2,49;-2,8;6,05;8,05;6,05;8,05;1;0;
24047;-221,81;-6,36;-221,81;-6,36;27,3;7,92;27,3;7,92;1;0;
24079;181,14;5,17;181,14;5,17;47,33;7,73;47,33;7,73;1;0;
24098;-34,11;-1,15;-34,11;-1,15;71,07;6,57;71,07;6,57;0;0;
24117;-21,02;-7,78;-21,02;-7,78;72,08;5,57;72,08;5,57;0;0;
24139;-7,54;-6,61;-7,54;-6,61;72,47;4,89;72,47;4,89;0;0;
24158;-16,39;-1,93;-16,39;-1,93;57,89;4,32;57,89;4,32;0;0;
24179;-10,59;-11,23;-10,59;-11,23;44,51;6,38;44,51;6,38;0;0;
24200;-21,38;-24,26;-21,38;-24,26;14,64;9,23;14,64;9,23;0;0;
24234;-20,54;13,88;-20,54;13,88;6,22;14;6,22;14;0;0;
24258;-17,17;-43,45;-17,17;-43,45;6,74;17,95;6,74;17,95;0;0;
24278;-18,43;-26,83;-18,43;-26,83;8,03;23,13;8,03;23,13;0;0;
24296;-16,01;2,23;-16,01;2,23;8,49;24,05;8,49;24,05;0;0;
24313;-14,26;-13,7;-14,26;-13,7;8,84;21,35;8,84;21,35;0;0;
24330;-21,11;-10,54;-21,11;-10,54;7,46;19,06;7,46;19,06;0;0;
24348;-21,41;-6,94;-21,41;-6,94;6,43;13,98;6,43;13,98;0;0;
24366;-14,57;-14,42;-14,57;-14,42;4,9;8,23;4,9;8,23;0;0;
24395;-16,93;-4,38;-16,93;-4,38;4,53;5,51;4,53;5,51;0;0;
24412;-14,41;-5,7;-14,41;-5,7;3,93;4,86;3,93;4,86;0;0;
24433;-14,15;-11,22;-14,15;-11,22;3,29;3,21;3,29;3,21;0;0;
24454;-7,79;-6,4;-7,79;-6,4;3,96;2,96;3,96;2,96;0;0;
24473;-16,15;-2,52;-16,15;-2,52;4,23;3,14;4,23;3,14;0;0;
24490;-12,91;-9,36;-12,91;-9,36;4,81;2,76;4,81;2,76;0;0;
24509;-7,13;-9,47;-7,13;-9,47;4,69;2,51;4,69;2,51;0;0;
24537;-3,79;-9,07;-3,79;-9,07;5,36;2,58;5,36;2,58;0;0;
24590;-18,45;-7,08;-18,45;-7,08;5,63;2,44;5,63;2,44;0;0;
24614;-26,94;-0,27;-26,94;-0,27;7,09;2,27;7,09;2,27;0;0;
24635;1,31;-8,36;1,31;-8,36;11,29;2,05;11,29;2,05;0;0;
24660;-19,89;-6,13;-19,89;-6,13;11,96;2,28;11,96;2,28;0;0;
24680;-11,69;-3,98;-11,69;-3,98;12,07;2,23;12,07;2,23;0;0;
24711;-0,67;-9,99;-0,67;-9,99;11,74;2,37;11,74;2,37;0;0;
24730;-17,96;-6,38;-17,96;-6,38;11,05;2,52;11,05;2,52;0;0;
24751;-11,73;-9,74;-11,73;-9,74;8,52;2,6;8,52;2,6;0;0;
24773;-5,15;-1,02;-5,15;-1,02;5,4;2,36;5,4;2,36;0;0;
24791;-32,31;-11,71;-32,31;-11,71;5,81;2,34;5,81;2,34;0;0;
24809;-25,94;-10,28;-25,94;-10,28;5,96;2,16;5,96;2,16;0;0;
24825;-9,13;-8,89;-9,13;-8,89;6,46;2,13;6,46;2,13;0;0;
24842;-9,13;-8,89;-9,13;-8,89;7,17;2,05;7,17;2,05;0;0;
24869;-23,94;-4,38;-23,94;-4,38;8,66;2,3;8,66;2,3;0;0;
24887;-10,14;-5,71;-10,14;-5,71;8,02;2,26;8,02;2,26;0;0;
24905;-11,34;-8,17;-11,34;-8,17;7,69;2,32;7,69;2,32;0;0;
24925;-21,52;-8,95;-21,52;-8,95;7,28;2,35;7,28;2,35;1;0;
24947;-22,79;-13,58;-22,79;-13,58;7,28;2,61;7,28;2,61;1;0;
24965;-199,96;-6,37;-199,96;-6,37;21,01;2,83;21,01;2,83;1;0;
24982;-199,96;-6,37;-199,96;-6,37;34,53;3,03;34,53;3,03;1;0;
25001;-129,43;-10,72;-129,43;-10,72;55,94;3,15;55,94;3,15;1;0;
25027;-21,16;-6,42;-21,16;-6,42;55,72;3,29;55,72;3,29;1;0;
25045;-16,4;-9,58;-16,4;-9,58;55,47;3,06;55,47;3,06;1;0;
25063;-15,92;-3,91;-15,92;-3,91;46,01;2,86;46,01;2,86;1;0;
25080;-15,92;-3,91;-15,92;-3,91;31,59;2,7;31,59;2,7;1;0;
25099;-21,05;-9,73;-21,05;-9,73;15,02;2,61;15,02;2,61;1;0;
25118;-8,73;-5,69;-8,73;-5,69;4,8;2,67;4,8;2,67;1;0;
25135;-15,78;-5,53;-15,78;-5,53;4,29;2,74;4,29;2,74;1;0;
25155;-143,21;-3,78;-143,21;-3,78;8,46;2,56;8,46;2,56;1;0;
25186;-66,2;-8,22;-66,2;-8,22;27,86;2,63;27,86;2,63;1;0;
25204;-53,08;-12,96;-53,08;-12,96;43,87;3,02;43,87;3,02;1;0;
25223;-53,08;-12,96;-53,08;-12,96;59,59;3,26;59,59;3,26;1;0;
25241;-205,88;3;-205,88;3;79,1;3,6;79,1;3,6;1;0;
25258;114,63;-7,79;114,63;-7,79;95,39;4,09;95,39;4,09;1;0;
25278;-8,99;-3,87;-8,99;-3,87;92,88;4;92,88;4;0;0;
25296;-236,58;-10,84;-236,58;-10,84;87,55;3,95;87,55;3,95;0;0;
25314;-100,61;1,56;-100,61;1,56;93,92;3,98;93,92;3,98;0;0;
25339;9,3;-4,89;9,3;-4,89;103,74;3,83;103,74;3,83;0;0;
25361;-194,62;-14,22;-194,62;-14,22;99,59;4,58;99,59;4,58;0;0;
25384;86,38;6,97;86,38;6,97;97,13;5,21;97,13;5,21;0;0;
25407;-201,5;-10,82;-201,5;-10,82;112,43;5,15;112,43;5,15;0;0;
25424;-22,71;-9,31;-22,71;-9,31;99,22;4,72;99,22;4,72;0;0;
25445;29,12;-7,16;29,12;-7,16;78,22;4,51;78,22;4,51;0;0;
25462;29,12;-7,16;29,12;-7,16;70,55;3,71;70,55;3,71;0;0;
25484;-18,8;-5,59;-18,8;-5,59;59,21;3,16;59,21;3,16;0;0;
25517;-17,4;-71,5;-17,4;-71,5;42,81;4,68;42,81;4,68;0;0;
25539;-18,82;-9,56;-18,82;-9,56;27,2;11,95;27,2;11,95;0;0;
25572;-21,43;-2,28;-21,43;-2,28;19,97;12,45;19,97;12,45;0;0;
25593;-21,59;-6,58;-21,59;-6,58;15,22;12,43;15,22;12,43;0;0;
25611;-9,51;2,09;-9,51;2,09;8,61;14,02;8,61;14,02;0;0;
25628;-14,59;-10,8;-14,59;-10,8;5,97;16,13;5,97;16,13;0;0;
25648;-98,13;-10,69;-98,13;-10,69;30,38;8,85;30,38;8,85;0;0;
25676;-19,75;-4,72;-19,75;-4,72;30,25;6,66;30,25;6,66;0;0;
25695;35,1;-11,51;35,1;-11,51;38,18;6,65;38,18;6,65;0;0;
25714;107,4;-8,8;107,4;-8,8;55,84;6,15;55,84;6,15;0;0;
25731;-9,92;-9,09;-9,92;-9,09;69,77;3,97;69,77;3,97;0;0;
25750;-18,69;-7,74;-18,69;-7,74;57,55;3,59;57,55;3,59;0;0;
25770;-21,11;-11,43;-21,11;-11,43;45,11;6,43;45,11;6,43;0;0;
25788;-26,21;13,62;-26,21;13,62;44,67;8,85;44,67;8,85;0;0;
25807;-16,81;-14,23;-16,81;-14,23;29,32;9,44;29,32;9,44;0;0;
25834;-2;-14,85;-2;-14,85;15,04;13,69;15,04;13,69;0;0;
25855;-22,04;6,84;-22,04;6,84;5,77;21,89;5,77;21,89;0;0;
25875;-0,09;29,72;-0,09;29,72;6,89;23,66;6,89;23,66;0;0;
25893;-17,88;-4,63;-17,88;-4,63;6,45;24,51;6,45;24,51;0;0;
25912;-19,12;12,29;-19,12;12,29;6,62;24,18;6,62;24,18;0;0;
25929;-28,62;-3,91;-28,62;-3,91;8,37;23,27;8,37;23,27;0;0;
25954;-7,6;-8,04;-7,6;-8,04;7,89;14,49;7,89;14,49;0;0;
25974;-9,33;-8,77;-9,33;-8,77;7,77;9,97;7,77;9,97;0;0;
26001;15,58;-3,85;15,58;-3,85;8,58;5,4;8,58;5,4;0;0;
26019;-19,02;-9,25;-19,02;-9,25;8,75;3,72;8,75;3,72;0;0;
26037;-11,17;-3,75;-11,17;-3,75;8,2;2,88;8,2;2,88;0;0;
26054;-12,55;-11,08;-12,55;-11,08;6,8;2,29;6,8;2,29;0;0;
26072;-16,29;-4,12;-16,29;-4,12;6,43;2,17;6,43;2,17;0;0;
26090;-16,29;-4,12;-16,29;-4,12;5,48;2,08;5,48;2,08;0;0;
26109;-18,12;-2,68;-18,12;-2,68;3,82;2,23;3,82;2,23;0;0;
26127;-3,03;-5,68;-3,03;-5,68;4,14;2,4;4,14;2,4;0;0;
26154;-9,32;-7,04;-9,32;-7,04;5,26;2,7;5,26;2,7;0;0;
26172;-32,91;-6,68;-32,91;-6,68;6,59;2,75;6,59;2,75;0;0;
26191;-14,54;-2,89;-14,54;-2,89;7,79;2,93;7,79;2,93;0;0;
26208;-18,87;-7,09;-18,87;-7,09;7,99;3,11;7,99;3,11;0;0;
26226;-21,59;-3,74;-21,59;-3,74;7,37;2,77;7,37;2,77;0;0;
26246;-30,33;-10,78;-30,33;-10,78;7,69;2,5;7,69;2,5;0;0;
26264;-17,83;-5,96;-17,83;-5,96;6,85;2,5;6,85;2,5;0;0;
26282;-17,83;-5,96;-17,83;-5,96;5,84;2,38;5,84;2,38;0;0;
26310;-6,1;-11,31;-6,1;-11,31;6,16;2,36;6,16;2,36;0;0;
26326;-6,42;-6,4;-6,42;-6,4;6,62;2,51;6,62;2,51;0;0;
26343;-21,53;-9,53;-21,53;-9,53;6,94;2,57;6,94;2,57;0;0;
26365;-15,43;-7,8;-15,43;-7,8;6,47;2,82;6,47;2,82;0;0;
26386;-12,35;-5,95;-12,35;-5,95;6,22;2,9;6,22;2,9;0;0;
26405;-17,89;-11,35;-17,89;-11,35;5,78;3,08;5,78;3,08;0;0;
26422;-17,89;-11,35;-17,89;-11,35;5,23;3,36;5,23;3,36;0;0;
26442;-14,07;-6,72;-14,07;-6,72;4,46;3,07;4,46;3,07;0;0;
26468;-22,9;-13,04;-22,9;-13,04;3,99;2,88;3,99;2,88;0;0;
26487;-27,43;-8,37;-27,43;-8,37;3,98;2,63;3,98;2,63;0;0;
26506;-25,54;-8,39;-25,54;-8,39;4,25;2,85;4,25;2,85;0;0;
26525;14,17;-9,46;14,17;-9,46;7,74;2,48;7,74;2,48;0;0;
26541;14,17;-9,46;14,17;-9,46;11,33;2,23;11,33;2,23;0;0;
26557;-21,47;-2,03;-21,47;-2,03;12,15;2,3;12,15;2,3;0;0;
26577;-2,98;-10,1;-2,98;-10,1;12,97;2,19;12,97;2,19;0;0;
26596;-25,42;-4,24;-25,42;-4,24;13,48;2,09;13,48;2,09;0;0;
26621;-41,31;-3,9;-41,31;-3,9;14,76;2,11;14,76;2,11;0;0;
26639;-36,97;-8,69;-36,97;-8,69;12,03;2,33;12,03;2,33;0;0;
26660;1,47;-9,81;1,47;-9,81;11,05;2,19;11,05;2,19;0;0;
26680;-25,07;-5,82;-25,07;-5,82;11,32;2,17;11,32;2,17;0;0;
26697;-32,1;-10,57;-32,1;-10,57;10,77;2,33;10,77;2,33;0;0;
26715;-13,79;-10,51;-13,79;-10,51;10,35;2,2;10,35;2,2;0;0;
26734;-40,84;-5,73;-40,84;-5,73;10,8;2,14;10,8;2,14;0;0;
26752;168,99;-15,86;168,99;-15,86;29,51;2,44;29,51;2,44;0;0;
26780;-143,28;-5,69;-143,28;-5,69;58,42;2,75;58,42;2,75;0;0;
26798;101,51;-5,33;101,51;-5,33;71,04;2,55;71,04;2,55;0;0;
26814;164,59;-10,37;164,59;-10,37;88,18;2,67;88,18;2,67;0;0;
26834;-45,97;-7,41;-45,97;-7,41;108,75;3,1;108,75;3,1;0;0;
26852;29,96;-2,02;29,96;-2,02;116,28;3,25;116,28;3,25;0;0;
26871;49,82;-9,54;49,82;-9,54;104,82;3,77;104,82;3,77;0;0;
26893;65,3;-4,42;65,3;-4,42;94,41;3,69;94,41;3,69;0;0;
26917;-221,56;-8,14;-221,56;-8,14;99,53;4,94;99,53;4,94;0;0;
26951;120,87;-7,17;120,87;-7,17;102,39;4,84;102,39;4,84;0;0;
26974;-46,64;-4,73;-46,64;-4,73;93,78;4,73;93,78;4,73;0;0;
26992;-2,36;-17,45;-2,36;-17,45;80,12;5,7;80,12;5,7;0;0;
27011;-44,41;-11,01;-44,41;-11,01;64,16;7,96;64,16;7,96;0;0;
27029;14,25;3,14;14,25;3,14;50,59;8,2;50,59;8,2;0;0;
27049;-7,26;-30,8;-7,26;-30,8;27,32;12,9;27,32;12,9;0;0;
27067;-11,07;-73,85;-11,07;-73,85;13,76;22,09;13,76;22,09;0;0;
27085;-23,73;56,17;-23,73;56,17;11,36;22,95;11,36;22,95;0;0;
27117;-21,74;17,33;-21,74;17,33;11,28;22,88;11,28;22,88;0;0;
27134;-6,91;-22,37;-6,91;-22,37;11,61;24,85;11,61;24,85;0;0;
27151;-18,14;-25,98;-18,14;-25,98;10,6;26,05;10,6;26,05;0;0;
27172;-12,81;-26,23;-12,81;-26,23;9,79;28,35;9,79;28,35;0;0;
27191;-19,84;-4,56;-19,84;-4,56;9,06;25,08;9,06;25,08;0;0;
27214;-24,17;-4,09;-24,17;-4,09;8,8;20,45;8,8;20,45;0;0;
27232;-8,41;0,3;-8,41;0,3;8,28;16,85;8,28;16,85;0;0;
27251;-33,18;-12,29;-33,18;-12,29;8,79;13,66;8,79;13,66;0;0;
27278;-16,76;-7,01;-16,76;-7,01;8,41;9,45;8,41;9,45;0;0;
27297;-9,86;-6,04;-9,86;-6,04;8,32;4,23;8,32;4,23;0;0;
27321;-23,82;-6,79;-23,82;-6,79;8,13;2,94;8,13;2,94;0;0;
27341;-44,55;-6,53;-44,55;-6,53;7,5;2,39;7,5;2,39;0;0;
27359;-144,3;-4,33;-144,3;-4,33;44,19;2,24;44,19;2,24;0;0;
27380;11,06;-20,14;11,06;-20,14;78,79;2,97;78,79;2,97;0;0;
27398;139,59;-6,35;139,59;-6,35;101,55;3,14;101,55;3,14;0;0;
27416;-186,89;1,86;-186,89;1,86;118,11;3,5;118,11;3,5;0;0;
27447;-146,16;-4,38;-146,16;-4,38;133,45;3,63;133,45;3,63;0;0;
27469;-39,35;-8,03;-39,35;-8,03;124,41;3,74;124,41;3,74;0;0;
27487;-16;-9,22;-16;-9,22;89,77;3,27;89,77;3,27;0;0;
27506;-50,57;-14,59;-50,57;-14,59;78,6;3,46;78,6;3,46;0;0;
27522;-50,57;-14,59;-50,57;-14,59;82,36;4,09;82,36;4,09;0;0;
27539;56,28;-7,97;56,28;-7,97;70,56;4,06;70,56;4,06;1;0;
27559;-63,88;-11,08;-63,88;-11,08;79,27;4,35;79,27;4,35;1;0;
27578;-32,19;-9,68;-32,19;-9,68;83,22;5,41;83,22;5,41;1;0;
27606;-14,81;-3,4;-14,81;-3,4;73,03;6,12;73,03;6,12;1;0;
27623;-14,81;-3,4;-14,81;-3,4;54,34;6,3;54,34;6,3;1;0;
27640;-40,2;-3,59;-40,2;-3,59;49,49;5,34;49,49;5,34;1;0;
27657;-128,47;-7,63;-128,47;-7,63;46,11;4,95;46,11;4,95;1;0;
27676;-173,83;-5,72;-173,83;-5,72;40,33;4,63;40,33;4,63;1;0;
27693;-85,63;-3,21;-85,63;-3,21;54,27;4,19;54,27;4,19;1;0;
27711;-171,23;-11,65;-171,23;-11,65;69,26;4,07;69,26;4,07;1;0;
27729;22,7;-6,42;22,7;-6,42;80,61;3,68;80,61;3,68;1;0;
27754;48,09;-7,33;48,09;-7,33;90;4,28;90;4,28;1;0;
27772;-9,64;-6,9;-9,64;-6,9;92,34;5;92,34;5;1;0;
27790;-40,99;-9,45;-40,99;-9,45;99,81;5,2;99,81;5,2;1;0;
27808;76,5;-21,68;76,5;-21,68;112,04;5,33;112,04;5,33;1;0;
27826;-106,28;-6,82;-106,28;-6,82;111,94;5,18;111,94;5,18;1;0;
27846;-61,7;-10,96;-61,7;-10,96;131,61;5,27;131,61;5,27;1;0;
27863;-61,7;-10,96;-61,7;-10,96;150,58;4,63;150,58;4,63;1;0;
27883;-173,64;-4,06;-173,64;-4,06;138,91;4,64;138,91;4,64;1;0;
27912;-23,31;-10,07;-23,31;-10,07;146,76;4,21;146,76;4,21;0;0;
27931;-25,74;-9,14;-25,74;-9,14;119,24;3,41;119,24;3,41;0;0;
27951;-0,94;-12,07;-0,94;-12,07;91,24;7,43;91,24;7,43;0;0;
27973;-19,76;-26,05;-19,76;-26,05;56,91;13,32;56,91;13,32;0;0;
27996;-19,91;28,45;-19,91;28,45;32,84;15,94;32,84;15,94;0;0;
28014;11,59;1,12;11,59;1,12;19,19;19,31;19,19;19,31;0;0;
28032;-35,4;2,48;-35,4;2,48;9,89;23,75;9,89;23,75;0;0;
28051;-20,19;3,47;-20,19;3,47;8,54;24,05;8,54;24,05;0;0;
28082;-22,47;-37,09;-22,47;-37,09;7,26;22,68;7,26;22,68;0;0;
28105;-20,31;10,7;-20,31;10,7;7,1;19,44;7,1;19,44;0;0;
28123;-7,15;-19,94;-7,15;-19,94;7,4;17,65;7,4;17,65;0;0;
28144;-7,83;-3,92;-7,83;-3,92;6,48;14,28;6,48;14,28;0;0;
28162;-7,83;-3,92;-7,83;-3,92;5,37;11,58;5,37;11,58;0;0;
28180;-11,59;-11,6;-11,59;-11,6;5,93;9,57;5,93;9,57;0;0;
28199;-18,17;-13,83;-18,17;-13,83;6,38;5,99;6,38;5,99;0;0;
28221;-19,88;-11,06;-19,88;-11,06;6,03;5,15;6,03;5,15;0;0;
28249;-20,21;-19,24;-20,21;-19,24;5,98;4,17;5,98;4,17;0;0;
28267;-14,52;-15,65;-14,52;-15,65;6,13;5,18;6,13;5,18;0;0;
28285;-17,61;-6,3;-17,61;-6,3;5,87;5,55;5,87;5,55;0;0;
28301;-17,61;-6,3;-17,61;-6,3;5,87;6,05;5,87;6,05;0;0;
28320;-11,91;-11,96;-11,91;-11,96;5,5;6,77;5,5;6,77;0;0;
28338;-23,9;-6,08;-23,9;-6,08;5,98;6,52;5,98;6,52;0;0;
28354;-17,41;-6,45;-17,41;-6,45;5,69;5,26;5,69;5,26;0;0;
28372;-25,69;-5,31;-25,69;-5,31;5,62;4,35;5,62;4,35;0;0;
28400;-18,75;-11,84;-18,75;-11,84;5,55;3,7;5,55;3,7;0;0;
28418;-25,46;-6,55;-25,46;-6,55;5,41;3,24;5,41;3,24;0;0;
28437;-9,8;-3,77;-9,8;-3,77;4,76;2,36;4,76;2,36;0;0;
28461;-33,12;-8,57;-33,12;-8,57;5,42;2,22;5,42;2,22;0;0;
28481;-24,2;-10,49;-24,2;-10,49;5,61;2,49;5,61;2,49;0;0;
28498;-18,3;-6,66;-18,3;-6,66;5,6;2,57;5,6;2,57;0;0;
28517;-4,67;-8,23;-4,67;-8,23;6,5;2,81;6,5;2,81;0;0;
28534;-29,22;-11,2;-29,22;-11,2;7,16;2,78;7,16;2,78;0;0;
28562;-12,03;-10,06;-12,03;-10,06;6,89;3,52;6,89;3,52;0;0;
28580;-19,79;-13,62;-19,79;-13,62;6,72;3,61;6,72;3,61;0;0;
28597;-21,06;-6,75;-21,06;-6,75;6,09;3,23;6,09;3,23;0;0;
28616;-17,36;-7,21;-17,36;-7,21;6,39;3,38;6,39;3,38;0;0;
28633;-15,78;-8,76;-15,78;-8,76;5,12;3,04;5,12;3,04;0;0;
28651;-12,29;-8,59;-12,29;-8,59;4,55;2,87;4,55;2,87;0;0;
28669;-10,51;-7,79;-10,51;-7,79;4,87;2,12;4,87;2,12;0;0;
28686;-13,89;-10,29;-13,89;-10,29;4,91;2,14;4,91;2,14;0;0;
28714;-21,05;-9,31;-21,05;-9,31;5,71;1,78;5,71;1,78;0;0;
28733;-23,59;-9,38;-23,59;-9,38;6,6;2,21;6,6;2,21;0;0;
28749;-20,61;-5,95;-20,61;-5,95;6,7;2,25;6,7;2,25;0;0;
28768;-16,96;-6,77;-16,96;-6,77;6,5;2,24;6,5;2,24;1;0;
28788;-15,19;-9,3;-15,19;-9,3;6,06;2,21;6,06;2,21;1;0;
28809;-30,02;-1,04;-30,02;-1,04;6,43;2,26;6,43;2,26;1;0;
28829;-6,35;-8,01;-6,35;-8,01;6,24;2,19;6,24;2,19;1;0;
28849;1,87;-12,24;1,87;-12,24;7,26;1,97;7,26;1,97;1;0;
28874;-8,47;-5,18;-8,47;-5,18;7,79;2,05;7,79;2,05;1;0;
28891;-19,32;-7,98;-19,32;-7,98;7,63;2,27;7,63;2,27;1;0;
28910;-21,81;-8,58;-21,81;-8,58;8,11;2,55;8,11;2,55;1;0;
28929;-6,46;-3,15;-6,46;-3,15;6,82;2,54;6,82;2,54;1;0;
28947;-25,01;-8,46;-25,01;-8,46;6,34;2,69;6,34;2,69;1;0;
28964;35,01;-1,79;35,01;-1,79;16,79;2,71;16,79;2,71;1;0;
28984;163,55;-2,98;163,55;-2,98;36,06;3,01;36,06;3,01;1;0;
29003;163,55;-2,98;163,55;-2,98;55,34;3,07;55,34;3,07;1;0;
29032;75,84;-7,48;75,84;-7,48;75,33;3,06;75,33;3,06;1;0;
29051;-93,2;2,03;-93,2;2,03;84,92;3,35;84,92;3,35;1;0;
29069;-27,64;-10,35;-27,64;-10,35;94,5;3,83;94,5;3,83;1;0;
29086;-215,64;-14,83;-215,64;-14,83;88,71;3,64;88,71;3,64;1;0;
29106;89,7;1,3;89,7;1,3;91,52;3,66;91,52;3,66;1;0;
29127;-117,99;-8,19;-117,99;-8,19;100,71;3,56;100,71;3,56;0;0;
29144;-62,99;-5,41;-62,99;-5,41;95,32;3,58;95,32;3,58;0;0;
29164;144,15;0,41;144,15;0,41;102,59;3,38;102,59;3,38;0;0;
29192;-35,15;-5,32;-35,15;-5,32;107,34;3,79;107,34;3,79;0;0;
29215;418,63;-2,31;418,63;-2,31;119,87;3,63;119,87;3,63;0;0;
29240;-25,38;-4,06;-25,38;-4,06;91,04;3,61;91,04;3,61;0;0;
29259;-72,77;-5,95;-72,77;-5,95;86,41;3,38;86,41;3,38;0;0;
29280;-62,25;-5,7;-62,25;-5,7;75,59;3,33;75,59;3,33;0;0;
29297;130,35;-14,46;130,35;-14,46;87,56;3,35;87,56;3,35;0;0;
29319;1,1;11,21;1,1;11,21;82,55;3,61;82,55;3,61;0;0;
29351;-38,11;1,56;-38,11;1,56;60,03;5,62;60,03;5,62;0;0;
29374;-3,01;29,59;-3,01;29,59;51,57;9,15;51,57;9,15;0;0;
29392;-12,82;-6,46;-12,82;-6,46;45,49;14,34;45,49;14,34;0;0;
29408;-20,19;-62,51;-20,19;-62,51;37,2;16,46;37,2;16,46;0;0;
29428;-25,76;10,91;-25,76;10,91;10,73;21,84;10,73;21,84;0;0;
29448;0,6;-39,32;0,6;-39,32;7;22,13;7;22,13;0;0;
29467;-16,42;-17,67;-16,42;-17,67;7,61;25,63;7,61;25,63;0;0;
29488;-24,4;0,07;-24,4;0,07;7,41;23,05;7,41;23,05;0;0;
29515;-22,89;-36,55;-22,89;-36,55;7,76;20,67;7,76;20,67;0;0;
29534;-15,05;-17,81;-15,05;-17,81;7,91;19,19;7,91;19,19;0;0;
29552;-23,74;-7,08;-23,74;-7,08;8,77;15,05;8,77;15,05;0;0;
29571;-14,93;-2,62;-14,93;-2,62;6,75;11,23;6,75;11,23;0;0;
29589;-14,15;-14,99;-14,15;-14,99;6,63;8,18;6,63;8,18;0;0;
29608;-12,56;-1,74;-12,56;-1,74;6,99;8,11;6,99;8,11;0;0;
29626;-5,91;-0,83;-5,91;-0,83;8;8,42;8;8,42;0;0;
29644;-13,15;-13,97;-13,15;-13,97;9,24;6,4;9,24;6,4;0;0;
29669;-12,34;2,31;-12,34;2,31;7,75;6,76;7,75;6,76;0;0;
29686;-11,18;-13,27;-11,18;-13,27;7,68;7,62;7,68;7,62;0;0;
29712;-12,73;2,91;-12,73;2,91;6,99;7,28;6,99;7,28;0;0;
29731;-17,53;-20,82;-17,53;-20,82;4,87;8,87;4,87;8,87;0;0;
29748;-21;0,97;-21;0,97;4,27;9,68;4,27;9,68;0;0;
29767;-15,12;97,75;-15,12;97,75;3,94;15,97;3,94;15,97;0;0;
29785;-24,96;-7,65;-24,96;-7,65;5;15,21;5;15,21;0;0;
29804;-12,53;-7,36;-12,53;-7,36;5,71;14,58;5,71;14,58;0;0;
29831;-25,2;-8,06;-25,2;-8,06;6,89;13,5;6,89;13,5;0;0;
29851;-25,91;-9,39;-25,91;-9,39;7,06;10,8;7,06;10,8;0;0;
29869;-10,08;-6,09;-10,08;-6,09;7,96;7,74;7,96;7,74;0;0;
29887;-24,31;-9,27;-24,31;-9,27;7,81;2,27;7,81;2,27;0;0;
29907;-31,2;-6,09;-31,2;-6,09;7,47;1,96;7,47;1,96;0;0;
29926;-6,28;-5,57;-6,28;-5,57;9,24;1,86;9,24;1,86;0;0;
29942;-6,28;-5,57;-6,28;-5,57;10,66;1,89;10,66;1,89;0;0;
29959;-36,26;-6,35;-36,26;-6,35;12,33;2,42;12,33;2,42;0;0;
29985;-8,95;-2,77;-8,95;-2,77;12,63;2,52;12,63;2,52;0;0;
30002;-8,95;-2,77;-8,95;-2,77;13,4;2,7;13,4;2,7;0;0;
30022;-21,62;-9,29;-21,62;-9,29;12,98;2,82;12,98;2,82;0;0;
30040;-10,97;-5,76;-10,97;-5,76;10,45;3,02;10,45;3,02;0;0;
30057;-10,97;-5,76;-10,97;-5,76;8,28;3,06;8,28;3,06;0;0;
30075;-24,35;-7,35;-24,35;-7,35;6,05;2,7;6,05;2,7;0;0;
30093;-10,35;-4,69;-10,35;-4,69;4,69;2,5;4,69;2,5;0;0;
30111;-10,01;-12,42;-10,01;-12,42;3,48;3,31;3,48;3,31;0;0;
30137;-22,44;-4,21;-22,44;-4,21;4,41;3,54;4,41;3,54;0;0;
30155;-25,59;-8,5;-25,59;-8,5;5,66;3,57;5,66;3,57;0;0;
30174;-18,31;-5,8;-18,31;-5,8;5,88;3,79;5,88;3,79;0;0;
30193;-1,67;-7,07;-1,67;-7,07;6,28;3,95;6,28;3,95;0;0;
30210;-28,5;-12,56;-28,5;-12,56;6,7;3,93;6,7;3,93;0;0;
30228;-15,03;-12,33;-15,03;-12,33;6,93;2,86;6,93;2,86;0;0;
30249;-15,26;-2,74;-15,26;-2,74;6,74;2,83;6,74;2,83;0;0;
30266;-16,3;-7,23;-16,3;-7,23;5,2;2,55;5,2;2,55;0;0;
30294;-13,67;-8,31;-13,67;-8,31;5,39;2,31;5,39;2,31;0;0;
30315;-23,9;-11,07;-23,9;-11,07;4,8;2,91;4,8;2,91;0;0;
30332;-3,35;-4,79;-3,35;-4,79;4,6;2,93;4,6;2,93;0;0;
30351;0,05;-9,1;0,05;-9,1;6,97;3,14;6,97;3,14;0;0;
30373;-26,01;-5,45;-26,01;-5,45;8,69;3,12;8,69;3,12;0;0;
30390;-13,62;-7,75;-13,62;-7,75;9,41;3,05;9,41;3,05;0;0;
30409;-17,07;-3,61;-17,07;-3,61;9,65;2,95;9,65;2,95;0;0;
30430;-8,49;-12,8;-8,49;-12,8;9,14;2,51;9,14;2,51;0;0;
30460;-21,22;-6,56;-21,22;-6,56;8,61;2,26;8,61;2,26;0;0;
30481;-13,4;-8,03;-13,4;-8,03;5,82;2,05;5,82;2,05;0;0;
30500;-31,9;-10,05;-31,9;-10,05;6,32;2,02;6,32;2,02;0;0;
30518;-2,1;-9,02;-2,1;-9,02;7,81;2,24;7,81;2,24;0;0;
30536;-19,13;-6,78;-19,13;-6,78;8,32;2,05;8,32;2,05;0;0;
30554;-14,17;-1,42;-14,17;-1,42;7,81;2,88;7,81;2,88;0;0;
30575;-14,79;-6,47;-14,79;-6,47;7,54;4,49;7,54;4,49;0;0;
30592;-16,56;-4,68;-16,56;-4,68;8,09;4,99;8,09;4,99;0;0;
30619;-8,07;9,51;-8,07;9,51;6,47;6,66;6,47;6,66;0;0;
30638;-18,72;-10,84;-18,72;-10,84;4,88;7,93;4,88;7,93;0;0;
30657;-13,31;60,27;-13,31;60,27;4,96;12,24;4,96;12,24;0;1;
30675;-29,55;-14,58;-29,55;-14,58;5,67;12,77;5,67;12,77;0;1;
30692;-22,46;-8,86;-22,46;-8,86;5,5;12,37;5,5;12,37;0;1;
30713;-17,97;1,72;-17,97;1,72;5,47;12,17;5,47;12,17;0;1;
30731;-10,81;-11,42;-10,81;-11,42;5,3;9,95;5,3;9,95;0;1;
30751;-13,57;21,81;-13,57;21,81;5,46;13,07;5,46;13,07;0;1;
30776;-11,22;7,36;-11,22;7,36;7,68;19,12;7,68;19,12;0;1;
30796;-11,89;-89,12;-11,89;-89,12;8,46;23,78;8,46;23,78;0;1;
30814;-23,81;-3,24;-23,81;-3,24;9,03;27,9;9,03;27,9;0;1;
30832;-12,86;49,71;-12,86;49,71;10,22;29,4;10,22;29,4;0;1;
30851;-22,34;-63,06;-22,34;-63,06;9,62;34,85;9,62;34,85;0;1;
30868;-3,62;-19,58;-3,62;-19,58;9,95;30,98;9,95;30,98;0;1;
30886;-17,57;-64,34;-17,57;-64,34;8,12;27,39;8,12;27,39;0;1;
30904;-21,04;-59,83;-21,04;-59,83;7,68;28,34;7,68;28,34;0;1;
30939;-35,06;2,66;-35,06;2,66;8,11;30,27;8,11;30,27;0;1;
30957;-32,54;-109,43;-32,54;-109,43;8,47;32,03;8,47;32,03;0;1;
30975;4,57;-30,72;4,57;-30,72;9,01;35,45;9,01;35,45;0;1;
30992;-12,97;27,59;-12,97;27,59;9,44;36,52;9,44;36,52;0;0;
31010;-37,58;12,81;-37,58;12,81;9,59;35,73;9,59;35,73;0;0;
31026;-10,95;-23,18;-10,95;-23,18;9,22;34,84;9,22;34,84;0;0;
31046;-32,24;31,7;-32,24;31,7;8,75;38,55;8,75;38,55;0;0;
31066;-0,55;133,94;-0,55;133,94;9,16;35,06;9,16;35,06;0;0;
31096;-14,79;-12,55;-14,79;-12,55;8,22;32,79;8,22;32,79;0;0;
31119;1,41;-2,67;1,41;-2,67;8,04;37,68;8,04;37,68;0;0;
31139;-7,55;-24,09;-7,55;-24,09;7,81;39,37;7,81;39,37;0;0;
31160;-21,68;-35,77;-21,68;-35,77;7,9;38,4;7,9;38,4;0;0;
31178;-11,42;-24,61;-11,42;-24,61;8,51;36,66;8,51;36,66;0;0;
31197;-27,28;2,49;-27,28;2,49;8,01;40,17;8,01;40,17;0;0;
31214;-22,12;-11,61;-22,12;-11,61;7,69;40,75;7,69;40,75;0;0;
31233;-18,52;2,56;-18,52;2,56;7,55;39,68;7,55;39,68;0;0;
31260;-35,15;50,88;-35,15;50,88;7,9;41,58;7,9;41,58;0;0;
31278;-7,67;-12,86;-7,67;-12,86;7,89;40,06;7,89;40,06;0;0;
31296;-19,3;-9,27;-19,3;-9,27;6,4;34,53;6,4;34,53;0;0;
31315;-18,51;-9,54;-18,51;-9,54;6,74;31,06;6,74;31,06;0;0;
31332;-19,08;-29,91;-19,08;-29,91;6,92;27,93;6,92;27,93;0;0;
31350;-14,23;27,04;-14,23;27,04;6,24;26,57;6,24;26,57;0;0;
31366;-14,79;12,11;-14,79;12,11;5,61;23,02;5,61;23,02;0;0;
31388;-17,12;-13,35;-17,12;-13,35;5,32;21,77;5,32;21,77;0;0;
31413;-24,08;-14,9;-24,08;-14,9;5,4;22,78;5,4;22,78;0;0;
31432;-13,92;-14,18;-13,92;-14,18;5,58;23,5;5,58;23,5;0;0;
31451;-14,07;-22,09;-14,07;-22,09;5,06;21,62;5,06;21,62;0;0;
31469;1,21;-6,88;1,21;-6,88;5,39;19,46;5,39;19,46;0;0;
31487;-17,81;-2,51;-17,81;-2,51;5,16;17,79;5,16;17,79;0;0;
31505;-24,1;-5,35;-24,1;-5,35;4,9;14,9;4,9;14,9;0;0;
31521;-24,1;-5,35;-24,1;-5,35;4,7;12,53;4,7;12,53;0;0;
31539;-11,85;-11,55;-11,85;-11,55;4,3;10,64;4,3;10,64;0;0;
31569;-9,14;-11,68;-9,14;-11,68;4,59;7,56;4,59;7,56;0;0;
31591;-18,92;-1,34;-18,92;-1,34;4,4;5,28;4,4;5,28;0;0;
31608;-8,62;-6,43;-8,62;-6,43;5,69;4,52;5,69;4,52;0;0;
31626;-15,8;-11,12;-15,8;-11,12;5,99;3,53;5,99;3,53;0;0;
31645;-8,2;0,37;-8,2;0,37;5,63;4,56;5,63;4,56;0;0;
31662;-8,2;0,37;-8,2;0,37;5,6;5,65;5,6;5,65;0;0;
31682;-24,09;-18,39;-24,09;-18,39;5,91;5,36;5,91;5,36;0;0;
31702;-14,07;-14,81;-14,07;-14,81;6,12;5,71;6,12;5,71;0;0;
31730;-15,51;-22,14;-15,51;-22,14;5,55;7,3;5,55;7,3;0;0;
31752;-19,19;-12,34;-19,19;-12,34;5,71;8,23;5,71;8,23;0;0;
31771;-15,72;-4,48;-15,72;-4,48;5,71;6,77;5,71;6,77;0;0;
31788;-17,76;-10,93;-17,76;-10,93;5,62;6,25;5,62;6,25;0;0;
31806;-32,07;-5,77;-32,07;-5,77;5,97;5,87;5,97;5,87;0;0;
31825;-7,81;-7,4;-7,81;-7,4;6,44;4,98;6,44;4,98;0;0;
31844;-19,52;-8,49;-19,52;-8,49;5,78;2,96;5,78;2,96;0;0;
31863;-15,61;-10,58;-15,61;-10,58;6;3,11;6;3,11;0;0;
31888;-25,77;-10,38;-25,77;-10,38;5,84;3,04;5,84;3,04;0;0;
31908;-10,12;-4,38;-10,12;-4,38;5,06;3,2;5,06;3,2;0;0;
31927;-10,49;-9,6;-10,49;-9,6;4,63;3,58;4,63;3,58;0;0;
31943;-10,49;-9,6;-10,49;-9,6;4;3,85;4;3,85;0;0;
31960;-24,18;-7,78;-24,18;-7,78;4,22;3,56;4,22;3,56;0;0;
31980;-33,17;-10,86;-33,17;-10,86;6,69;5,5;6,69;5,5;0;0;
31997;-28,44;-6,61;-28,44;-6,61;8,13;5,14;8,13;5,14;0;0;
32016;-10,24;-7,77;-10,24;-7,77;8,58;4,93;8,58;4,93;0;0;
32044;-15,86;-7,93;-15,86;-7,93;8,49;4,82;8,49;4,82;0;0;
32062;-15,86;-7,93;-15,86;-7,93;8,32;4,66;8,32;4,66;0;0;
32078;-19,88;-9,84;-19,88;-9,84;6,91;1,88;6,91;1,88;0;0;
32097;-16,76;-3,87;-16,76;-3,87;5,57;2,13;5,57;2,13;0;0;
32118;-13,6;-3,3;-13,6;-3,3;4,97;1,91;4,97;1,91;0;0;
32134;-24,88;-13,44;-24,88;-13,44;4,26;2,07;4,26;2,07;0;0;
32154;-130,6;-11,41;-130,6;-11,41;21,55;2,97;21,55;2,97;0;0;
32172;-34,49;-11,48;-34,49;-11,48;37,87;3,3;37,87;3,3;0;0;
32203;-51,3;-3,24;-51,3;-3,24;43,99;3,61;43,99;3,61;0;0;
32220;-20,98;-7,96;-20,98;-7,96;44,63;4,18;44,63;4,18;0;0;
32237;-11,34;30,61;-11,34;30,61;44,77;7,96;44,77;7,96;0;0;
32257;-23,41;-0,66;-23,41;-0,66;38,97;10,22;38,97;10,22;0;0;
32279;-17,89;-5,7;-17,89;-5,7;18,26;9,85;18,26;9,85;0;0;
32297;-21,78;-7,81;-21,78;-7,81;9,21;9,77;9,21;9,77;0;0;
32319;-7,16;-10,54;-7,16;-10,54;5,59;9,26;5,59;9,26;0;0;
32336;-20,81;-7,67;-20,81;-7,67;5,99;7,59;5,99;7,59;0;0;
32366;83,9;-13,41;83,9;-13,41;15,35;3,48;15,35;3,48;0;0;
32383;83,9;-13,41;83,9;-13,41;24,68;3,46;24,68;3,46;0;0;
32402;-4,53;-5,38;-4,53;-5,38;25,31;3,41;25,31;3,41;0;0;
32421;-12,05;-5,22;-12,05;-5,22;25,36;3,67;25,36;3,67;0;0;
32440;-27,09;-5,83;-27,09;-5,83;24,44;4,46;24,44;4,46;0;0;
32457;-9,21;5,48;-9,21;5,48;24,26;5,25;24,26;5,25;0;0;
32475;-10,64;-4,53;-10,64;-4,53;15,06;4,88;15,06;4,88;0;0;
32493;-13,45;-5,78;-13,45;-5,78;6,31;6;6,31;6;0;0;
32521;-17,29;-1,89;-17,29;-1,89;5,23;6,1;5,23;6,1;0;0;
32539;-21,39;-0,82;-21,39;-0,82;5,36;6,4;5,36;6,4;1;0;
32559;-30,15;-11,8;-30,15;-11,8;6,48;5,8;6,48;5,8;1;0;
32576;-9,22;-4,45;-9,22;-4,45;6,14;4,9;6,14;4,9;1;0;
32594;-10,12;-4,27;-10,12;-4,27;6,91;3,6;6,91;3,6;1;0;
32611;8,1;-12,97;8,1;-12,97;10,6;3,53;10,6;3,53;1;0;
32629;-149,04;-11,38;-149,04;-11,38;34,63;4,22;34,63;4,22;1;0;
32650;-104,56;-12,33;-104,56;-12,33;41,62;3,93;41,62;3,93;1;0;
32678;226,37;-26,43;226,37;-26,43;68,72;4,38;68,72;4,38;1;0;
32697;-92,62;-1,52;-92,62;-1,52;81,71;5,66;81,71;5,66;1;0;
32718;-149,58;-3,3;-149,58;-3,3;98,51;5,95;98,51;5,95;1;0;
32736;-48,22;-5,42;-48,22;-5,42;97,85;5,73;97,85;5,73;1;0;
32756;83,07;-4,5;83,07;-4,5;93,8;5,28;93,8;5,28;0;0;
32783;20,6;-2,34;20,6;-2,34;93,81;5,1;93,81;5,1;0;0;
32806;59,71;-5,16;59,71;-5,16;97,95;4,18;97,95;4,18;0;0;
32838;-72,6;-2,43;-72,6;-2,43;99,79;3,29;99,79;3,29;0;0;
32859;-30,62;-7,95;-30,62;-7,95;96,35;3,38;96,35;3,38;0;0;
32878;-58,05;-10,37;-58,05;-10,37;96,48;3,05;96,48;3,05;0;0;
32895;-24,88;-15,73;-24,88;-15,73;93,26;3,11;93,26;3,11;0;0;
32916;-36,08;-6,82;-36,08;-6,82;71,65;3,12;71,65;3,12;0;0;
32933;-18,97;20;-18,97;20;57,1;5,41;57,1;5,41;0;0;
32953;2,75;57,07;2,75;57,07;40,23;11,29;40,23;11,29;0;0;
32971;-25,54;19,17;-25,54;19,17;31,41;14,21;31,41;14,21;0;0;
32996;-30,45;-27,35;-30,45;-27,35;18,68;16,81;18,68;16,81;0;0;
33015;-14,42;-73,82;-14,42;-73,82;6,87;22,39;6,87;22,39;0;0;
33034;-13,89;-1,87;-13,89;-1,87;5,47;28,17;5,47;28,17;0;0;
33054;-13,85;-36,54;-13,85;-36,54;6,08;28;6,08;28;0;0;
33072;-32,13;-33,43;-32,13;-33,43;7;26,65;7;26,65;0;0;
33090;-16,86;-22,14;-16,86;-22,14;7,53;28,22;7,53;28,22;0;0;
33108;-10;-3,46;-10;-3,46;7,27;25,27;7,27;25,27;0;0;
33125;-26,72;46,45;-26,72;46,45;7,26;23,25;7,26;23,25;0;0;
33154;-17,54;-10,12;-17,54;-10,12;7,02;18,38;7,02;18,38;0;0;
33172;-6,05;-4,47;-6,05;-4,47;6,66;15,36;6,66;15,36;0;0;
33190;-15,92;-6,52;-15,92;-6,52;5,66;12,13;5,66;12,13;0;0;
33207;-11,62;-16,82;-11,62;-16,82;6,13;10,24;6,13;10,24;0;0;
33227;-21,35;-11,97;-21,35;-11,97;5,84;7,44;5,84;7,44;0;0;
33245;-22,65;-11,32;-22,65;-11,32;5,85;4,35;5,85;4,35;0;0;
33265;-12,38;-5,08;-12,38;-5,08;6,17;3,83;6,17;3,83;0;0;
33286;-20,86;-5,94;-20,86;-5,94;5,42;3,39;5,42;3,39;0;0;
33313;-15,71;-6,98;-15,71;-6,98;4,86;3,03;4,86;3,03;0;0;
33331;-15,98;11,15;-15,98;11,15;4,32;4,23;4,32;4,23;0;0;
33348;-18,11;-10,02;-18,11;-10,02;3,97;6,33;3,97;6,33;0;0;
33375;-16,59;-11,76;-16,59;-11,76;4,33;6,46;4,33;6,46;0;0;
33395;-22,29;-9,08;-22,29;-9,08;4,26;6,31;4,26;6,31;0;0;
33413;-14,27;-7,05;-14,27;-7,05;5,04;6,52;5,04;6,52;0;0;
33432;-13,49;-14,32;-13,49;-14,32;5,22;7,66;5,22;7,66;0;0;
33461;-8,36;-1,73;-8,36;-1,73;5,38;4,48;5,38;4,48;0;0;
33488;-5,55;-5,4;-5,55;-5,4;5,38;4,55;5,38;4,55;0;0;
33508;-13,91;-7,24;-13,91;-7,24;6,26;5,26;6,26;5,26;0;0;
33525;-26,18;-13,83;-26,18;-13,83;6,48;5,61;6,48;5,61;0;0;
33541;-26,18;-13,83;-26,18;-13,83;6,85;5,46;6,85;5,46;0;0;
33558;-21,41;-4,45;-21,41;-4,45;6,71;4,99;6,71;4,99;0;0;
33576;-21,21;-20,43;-21,21;-20,43;6,83;5,59;6,83;5,59;0;0;
33635;-30,59;-1,92;-30,59;-1,92;6,55;6,44;6,55;6,44;0;0;
33665;-12,5;-8,88;-12,5;-8,88;6,19;5,84;6,19;5,84;0;0;
33683;-12,5;-8,88;-12,5;-8,88;5,4;5,53;5,4;5,53;0;0;
33702;-14,65;0,28;-14,65;0,28;4,84;5,9;4,84;5,9;0;0;
33719;-23,14;-4,53;-23,14;-4,53;4,39;6,12;4,39;6,12;0;0;
33740;-22,97;-6,16;-22,97;-6,16;5,01;4,94;5,01;4,94;0;0;
33757;-8,45;-5,26;-8,45;-5,26;4,86;4,16;4,86;4,16;0;0;
33775;-25,39;2,43;-25,39;2,43;5,26;4,89;5,26;4,89;0;0;
33791;-14,34;3,61;-14,34;3,61;4,88;5,16;4,88;5,16;0;0;
33819;-17,44;-8,69;-17,44;-8,69;4,75;4,13;4,75;4,13;0;0;
33838;-11,61;-14,24;-11,61;-14,24;4,27;4,32;4,27;4,32;0;0;
33856;-9,44;-3,87;-9,44;-3,87;4,34;5,09;4,34;5,09;0;0;
33874;-24,38;-9,84;-24,38;-9,84;3,8;4,69;3,8;4,69;0;0;
33892;-22,46;-2,77;-22,46;-2,77;3,5;3,58;3,5;3,58;0;0;
33910;-21,07;-7,43;-21,07;-7,43;3,6;3,12;3,6;3,12;0;0;
33927;-12,85;-19,37;-12,85;-19,37;4,24;3,4;4,24;3,4;0;0;
33944;-20,7;-12,12;-20,7;-12,12;4,14;4,53;4,14;4,53;0;0;
33975;-13,43;1,37;-13,43;1,37;3,82;5,07;3,82;5,07;0;0;
33994;-2,79;34,7;-2,79;34,7;4,24;7,54;4,24;7,54;0;0;
34012;-23,54;-0,92;-23,54;-0,92;4,59;7,81;4,59;7,81;0;0;
34031;-12,94;7,59;-12,94;7,59;4,94;8,33;4,94;8,33;0;0;
34050;-31,29;-5,81;-31,29;-5,81;5,59;7,13;5,59;7,13;0;0;
34067;-28,34;-2,33;-28,34;-2,33;6,18;7,29;6,18;7,29;0;0;
34086;-9,01;-10,09;-9,01;-10,09;6,62;6,86;6,62;6,86;0;0;
34103;-9,46;-15;-9,46;-15;6,66;5,79;6,66;5,79;0;0;
34132;-14,84;-39,82;-14,84;-39,82;6,71;7,46;6,71;7,46;0;0;
34154;-15,68;-4,65;-15,68;-4,65;6,07;8,01;6,07;8,01;0;0;
34173;-22,14;-1,34;-22,14;-1,34;5,19;7,94;5,19;7,94;0;0;
34191;-23,62;-4,05;-23,62;-4,05;4,94;7,56;4,94;7,56;0;0;
34209;-7,61;-6,44;-7,61;-6,44;4,34;7,81;4,34;7,81;0;0;
34225;-21,75;-7,09;-21,75;-7,09;3,78;6,8;3,78;6,8;0;0;
34244;-25,84;-28,04;-25,84;-28,04;3,88;5,24;3,88;5,24;0;0;
34263;-25,84;-28,04;-25,84;-28,04;4,28;5,33;4,28;5,33;0;0;
34289;-5,58;-39,39;-5,58;-39,39;4,25;8,13;4,25;8,13;0;0;
34307;-19,14;8,97;-19,14;8,97;4,34;10;4,34;10;0;0;
34326;-11,88;35,41;-11,88;35,41;5,07;13,05;5,07;13,05;0;0;
34344;-20,39;-12,36;-20,39;-12,36;5,94;17,6;5,94;17,6;0;0;
34361;-20,39;-12,36;-20,39;-12,36;6,89;20,98;6,89;20,98;0;0;
34379;-16,52;-60,31;-16,52;-60,31;7,1;24,44;7,1;24,44;0;0;
34398;-26,82;44,59;-26,82;44,59;7,53;28,52;7,53;28,52;0;0;
34417;-33,42;16,39;-33,42;16,39;8,33;31,26;8,33;31,26;0;0;
34444;-26,68;17,65;-26,68;17,65;8,53;32,86;8,53;32,86;0;1;
34462;-26,68;17,65;-26,68;17,65;8,12;33,76;8,12;33,76;0;1;
34480;1,35;-80,48;1,35;-80,48;8,16;35,69;8,16;35,69;0;1;
34499;-4,63;-4,81;-4,63;-4,81;8,89;37,45;8,89;37,45;0;1;
34518;-29,47;-69,1;-29,47;-69,1;7,95;37,72;7,95;37,72;0;1;
34537;-22,56;-81,27;-22,56;-81,27;7,82;38,59;7,82;38,59;0;1;
34556;-20,59;-51,76;-20,59;-51,76;7,83;37,29;7,83;37,29;0;1;
34575;-23,24;4,81;-23,24;4,81;8,08;41;8,08;41;0;0;
34606;-39,79;-80,49;-39,79;-80,49;7,4;40,84;7,4;40,84;0;0;
34631;-2,21;-36,75;-2,21;-36,75;7,54;42,81;7,54;42,81;0;0;
34654;-1,24;-7,41;-1,24;-7,41;7,37;39,08;7,37;39,08;0;0;
34673;-82,96;-12,79;-82,96;-12,79;19,52;35,37;19,52;35,37;0;0;
34693;-79,2;-8,41;-79,2;-8,41;28,21;25,8;28,21;25,8;0;0;
34711;6,04;10,52;6,04;10,52;32,06;19,05;32,06;19,05;0;0;
34736;-17,11;0,73;-17,11;0,73;31,87;12,25;31,87;12,25;0;0;
34767;-9,21;-13,36;-9,21;-13,36;31,8;11,31;31,8;11,31;0;0;
34789;-15,3;18,75;-15,3;18,75;21,17;11,08;21,17;11,08;0;0;
34806;-5,68;-24,87;-5,68;-24,87;13,58;13,06;13,58;13,06;0;0;
34824;-19,51;-6,67;-19,51;-6,67;6,87;13,16;6,87;13,16;0;0;
34842;-19,51;-6,67;-19,51;-6,67;6,12;12,02;6,12;12,02;0;0;
34859;-13,89;-16,04;-13,89;-16,04;6,39;9,35;6,39;9,35;0;0;
34876;-33,66;-15,06;-33,66;-15,06;6,42;7,44;6,42;7,44;0;0;
34894;-11,17;-21,32;-11,17;-21,32;7,43;7,52;7,43;7,52;0;0;
34925;-14,93;-8,32;-14,93;-8,32;6,48;6,79;6,48;6,79;0;0;
34944;-13,72;-5;-13,72;-5;5,28;7,61;5,28;7,61;0;0;
34962;-13,72;-5;-13,72;-5;5,04;8,07;5,04;8,07;0;0;
34981;-24,12;-16,92;-24,12;-16,92;4,79;10,29;4,79;10,29;0;0;
35000;-16,86;-7,67;-16,86;-7,67;3,56;8,9;3,56;8,9;0;0;
35018;-20,65;-21,82;-20,65;-21,82;3,24;6,87;3,24;6,87;0;0;
35041;-20,17;-9,38;-20,17;-9,38;2,82;6,41;2,82;6,41;0;0;
35060;-24,51;-6,97;-24,51;-6,97;3,53;4,62;3,53;4,62;0;0;
35086;-10,06;-2,42;-10,06;-2,42;4,14;3,28;4,14;3,28;0;0;
35106;-19,49;-6,35;-19,49;-6,35;4,23;3,56;4,23;3,56;0;0;
35125;-18,33;-5,7;-18,33;-5,7;4,39;3,3;4,39;3,3;0;0;
35142;-18,33;-5,7;-18,33;-5,7;4,33;3,15;4,33;3,15;0;0;
35158;-26,16;-5,32;-26,16;-5,32;4,23;3,23;4,23;3,23;0;0;
35177;-15,11;-10,53;-15,11;-10,53;3,56;3,35;3,56;3,35;1;0;
35196;-27,07;-9,45;-27,07;-9,45;3,22;3,08;3,22;3,08;1;0;
35212;-13,96;-7,64;-13,96;-7,64;3,26;2,89;3,26;2,89;1;0;
35241;-4,16;-1,79;-4,16;-1,79;5,45;2,62;5,45;2,62;1;0;
35257;21,34;-8,38;21,34;-8,38;31,76;2,87;31,76;2,87;1;0;
35276;-57,05;-13,24;-57,05;-13,24;52,99;2,93;52,99;2,93;1;0;
35292;-58,69;-2,4;-58,69;-2,4;63,61;3,01;63,61;3,01;1;0;
35312;-196,37;-3,14;-196,37;-3,14;80,64;3,63;80,64;3,63;1;0;
35329;45,08;-14,15;45,08;-14,15;98,19;3,68;98,19;3,68;1;0;
35348;-45,62;-2,77;-45,62;-2,77;102,98;3,69;102,98;3,69;1;0;
35367;-46,67;-12,07;-46,67;-12,07;91,52;3,68;91,52;3,68;0;0;
35403;-473,47;2,43;-473,47;2,43;101,28;4,35;101,28;4,35;0;0;
35426;-429,74;-2,43;-429,74;-2,43;117,72;4,6;117,72;4,6;0;0;
35444;-102,74;-6,05;-102,74;-6,05;125,88;4,22;125,88;4,22;0;0;
35462;-102,74;-6,05;-102,74;-6,05;133,71;4,28;133,71;4,28;0;0;
35480;-245,66;-10,92;-245,66;-10,92;127,01;3,82;127,01;3,82;0;0;
35498;-80,83;-14,53;-80,83;-14,53;131,38;3,31;131,38;3,31;0;0;
35518;0,23;-67,28;0,23;-67,28;111,05;10,17;111,05;10,17;0;0;
35552;-5,38;-15,45;-5,38;-15,45;82,57;15,47;82,57;15,47;0;0;
35574;-14,84;17,12;-14,84;17,12;58,09;20,56;58,09;20,56;0;0;
35593;-10,92;-5,68;-10,92;-5,68;33,98;20,53;33,98;20,53;0;0;
35610;-15,94;-4,84;-15,94;-4,84;18,43;20,82;18,43;20,82;0;0;
35630;112,6;-14,7;112,6;-14,7;32,14;20,18;32,14;20,18;0;0;
35649;189,87;-11,2;189,87;-11,2;54,62;12,48;54,62;12,48;0;0;
35666;-217,23;-11,83;-217,23;-11,83;100,77;5,78;100,77;5,78;0;0;
35683;-217,23;-11,83;-217,23;-11,83;148,05;4,52;148,05;4,52;0;0;
35711;-24,24;-6,91;-24,24;-6,91;148,87;4,16;148,87;4,16;0;0;
35728;-20,41;-14,75;-20,41;-14,75;147,26;5,23;147,26;5,23;0;0;
35747;-16,81;-12,74;-16,81;-12,74;115,46;5,74;115,46;5,74;0;0;
35766;-19,91;19,87;-19,91;19,87;73,28;7,99;73,28;7,99;0;0;
35784;-15,8;29,42;-15,8;29,42;26,27;14,85;26,27;14,85;0;0;
35802;-15,8;29,42;-15,8;29,42;4,59;22,24;4,59;22,24;0;0;
35820;-19,81;-48,8;-19,81;-48,8;4,21;27,98;4,21;27,98;0;0;
35839;-24,95;-16,79;-24,95;-16,79;4,42;35,18;4,42;35,18;0;0;
35864;-20,44;7,33;-20,44;7,33;4,45;37,34;4,45;37,34;0;0;
35883;-17,22;-41,67;-17,22;-41,67;4,11;37,23;4,11;37,23;0;0;
35901;-17,22;-41,67;-17,22;-41,67;4,12;33,18;4,12;33,18;0;0;
35919;-20,14;-3,93;-20,14;-3,93;4,14;27,65;4,14;27,65;0;0;
35939;-20,22;-13,13;-20,22;-13,13;3,53;20,17;3,53;20,17;0;0;
35967;-18,71;-18,17;-18,71;-18,17;3,15;14,94;3,15;14,94;0;0;
35984;-19,98;-10,9;-19,98;-10,9;3,45;13,02;3,45;13,02;0;0;
36002;-19,98;-10,9;-19,98;-10,9;3,4;10,7;3,4;10,7;0;0;
36027;-18,1;-10,16;-18,1;-10,16;3,31;8,68;3,31;8,68;0;0;
36045;-16,71;-4,62;-16,71;-4,62;4,53;8,44;4,53;8,44;0;0;
36063;-13,49;-0,01;-13,49;-0,01;5,93;7,88;5,93;7,88;0;0;
36081;-13,49;-0,01;-13,49;-0,01;7,15;8,3;7,15;8,3;0;0;
36098;-21,37;-4,46;-21,37;-4,46;8;7,09;8;7,09;0;0;
36118;-17,98;-6,36;-17,98;-6,36;7,71;7,4;7,71;7,4;0;0;
36136;-15,18;-7,71;-15,18;-7,71;7,32;8,18;7,32;8,18;0;0;
36154;-14,2;-18,51;-14,2;-18,51;6,32;7,86;6,32;7,86;0;0;
36182;-15,01;7,39;-15,01;7,39;4,95;7,35;4,95;7,35;0;0;
36200;-17,48;0,58;-17,48;0,58;3,69;9,7;3,69;9,7;0;0;
36216;-25,82;9,83;-25,82;9,83;3,28;10,24;3,28;10,24;0;0;
36234;-6,43;-52,91;-6,43;-52,91;4,21;10,68;4,21;10,68;0;0;
36251;-16,28;-28,33;-16,28;-28,33;5,29;13,96;5,29;13,96;0;0;
36270;-18,7;-4,63;-18,7;-4,63;5,7;15,82;5,7;15,82;0;0;
36290;-25,37;-13,22;-25,37;-13,22;6,76;18,41;6,76;18,41;0;0;
36308;-14,86;12;-14,86;12;7,3;17,84;7,3;17,84;0;0;
36334;-27,75;32,98;-27,75;32,98;7,87;23,05;7,87;23,05;0;0;
36351;-19,68;-15,03;-19,68;-15,03;8,14;25,94;8,14;25,94;0;1;
36369;-29,2;32,22;-29,2;32,22;8,32;28,1;8,32;28,1;0;1;
36387;-7,09;57,73;-7,09;57,73;8,8;31,28;8,8;31,28;0;1;
36405;-20,66;-24,29;-20,66;-24,29;8,67;35,38;8,67;35,38;0;1;
36426;-8,22;49,24;-8,22;49,24;8,67;37,63;8,67;37,63;0;1;
36445;-34,67;-48,6;-34,67;-48,6;8,57;35,45;8,57;35,45;0;1;
36465;-9,92;160,26;-9,92;160,26;9,01;42,84;9,01;42,84;0;0;
36492;-25,1;25,03;-25,1;25,03;8,04;40,43;8,04;40,43;0;0;
36515;-21,89;179,29;-21,89;179,29;7,24;40,58;7,24;40,58;0;0;
36535;-17,12;-92,39;-17,12;-92,39;7,35;44,09;7,35;44,09;0;0;
36552;-18,83;13,16;-18,83;13,16;7;44,71;7;44,71;0;0;
36571;-2,71;-55,03;-2,71;-55,03;7,07;54,63;7,07;54,63;0;0;
36593;-6,58;-48,45;-6,58;-48,45;6,76;52,94;6,76;52,94;0;0;
36612;-22,14;-24,03;-22,14;-24,03;7,48;53,47;7,48;53,47;0;0;
36631;-12,82;-92,58;-12,82;-92,58;7,4;48,89;7,4;48,89;0;0;
36664;-9,52;117,28;-9,52;117,28;6,84;52,28;6,84;52,28;0;0;
36685;-27,59;-10,11;-27,59;-10,11;6,77;50,68;6,77;50,68;0;0;
36703;-27,59;-10,11;-27,59;-10,11;7,03;43,75;7,03;43,75;0;0;
36720;-21,35;24,3;-21,35;24,3;6,8;43,71;6,8;43,71;0;0;
36736;-15,22;-119,82;-15,22;-119,82;6,31;47,59;6,31;47,59;0;0;
36757;-25,75;-32,47;-25,75;-32,47;6,37;47,8;6,37;47,8;0;0;
36775;-1,96;-30,83;-1,96;-30,83;6,11;39,85;6,11;39,85;0;0;
36794;-10,26;-3,47;-10,26;-3,47;5,79;38,13;5,79;38,13;0;0;
36821;-25,38;40,14;-25,38;40,14;6,1;38,48;6,1;38,48;0;0;
36839;-20,06;-23,8;-20,06;-23,8;6,1;37,82;6,1;37,82;0;0;
36858;-18,76;-140,53;-18,76;-140,53;5,63;33,7;5,63;33,7;0;0;
36876;-18,76;-140,53;-18,76;-140,53;4,71;37,2;4,71;37,2;0;0;
36892;-16,06;-49,97;-16,06;-49,97;3,88;38,01;3,88;38,01;0;0;
36910;-21,46;-5,71;-21,46;-5,71;3,96;33,98;3,96;33,98;0;0;
36928;-15,93;-27,48;-15,93;-27,48;3,78;30,96;3,78;30,96;0;0;
36947;-14,91;-2,19;-14,91;-2,19;3,42;26,98;3,42;26,98;0;0;
36976;-20,09;-51,91;-20,09;-51,91;3,98;24,63;3,98;24,63;0;0;
36994;-13,41;-10,98;-13,41;-10,98;4,44;19,15;4,44;19,15;0;0;
37011;-16,29;-3,46;-16,29;-3,46;4,49;17,67;4,49;17,67;0;0;
37028;-17,19;-27,53;-17,19;-27,53;3,72;18,22;3,72;18,22;0;0;
37047;-25,02;-4,99;-25,02;-4,99;4,01;16,03;4,01;16,03;0;0;
37064;-22,65;-21,77;-22,65;-21,77;4,03;14,77;4,03;14,77;0;0;
37082;-22,65;-21,77;-22,65;-21,77;3,68;10,99;3,68;10,99;0;0;
37100;-14,75;-11,08;-14,75;-11,08;3,6;9,4;3,6;9,4;0;0;
37129;-18,62;-21,82;-18,62;-21,82;4,11;9,08;4,11;9,08;0;0;
37146;-28,32;-14,6;-28,32;-14,6;5,12;10,02;5,12;10,02;0;0;
37165;-23,29;-1,06;-23,29;-1,06;4,53;8,95;4,53;8,95;0;0;
37182;-23,29;-1,06;-23,29;-1,06;4,52;6,41;4,52;6,41;0;0;
37206;-21,42;-11,44;-21,42;-11,44;4,46;4,8;4,46;4,8;0;0;
37222;-21,42;-11,44;-21,42;-11,44;4,23;4,9;4,23;4,9;0;0;
37239;102,74;-10,83;102,74;-10,83;12,51;2,69;12,51;2,69;0;0;
37257;-49,44;-9,26;-49,44;-9,26;16,73;2,42;16,73;2,42;0;0;
37284;-17,86;-9,89;-17,86;-9,89;17,28;2,15;17,28;2,15;0;0;
37301;-17,86;-9,89;-17,86;-9,89;17,94;1,98;17,94;1,98;0;0;
37317;-11,54;-9,37;-11,54;-9,37;18,42;2,06;18,42;2,06;0;0;
37334;-11,06;-9,83;-11,06;-9,83;15,23;2,91;15,23;2,91;0;0;
37350;-10,47;-10,11;-10,47;-10,11;5,73;2,94;5,73;2,94;0;0;
37369;-25,13;-3,13;-25,13;-3,13;5,1;2,97;5,1;2,97;0;0;
37387;-26,7;15,68;-26,7;15,68;4,73;5,62;4,73;5,62;0;0;
37403;-15,02;1,98;-15,02;1,98;4,43;6,94;4,43;6,94;0;0;
37420;-15,02;1,98;-15,02;1,98;4,53;8,05;4,53;8,05;0;0;
37447;-22,2;18,57;-22,2;18,57;4,78;8,14;4,78;8,14;0;0;
37465;-19,27;-8,74;-19,27;-8,74;4,33;7,88;4,33;7,88;0;0;
37481;-19,27;-8,74;-19,27;-8,74;3,88;7,44;3,88;7,44;0;0;
37497;-11,28;-6,13;-11,28;-6,13;4,01;5,36;4,01;5,36;0;0;
37515;-7,58;-10,37;-7,58;-10,37;3,74;3,97;3,74;3,97;0;0;
37532;-21,93;23,95;-21,93;23,95;3,85;6,98;3,85;6,98;0;0;
37550;-13,34;-7,39;-13,34;-7,39;3,85;6,95;3,85;6,95;0;0;
37569;-25,12;-10,6;-25,12;-10,6;4,24;7,04;4,24;7,04;0;0;
37587;-23,58;-4,39;-23,58;-4,39;4,76;7,21;4,76;7,21;0;0;
37616;-20,57;-5,14;-20,57;-5,14;4,56;7,25;4,56;7,25;0;0;
37632;-21,51;-5,91;-21,51;-5,91;4,4;5,89;4,4;5,89;0;0;
37652;-26,08;-8,24;-26,08;-8,24;4,28;3,41;4,28;3,41;0;0;
37670;-19,48;-19,21;-19,48;-19,21;4,32;3,58;4,32;3,58;0;0;
37689;-24,77;-4,18;-24,77;-4,18;4,36;3,57;4,36;3,57;0;0;
37709;-15,23;-9,35;-15,23;-9,35;4,22;3,65;4,22;3,65;0;0;
37726;-20,25;-5,2;-20,25;-5,2;4,09;4,39;4,09;4,39;0;0;
37745;-16,94;-13,42;-16,94;-13,42;3,58;4,28;3,58;4,28;0;0;
37772;-23,35;-6,24;-23,35;-6,24;3,35;3,36;3,35;3,36;0;0;
37793;-32,82;-6,69;-32,82;-6,69;4,7;3,3;4,7;3,3;0;0;
37810;-24,74;-12,05;-24,74;-12,05;9,5;3,29;9,5;3,29;0;0;
37827;136,89;-7,13;136,89;-7,13;25,72;2,9;25,72;2,9;0;0;
37844;42,12;-5,96;42,12;-5,96;32,69;2,31;32,69;2,31;0;0;
37863;42,12;-5,96;42,12;-5,96;39,67;2,28;39,67;2,28;0;0;
37880;-140,74;-6,36;-140,74;-6,36;77,08;2,52;77,08;2,52;0;0;
37898;153,97;-12,07;153,97;-12,07;89,45;2,56;89,45;2,56;0;0;
37926;-147,64;-10,77;-147,64;-10,77;99,83;2,78;99,83;2,78;0;0;
37944;-0,8;-7,94;-0,8;-7,94;109,07;3,12;109,07;3,12;0;0;
37962;-0,8;-7,94;-0,8;-7,94;124,48;3,58;124,48;3,58;0;0;
37979;-47,91;-9,12;-47,91;-9,12;112,84;3,56;112,84;3,56;0;0;
37996;-91,9;-6,95;-91,9;-6,95;95,26;3,43;95,26;3,43;0;0;
38013;-88,25;-7,8;-88,25;-7,8;90,21;3,19;90,21;3,19;0;0;
38032;129,86;-12,44;129,86;-12,44;84,14;3,59;84,14;3,59;0;0;
38051;-189,1;-8,44;-189,1;-8,44;80,05;3,51;80,05;3,51;0;0;
38081;-135,16;-2,02;-135,16;-2,02;78;3,35;78;3,35;0;0;
38099;-108,37;-3,58;-108,37;-3,58;95,39;3,47;95,39;3,47;0;0;
38117;250,67;-5,61;250,67;-5,61;100,35;3,8;100,35;3,8;0;0;
38134;-38,96;-2,27;-38,96;-2,27;106,24;3,88;106,24;3,88;0;0;
38151;40,31;-17,85;40,31;-17,85;106,98;3,49;106,98;3,49;0;0;
38168;17,16;-7,65;17,16;-7,65;94,41;3,39;94,41;3,39;1;0;
38185;-89,84;-9,15;-89,84;-9,15;90,26;3,65;90,26;3,65;1;0;
38205;-6,4;-2,91;-6,4;-2,91;92,39;3,5;92,39;3,5;1;0;
38230;25,38;-11,15;25,38;-11,15;92,69;3,49;92,69;3,49;1;0;
38247;9,81;-16,81;9,81;-16,81;93,7;3,6;93,7;3,6;1;0;
38265;37,3;-3,6;37,3;-3,6;91,03;4,46;91,03;4,46;1;0;
38285;-208,12;-5,06;-208,12;-5,06;102,22;4,75;102,22;4,75;1;0;
38304;-84,64;-1,82;-84,64;-1,82;80,86;4,87;80,86;4,87;1;0;
38323;-84,64;-1,82;-84,64;-1,82;76,34;4,92;76,34;4,92;1;0;
38339;-70,47;-5,32;-70,47;-5,32;59,56;4,63;59,56;4,63;1;0;
38358;-98,72;-1,03;-98,72;-1,03;50,42;4,03;50,42;4,03;1;0;
38392;56,68;-6,4;56,68;-6,4;49,42;3,53;49,42;3,53;1;0;
38410;-92,97;-5,94;-92,97;-5,94;57,93;3,31;57,93;3,31;1;0;
38429;-4,56;-3,9;-4,56;-3,9;61,81;3,19;61,81;3,19;1;0;
38447;-13,47;-10,71;-13,47;-10,71;55,19;2,94;55,19;2,94;1;0;
38467;-29,5;-18,42;-29,5;-18,42;51,28;4,16;51,28;4,16;1;0;
38485;-15,2;-9,01;-15,2;-9,01;44,21;5,16;44,21;5,16;1;0;
38505;-26,69;-39,25;-26,69;-39,25;22,89;9,39;22,89;9,39;1;0;
38522;-26,69;-39,25;-26,69;-39,25;13,28;13,2;13,28;13,2;1;0;
38549;-15,55;-32,6;-15,55;-32,6;6,08;16,32;6,08;16,32;0;0;
38568;-18,68;-11,83;-18,68;-11,83;5,13;19,79;5,13;19,79;0;0;
38588;-21,62;-17,71;-21,62;-17,71;4,58;21,71;4,58;21,71;0;0;
38612;-17,74;-31,75;-17,74;-31,75;4,55;20,97;4,55;20,97;0;0;
38636;-19,93;-7,07;-19,93;-7,07;4,7;16,75;4,7;16,75;0;0;
38652;-10,97;-4,41;-10,97;-4,41;4,24;15,92;4,24;15,92;0;0;
38669;-15;-38,57;-15;-38,57;4,39;14,5;4,39;14,5;0;0;
38691;-19,17;-7,33;-19,17;-7,33;4,3;14,61;4,3;14,61;0;0;
38725;-24,73;-33,07;-24,73;-33,07;4,49;12,71;4,49;12,71;0;0;
38750;-12,63;-10,85;-12,63;-10,85;4,13;14,48;4,13;14,48;0;0;
38769;-19,2;7,02;-19,2;7,02;3,92;15,76;3,92;15,76;0;0;
38787;-13,37;-19,02;-13,37;-19,02;3,65;15,3;3,65;15,3;0;0;
38808;-8,79;-61,27;-8,79;-61,27;4,63;15,44;4,63;15,44;0;0;
38825;-26,55;20,71;-26,55;20,71;5,33;20,49;5,33;20,49;0;0;
38843;-26,55;20,71;-26,55;20,71;6,37;25,02;6,37;25,02;0;0;
38870;-15,21;20,66;-15,21;20,66;6,61;26,46;6,61;26,46;0;0;
38886;-17,46;-2,73;-17,46;-2,73;6,94;25,55;6,94;25,55;0;0;
38904;-17,88;-7,26;-17,88;-7,26;7,83;24,15;7,83;24,15;0;0;
38924;-16,93;-12,66;-16,93;-12,66;6,62;18,58;6,62;18,58;0;0;
38941;-16,93;-12,66;-16,93;-12,66;5,61;11,43;5,61;11,43;0;0;
38961;-183,41;0,2;-183,41;0,2;25,24;7,36;25,24;7,36;1;0;
38980;34,16;-1,69;34,16;-1,69;43,4;4,45;43,4;4,45;1;0;
38997;37,94;-2,71;37,94;-2,71;49,04;3,98;49,04;3,98;1;0;
39024;31,48;-1,44;31,48;-1,44;60,29;4,68;60,29;4,68;1;0;
39042;31,48;-1,44;31,48;-1,44;71,8;5,15;71,8;5,15;1;0;
39058;18,27;-5,92;18,27;-5,92;95,68;4,91;95,68;4,91;1;0;
39075;262,08;-6,54;262,08;-6,54;91,21;4,45;91,21;4,45;1;0;
39094;-40,31;-7,5;-40,31;-7,5;87,28;3,87;87,28;3,87;1;0;
39112;95,44;-12,11;95,44;-12,11;107,66;3,84;107,66;3,84;1;0;
39132;-47,69;-10,66;-47,69;-10,66;91,41;3,09;91,41;3,09;0;0;
39156;-141,94;-8,62;-141,94;-8,62;98,6;3,16;98,6;3,16;0;0;
39188;-3,9;-10,7;-3,9;-10,7;87,18;3,43;87,18;3,43;0;0;
39211;-98,4;-8,85;-98,4;-8,85;73,58;3,3;73,58;3,3;0;0;
39228;-6,97;-5,34;-6,97;-5,34;64,7;2,99;64,7;2,99;0;0;
39247;-52,01;-5,95;-52,01;-5,95;65,69;3,28;65,69;3,28;0;0;
39265;-57,4;-2,81;-57,4;-2,81;49,68;4,33;49,68;4,33;0;0;
39282;-57,4;-2,81;-57,4;-2,81;34,51;5,39;34,51;5,39;0;0;
39299;-8,69;-9,86;-8,69;-9,86;32,66;5,13;32,66;5,13;0;0;
39317;-139,88;-6,78;-139,88;-6,78;30,47;5,48;30,47;5,48;0;0;
39344;-30,42;-4,08;-30,42;-4,08;28,05;5,89;28,05;5,89;0;0;
39364;-164,68;-12,23;-164,68;-12,23;24,75;5,45;24,75;5,45;0;0;
39380;-164,68;-12,23;-164,68;-12,23;25,89;4,36;25,89;4,36;0;0;
39398;-48,72;-5,99;-48,72;-5,99;29,11;3,45;29,11;3,45;0;0;
39415;-69,49;-5,7;-69,49;-5,7;41,53;3,55;41,53;3,55;0;0;
39432;-10,21;-8,59;-10,21;-8,59;38,11;2,95;38,11;2,95;0;0;
39449;-4,07;-9,36;-4,07;-9,36;43,4;2,46;43,4;2,46;0;0;
39467;-23,22;-13,02;-23,22;-13,02;40,4;3,85;40,4;3,85;0;0;
39494;-17,04;-2,93;-17,04;-2,93;32,29;4,14;32,29;4,14;0;0;
39513;-27,04;-2,75;-27,04;-2,75;20,91;5;20,91;5;0;0;
39530;-29,19;-12,4;-29,19;-12,4;29,89;5,55;29,89;5,55;0;0;
39548;-7,83;-7,1;-7,83;-7,1;25,84;5,49;25,84;5,49;0;0;
39567;-77,82;-8,92;-77,82;-8,92;29,14;5,03;29,14;5,03;0;0;
39584;24,1;-3,36;24,1;-3,36;47,04;4,2;47,04;4,2;0;0;
39602;24,1;-3,36;24,1;-3,36;65,43;4,1;65,43;4,1;0;0;
39622;-10,53;-6,46;-10,53;-6,46;57,01;3,45;57,01;3,45;0;0;
39654;-24,64;-6,28;-24,64;-6,28;49,96;3,08;49,96;3,08;0;0;
39674;-13,73;45,7;-13,73;45,7;48,35;4,55;48,35;4,55;0;0;
39692;-10,36;-38,17;-10,36;-38,17;31,93;9,13;31,93;9,13;0;0;
39713;-21,63;-43,04;-21,63;-43,04;13,48;11,7;13,48;11,7;0;0;
39729;-21,57;-38,21;-21,57;-38,21;6,96;17,24;6,96;17,24;0;0;
39747;-15,69;-18,48;-15,69;-18,48;4,97;19,35;4,97;19,35;0;0;
39764;-19,11;-20,02;-19,11;-20,02;4,02;23,21;4,02;23,21;0;0;
39780;-19,11;-20,02;-19,11;-20,02;3,88;23,4;3,88;23,4;0;0;
39808;-18,5;4,18;-18,5;4,18;8,37;22,9;8,37;22,9;0;0;
39826;-0,46;-16,18;-0,46;-16,18;8,55;24,61;8,55;24,61;0;0;
39845;57,09;6,26;57,09;6,26;11,16;21,16;11,16;21,16;0;0;
39861;57,09;6,26;57,09;6,26;14,44;19,65;14,44;19,65;0;0;
39878;-15,44;-14,4;-15,44;-14,4;15,76;17,81;15,76;17,81;0;0;
39896;-13,92;-18,73;-13,92;-18,73;12,72;15,74;12,72;15,74;0;0;
39914;-16,3;-0,36;-16,3;-0,36;12,58;11,21;12,58;11,21;0;0;
39931;-9,65;-20,52;-9,65;-20,52;11,42;11,59;11,42;11,59;0;0;
39959;-15,47;-75,03;-15,47;-75,03;7,85;13,25;7,85;13,25;0;0;
39976;-16,67;-49,39;-16,67;-49,39;4,9;17,3;4,9;17,3;0;0;
39993;-18,03;-3,97;-18,03;-3,97;3,92;21,41;3,92;21,41;0;0;
40011;-27,15;-9,1;-27,15;-9,1;3,09;20,23;3,09;20,23;0;0;
40031;-18,34;6,14;-18,34;6,14;2,92;19,75;2,92;19,75;0;0;
40052;-16,77;-24,78;-16,77;-24,78;3,87;18,87;3,87;18,87;0;0;
40072;-26,56;-7,67;-26,56;-7,67;4,19;15,29;4,19;15,29;0;0;
40090;-18,29;-6,66;-18,29;-6,66;4,31;8,33;4,31;8,33;0;0;
40118;-18,41;-12,54;-18,41;-12,54;4,87;7,33;4,87;7,33;0;0;
40135;-10,26;-9,76;-10,26;-9,76;5,11;6,36;5,11;6,36;1;0;
40153;-15,22;-10,37;-15,22;-10,37;7,03;5,18;7,03;5,18;1;0;
40172;-32,3;-2,06;-32,3;-2,06;12,68;3,68;12,68;3,68;1;0;
40191;-16,33;-3,98;-16,33;-3,98;21,87;3,39;21,87;3,39;1;0;
40209;51,56;-10,48;51,56;-10,48;26,91;2,55;26,91;2,55;1;0;
40228;76,19;-8,78;76,19;-8,78;42,59;2,51;42,59;2,51;1;0;
40248;274,71;-10,39;274,71;-10,39;61,29;3,18;61,29;3,18;1;0;
40272;30,18;-7,51;30,18;-7,51;63,82;3,54;63,82;3,54;1;0;
40288;75,75;-11,01;75,75;-11,01;70,49;3,24;70,49;3,24;1;0;
40306;-3,57;-10,63;-3,57;-10,63;89,5;3,83;89,5;3,83;1;0;
40325;-150,47;-6,92;-150,47;-6,92;104,51;4,38;104,51;4,38;1;0;
40344;100,93;-6,28;100,93;-6,28;118,34;4,17;118,34;4,17;0;0;
40370;-7,09;-22,05;-7,09;-22,05;110,33;4,43;110,33;4,43;0;0;
40394;-24,23;-4,18;-24,23;-4,18;111,91;5,31;111,91;5,31;0;0;
40412;-19,03;-31,88;-19,03;-31,88;93,42;6,18;93,42;6,18;0;0;
40443;-29,45;-112,8;-29,45;-112,8;62,45;15,46;62,45;15,46;0;0;
40463;-26,05;63,2;-26,05;63,2;42,81;20,78;42,81;20,78;0;0;
40479;-11,04;48,21;-11,04;48,21;16,75;25,74;16,75;25,74;0;0;
40495;-21,61;-25,89;-21,61;-25,89;7,66;28,73;7,66;28,73;0;0;
40513;-46,41;-19,81;-46,41;-19,81;6,82;31,74;6,82;31,74;0;0;
40531;-19,98;-6,04;-19,98;-6,04;32,85;26,72;32,85;26,72;0;0;
40549;253,22;-14,83;253,22;-14,83;53,35;18,84;53,35;18,84;0;0;
40566;-136,21;-1,8;-136,21;-1,8;73,35;14,85;73,35;14,85;0;0;
40594;-45,67;-10,25;-45,67;-10,25;78,97;9,4;78,97;9,4;0;0;
40615;-34,16;-7,98;-34,16;-7,98;101,93;5,6;101,93;5,6;0;0;
40634;-31,71;-2,4;-31,71;-2,4;91,12;3,44;91,12;3,44;0;0;
40653;-159,21;-14,4;-159,21;-14,4;80,75;3,01;80,75;3,01;0;0;
40669;31,43;-1,99;31,43;-1,99;58,03;3,07;58,03;3,07;0;0;
40686;-13,33;-12,4;-13,33;-12,4;47,18;3,72;47,18;3,72;0;0;
40705;-8,17;-7,38;-8,17;-7,38;29,91;4,74;29,91;4,74;0;0;
40724;-16,81;-0,79;-16,81;-0,79;19,21;12,2;19,21;12,2;0;0;
40752;-17,06;7,98;-17,06;7,98;15,7;15,08;15,7;15,08;0;0;
40772;-23,05;-13,47;-23,05;-13,47;10,67;15,23;10,67;15,23;0;0;
40791;-13,72;-12,99;-13,72;-12,99;8,72;15,88;8,72;15,88;0;0;
40808;-19,94;-0,42;-19,94;-0,42;8,57;16,27;8,57;16,27;0;0;
40824;-23,97;-15,15;-23,97;-15,15;7,96;14,03;7,96;14,03;0;0;
40842;-23,97;-15,15;-23,97;-15,15;8,54;9,77;8,54;9,77;0;0;
40861;-22,56;21,55;-22,56;21,55;7,26;11,77;7,26;11,77;0;0;
40884;-6,57;-52,18;-6,57;-52,18;5,77;14,14;5,77;14,14;0;0;
40914;-4,09;-7,67;-4,09;-7,67;6,86;15,53;6,86;15,53;0;0;
40931;-18,86;9,69;-18,86;9,69;7,41;16,29;7,41;16,29;0;0;
40948;-6,72;-5,82;-6,72;-5,82;7,34;15,76;7,34;15,76;0;0;
40966;-18,18;-26,51;-18,18;-26,51;6,66;12,94;6,66;12,94;0;0;
40982;-18,18;-26,51;-18,18;-26,51;6,88;11,43;6,88;11,43;0;0;
40999;-13,73;-8,98;-13,73;-8,98;5,89;7,57;5,89;7,57;0;0;
41015;-9,09;-8,58;-9,09;-8,58;5,34;5,57;5,34;5,57;0;0;
41034;-8,57;-17,64;-8,57;-17,64;4,99;4,36;4,99;4,36;0;0;
41061;-24,96;-9,9;-24,96;-9,9;4,17;4,17;4,17;4,17;0;0;
41080;-10,51;-5,35;-10,51;-5,35;3,99;3,77;3,99;3,77;0;0;
41097;-27,13;-9,26;-27,13;-9,26;4,37;3,28;4,37;3,28;0;0;
41116;-18,3;-7,43;-18,3;-7,43;4,46;3,33;4,46;3,33;0;0;
41135;-23,95;-7,64;-23,95;-7,64;4,27;3,53;4,27;3,53;0;0;
41152;-15,54;-3,04;-15,54;-3,04;4,2;3,26;4,2;3,26;0;0;
41171;-15,54;-3,04;-15,54;-3,04;4,21;3,32;4,21;3,32;0;0;
41190;-19,49;-14,03;-19,49;-14,03;3,95;3,81;3,95;3,81;0;0;
41215;-25,74;-18,09;-25,74;-18,09;3,98;5,65;3,98;5,65;0;0;
41232;-10,46;7,52;-10,46;7,52;4,02;9,97;4,02;9,97;0;0;
41252;-9,9;3,66;-9,9;3,66;4,58;9,93;4,58;9,93;0;0;
41270;-24,4;-9,38;-24,4;-9,38;4,79;10,52;4,79;10,52;0;0;
41287;-14,47;-6,78;-14,47;-6,78;5,09;9,79;5,09;9,79;0;0;
41305;-20,15;-10,49;-20,15;-10,49;5,53;8,71;5,53;8,71;0;0;
41323;-20,15;-10,49;-20,15;-10,49;5,47;6,48;5,47;6,48;0;0;
41342;-19,34;-3,09;-19,34;-3,09;5,07;4,46;5,07;4,46;0;0;
41370;-10,55;-5,23;-10,55;-5,23;4,8;3,39;4,8;3,39;0;0;
41388;-21,27;-10,91;-21,27;-10,91;4,17;3,66;4,17;3,66;0;0;
41405;-21,91;-4,38;-21,91;-4,38;3,78;3,75;3,78;3,75;0;0;
41421;-21,91;-4,38;-21,91;-4,38;3,47;3,69;3,47;3,69;0;0;
41440;-9,79;-2;-9,79;-2;3,26;3,42;3,26;3,42;0;0;
41459;-18,98;-7,31;-18,98;-7,31;3,52;2,72;3,52;2,72;0;0;
41477;-12,23;-3,37;-12,23;-3,37;3,14;2,67;3,14;2,67;0;0;
41494;-14,96;-13,44;-14,96;-13,44;3,09;2,62;3,09;2,62;0;0;
41523;-23,74;-3,72;-23,74;-3,72;3,37;2,63;3,37;2,63;0;0;
41542;-23,74;-3,72;-23,74;-3,72;3,76;2,55;3,76;2,55;0;0;
41559;-2,07;-4,37;-2,07;-4,37;4,41;2,49;4,41;2,49;0;0;
41577;-16,53;-14,02;-16,53;-14,02;4,54;2,69;4,54;2,69;0;0;
41594;-18,32;-5,59;-18,32;-5,59;4,28;3,16;4,28;3,16;0;0;
41611;-15,29;-8,94;-15,29;-8,94;4,1;2,95;4,1;2,95;0;0;
41628;-15,23;-11,58;-15,23;-11,58;3,78;2,75;3,78;2,75;0;0;
41648;-16,11;-11,59;-16,11;-11,59;3,42;3,05;3,42;3,05;0;0;
41674;-14,48;-10,85;-14,48;-10,85;3,05;2,77;3,05;2,77;0;0;
41692;-23,94;-6,57;-23,94;-6,57;4,25;3,13;4,25;3,13;0;0;
41711;-14,04;-10,94;-14,04;-10,94;4,81;2,71;4,81;2,71;0;0;
41728;-19,24;-8,15;-19,24;-8,15;4,74;2,76;4,74;2,76;0;0;
41745;-17,38;-9,09;-17,38;-9,09;4,31;2,29;4,31;2,29;0;0;
41764;-24,82;-7,63;-24,82;-7,63;4,01;2,46;4,01;2,46;0;0;
41783;-14,11;-12,29;-14,11;-12,29;3,48;2,47;3,48;2,47;0;0;
41821;-7,45;-5,93;-7,45;-5,93;2,94;2,53;2,94;2,53;0;0;
41849;-16,16;-8,93;-16,16;-8,93;2,78;2,39;2,78;2,39;0;0;
41868;-14,44;-7,04;-14,44;-7,04;2,89;2,41;2,89;2,41;0;0;
41887;-13,83;-8,1;-13,83;-8,1;3,1;2,47;3,1;2,47;0;0;
41905;-18,3;-8,64;-18,3;-8,64;3,65;2,29;3,65;2,29;0;0;
41925;-9,52;-8,31;-9,52;-8,31;3,82;1,99;3,82;1,99;0;0;
41941;-9,52;-8,31;-9,52;-8,31;4,24;1,79;4,24;1,79;0;0;
41958;46,28;-6,02;46,28;-6,02;12,73;1,92;12,73;1,92;0;0;
41975;-139,5;-10,75;-139,5;-10,75;34,5;2,01;34,5;2,01;0;0;
