Time;EMG1;EMG2;EMG3;EMG4;EMG1_F;EMG2_F;EMG3_F;EMG4_F;Note_R;Note_V;;Level 3;Joueur;Score;Notes hit;% Reussite R;Offset EMG1;Onset EMG1;% Reussite V;Offset EMG2;Onset EMG2
12;-23,06;-41,54;-10,13;-6,41;2,01;5,77;38,88;1,93;0;0;;;1;7700;74;43,43435;-16,56068;101,3681;31,31313;-40,20638;27,30774
34;-29,62;-47,67;-20,03;-4,14;2,12;6,11;31,02;2,24;0;0;;;2;4000;40;27,27273;-23,87237;43,93921;13,13131;-40,20638;14,5702
54;-23,52;-35,91;-16,52;-5,81;2,17;5,69;27,23;2,24;0;0;
73;-23,24;-29,81;-13,45;-9;1,95;5,98;14,52;2,43;0;0;
93;-21,78;-23,77;-19,95;-5,24;2,51;7,07;5,9;2,58;0;0;
111;-23,06;-43,67;-17,83;-7,45;2,66;7,52;2,69;2,63;0;0;
136;-26,35;-53,48;-18,61;-8,52;2,65;7,25;1,99;2,72;0;0;
153;-22,43;-52,61;-18,97;-1,06;2,3;6,97;1,96;2,46;0;0;
173;-27,14;-38,07;-19,56;-7,04;2,53;6,75;2,02;2,4;0;0;
191;-23,97;-43,26;-16,27;-6,53;2,59;6,34;2,01;2,22;0;0;
208;-25,49;-19,61;-17,51;-3,59;2,25;5,79;1,81;1,94;0;0;
228;-24,84;-46,34;-10,7;-4,33;1,93;5,35;2,38;1,64;0;0;
247;-22,97;-27,8;-19,65;-7,41;2,12;5,61;2,56;1,69;0;0;
265;-22,97;-27,8;-19,65;-7,41;2,42;6,63;2,49;1,65;0;0;
281;-24,5;-31,18;-18,83;-5,89;2,18;7,67;4,05;1,82;0;0;
300;-32,45;-33,91;-17;-9,84;2,45;8,2;4,37;1,8;0;0;
318;-19,12;-37,8;-15,63;-5,9;2,78;7,05;4;1,89;0;0;
336;-18,85;-38,33;-17,72;-6,44;2,97;7,2;3,63;1,9;0;0;
361;-26,7;-41,77;-29,57;-5,77;2,68;6,58;8,8;1,76;0;0;
385;-25,5;-23,37;-14,69;-9,35;2,48;6,4;8;1,95;0;0;
409;-21,51;-46,54;-14,17;-5,35;2,62;6,49;7,43;2,06;0;0;
432;-24,86;-41,68;-17,61;-6,03;2,08;6,13;7,77;2,15;0;0;
462;-26,21;-51,71;-18,16;-8,72;1,78;6,07;7,73;2,02;0;0;
484;-27,2;-33,95;-16,8;-9,82;1,67;6,6;3,6;2;0;0;
508;-28,17;-33,87;-12,9;-5,89;1,9;5,6;2,2;1,76;0;0;
531;-24,19;-41,55;-17,71;-5,58;1,96;5,14;2,01;1,56;0;0;
553;-20,46;-9,36;-20,79;-8,42;2,01;6,13;1,84;1,4;0;0;
572;-22,99;-38,02;-14,91;-10,18;2,13;6,44;1,74;1,25;0;0;
589;-24,45;-23,02;-13,31;-8,88;2,01;7,4;1,72;1,37;0;0;
606;-20,47;-40,08;-22,89;-7,06;2,07;6,72;1,82;1,4;0;0;
623;-20,47;-40,08;-22,89;-7,06;1,77;6,44;2,14;1,43;0;0;
641;-22,79;-32,85;-15,89;-7,96;1,68;8,9;2,25;1,31;0;0;
660;-24,68;-29,16;-12,43;-6,07;1,56;8,14;2,29;1,59;0;0;
678;-24,38;-46,18;-22,05;-6,64;1,74;8,17;2,6;1,76;0;0;
700;-23,04;-42,32;-17,72;-7,12;2,19;8,35;2,68;1,89;0;0;
718;-26,66;-37,59;-17,48;-4,18;2,24;9,13;3,48;2,15;0;0;
739;-19,15;-53,39;13,14;-7,93;2,38;8,7;8,4;2,17;0;0;
756;-27,82;-52,27;-48,63;-9,39;2,64;8,45;10,89;2,22;0;0;
776;-19,5;-23,85;-10,46;-8,04;2,78;9,13;14,62;2,07;0;0;
793;-23,57;-32,04;-21,02;-4,65;2,47;9,53;14,79;1,95;0;0;
813;-27,45;-27,92;-12,93;-10,36;2,44;8,54;14,45;1,98;0;0;
831;-20,61;-54,17;-16,28;-9,6;2,53;9,13;13,69;1,88;0;0;
852;-26,84;-27,23;-13,73;-8,23;2,47;9,5;8,31;1,99;0;0;
871;-28,42;-47,59;-17,12;-5,83;2,52;8,62;5,17;2,05;0;0;
890;-20,11;-23,52;-16,89;-5,33;2,34;8,83;2,43;2,06;0;0;
906;-24,69;-62,19;-17,54;-2,77;2,46;10,53;1,94;2,18;0;0;
922;-24,69;-62,19;-17,54;-2,77;2,32;11,75;1,81;2,33;0;0;
941;-21,12;-31,15;-18,57;-8,04;2,22;11,34;1,92;2,36;0;0;
958;-23,98;-38,91;-14,26;-8,13;1,98;11,09;1,86;2,38;0;0;
977;-25,5;-42,6;-18,21;-10,44;1,91;10,83;1,91;2,41;0;0;
995;-28,16;-31,81;-16,71;-5,95;2,02;10,26;1,98;2,28;0;0;
1013;-19,49;-44,63;-16,27;-9,14;2,06;8,09;1,87;2,16;0;0;
1033;-29,36;-42,23;-15,3;-8,74;2,37;6,88;1,65;1,85;0;0;
1052;-21,87;-38,94;-17,08;-7,5;2,67;5,42;1,42;1,81;0;0;
1069;-23,72;-27,14;-17,08;-7,4;2,8;5,2;1,45;1,75;0;0;
1087;-24,38;-44,03;-16,92;-8,29;2,8;4,93;1,54;1,58;0;0;
1106;-27,93;-46,29;-15,67;-7,77;2,6;5,48;1,52;1,81;0;0;
1122;-27,93;-46,29;-15,67;-7,77;2,51;6,44;1,55;1,85;0;0;
1141;-23,54;-46,75;-16,26;-6,26;2,23;6,34;1,51;1,72;0;0;
1159;-28,4;-56,72;-16,62;-8,14;2,09;7,19;1,81;1,72;0;0;
1177;-24;-35,02;-13,93;-7,86;2,26;6,46;1,51;1,66;0;0;
1194;-24,48;-40,74;-13,58;-4,01;2,12;6,31;1,63;1,73;0;0;
1213;-20,85;-29,28;-15,53;-7,81;2,08;5,88;1,66;1,79;0;0;
1232;-22,36;-45,02;-15,5;-7,29;2,05;6;1,73;1,61;0;0;
1253;-19,38;-39,61;-17,13;-3,71;2,27;5,96;1,64;1,72;0;0;
1269;-26,13;-35,59;-15,27;-7,29;2,12;5,36;1,77;1,74;0;0;
1289;-27,39;-49,18;-16,78;-8,97;2,18;5,53;1,9;1,87;0;0;
1306;-27,39;-49,18;-16,78;-8,97;2,3;6,03;1,97;1,88;0;0;
1324;-26,22;-28,9;-14,88;-5,44;2,2;6,16;2,19;1,67;0;0;
1343;-21,78;-37,83;-18,29;-12,05;2,11;6,36;2,18;1,91;0;0;
1361;-22,84;-33,3;-2,39;-8,4;1,91;6,86;3,83;1,93;0;0;
1380;-24,98;-51,52;77,72;-8,98;1,93;7,02;9,81;2,09;0;0;
1397;-20,09;-44,91;-107,49;-7,43;2,02;6,46;39,53;2,39;0;0;
1418;-25,85;-30,33;-16,2;-9,31;1,91;6,98;39,91;2,31;0;0;
1438;-27,27;-41,1;-2,04;-5,95;2;7,33;41,73;2,48;0;0;
1455;-21,18;-41,6;0,96;-8,51;1,8;6,65;44,3;2,23;0;0;
1474;-22,41;-47,65;-19,64;-9,73;1,8;6,97;43,37;2,07;0;0;
1492;-24,87;-39,29;-16,55;-3,81;1,78;6,47;26,89;1,96;0;0;
1510;-22,07;-49,44;-18,93;-10,85;1,68;5,86;7,05;1,92;0;0;
1530;-28,16;-27,07;-12,99;-7,93;1,87;5,62;6,56;1,96;0;0;
1548;-17,87;-43,99;-16,96;-2,51;1,92;6,26;3,48;1,88;0;0;
1567;-27,06;-33,54;-15,61;-8,05;2,17;5,94;1,9;2,05;0;0;
1584;-27,06;-33,54;-15,61;-8,05;2,3;5,45;1,87;2,26;0;0;
1607;-26,95;-45,24;-13,28;-7,04;2,59;5,87;2,03;2,03;0;0;
1625;-26,95;-45,24;-13,28;-7,04;2,6;6,55;2,13;1,95;0;0;
1648;-24,7;-28,99;-18,49;-9,32;2,53;5,52;2,06;1,89;0;0;
1665;-24,7;-28,99;-18,49;-9,32;2,6;5,34;2,06;1,63;0;0;
1683;-25,12;-42,22;-18,01;-8,2;2,44;5,26;2,07;1,34;0;0;
1701;-20,54;-36,49;-15,79;-7,43;2,49;5,42;2,11;1,34;0;0;
1720;-22,78;-52,95;-13,5;-7,85;2,25;5,19;2,01;1,59;0;0;
1737;-26,34;-32,28;-17,25;-7,57;2,1;5,3;1,85;1,87;0;0;
1754;-26,83;-40,45;-16,83;-7,3;2,64;5,23;1,94;1,86;0;0;
1776;-24,14;-31,33;-13,08;-7,96;2,53;4,9;2,08;1,97;0;0;
1796;-23,66;-47,77;-15,56;-5,75;2,46;5,88;1,85;2,15;0;0;
1812;-31,28;-34,27;-19,08;-3,51;2,63;5,95;1,99;1,91;0;0;
1832;-19,9;-33,17;-16,34;-7,04;3,74;5,11;1,83;1,87;0;0;
1852;-20,4;-41,07;-17,59;-8,82;3,8;4,17;2;1,77;0;0;
1871;-3,35;-35,03;-15,77;-6,71;5,16;5,11;1,99;2,07;0;0;
1888;-32,92;-36,78;-15,43;-5,43;6,55;5,24;2,08;2,18;0;0;
1908;-42,9;-53,39;-14,81;-5,07;7,11;4,96;2,11;2,4;0;0;
1924;-42,9;-53,39;-14,81;-5,07;7,28;5,48;2,16;2,39;0;0;
1942;-48,88;-39,4;-14,22;-8,87;8,35;7,62;2,22;2,41;0;0;
1959;-24,37;-44,23;-15,2;-13,26;8,8;7,54;2,13;2,5;0;0;
1977;-12,11;-47,23;-14,86;-4,91;8,1;8,72;1,99;2,43;0;0;
1994;-9,19;-22,52;-19,77;-6,71;10,03;9,65;2;2,43;0;0;
2011;3,04;-40,98;-14,11;-8,73;12,98;9,37;2,19;2,15;0;0;
2030;-24;-42,58;-17,5;-4,91;15,92;7,47;2,29;2,06;0;0;
2049;19,72;-46,13;-17,69;-4,61;17,95;6,59;2,19;2,11;0;0;
2068;-56,47;-32,04;-11,72;-6,32;18,32;6,87;2,36;1,97;0;0;
2085;-56,47;-32,04;-11,72;-6,32;18,86;5,98;2,56;1,9;0;0;
2108;-49,67;-45,99;-17,99;-8,61;18,28;5,24;2,33;1,84;0;0;
2124;-49,67;-45,99;-17,99;-8,61;16,06;5,32;2,16;1,76;0;0;
2144;-16,76;-44,19;-18,23;-10,58;13,59;5,52;2,1;1,8;0;0;
2161;-26,47;-33,11;-18,17;-3,75;12,27;5,97;2;1,82;0;0;
2180;18,15;-44,29;-13,42;-7,41;14,02;5,7;1,83;1,73;0;0;
2198;-61,34;-29,28;-18,33;-6,21;14,93;5,43;1,63;1,77;0;0;
2214;-22,65;-47,7;-12,14;-10,77;14,1;5,47;1,72;1,96;0;0;
2233;-24,3;-40,81;-19,02;-5,13;13,26;5,24;1,85;2,11;0;0;
2251;-29,88;-44,55;-15,52;-7,68;12,3;5,28;1,85;1,96;0;0;
2269;-24,55;-34,09;-18,61;-8,12;15,43;5,33;1,87;1,86;0;0;
2287;-27,44;-49,65;-16,99;-8,22;15,14;5,64;1,68;1,77;0;0;
2305;-27,44;-49,65;-16,99;-8,22;16,59;5,85;1,64;1,73;0;0;
2322;-24,89;-45,89;-17,82;-9,37;17,05;6,21;1,64;1,6;0;0;
2339;-22,82;-42,34;-16,52;-5,71;16,81;6,27;1,48;1,46;0;0;
2359;-22,78;-58,24;-16,11;-8,4;13,58;7,01;1,57;1,61;0;0;
2378;-23,24;-27,61;-14,94;-9,47;10,9;6,85;1,56;1,69;0;0;
2396;-24,33;-44,65;-18,89;-10,53;6,54;6,37;1,74;1,75;0;0;
2415;-25,11;-43,04;-15,33;-2,71;3,34;5,27;1,58;1,92;0;0;
2434;-23,21;-35,71;-11,54;-9,79;2,78;4,73;1,68;1,76;0;0;
2454;-15,93;-35,74;-18,07;-6,17;3,04;4,58;1,67;1,84;0;0;
2474;-22,4;-34,97;-20,05;-11,1;2,83;4,03;1,81;1,7;0;0;
2492;-22,13;-44,57;-18,3;-7,28;2,49;3,46;1,78;1,66;0;0;
2510;-28,82;-45,4;-14,09;-9,74;3,09;3,76;1,91;1,68;0;0;
2526;-17,79;-45,89;-17,09;-8,03;3,48;4,6;2,23;1,63;0;0;
2542;-17,79;-45,89;-17,09;-8,03;3,8;5,31;2,41;1,68;0;0;
2560;-23,97;-35,55;-18,62;-8,17;3,33;4,78;2,37;1,6;0;0;
2579;-27,38;-61,16;-17,18;-5,9;3,53;5,91;2,25;1,8;0;0;
2597;-23,15;-30,56;-15,28;-4,77;3,55;6,9;2,19;1,91;0;0;
2615;-23,76;-28,41;-13,99;-2,99;2,91;6,76;1,99;1,96;0;0;
2633;-24,76;-38,79;-17,61;-6,68;2,41;7,17;1,68;2,1;0;0;
2650;-26,11;-28,77;-16,58;-10,57;2,28;7,22;1,64;2,2;0;0;
2668;-19,87;-39,47;-16,79;-5,71;2,37;7,69;1,76;2,12;0;0;
2689;-28,36;-33,35;-16,55;-6,79;2,29;6,31;1,73;2,1;0;0;
2709;-21,53;-43,31;-15,29;-5,72;2,33;7,05;1,71;2,01;0;0;
2727;-25,65;-45,98;-20,81;-6,29;2,3;6,4;1,6;1,81;0;0;
2747;-23,76;-34,82;-16,74;-6,88;2,13;5,99;1,57;1,69;0;0;
2765;-23,76;-34,82;-16,74;-6,88;2,03;5,13;1,64;1,37;0;0;
2783;-23,95;-35,85;-15,33;-9,81;1,81;5,64;1,65;1,55;0;0;
2800;-26,7;-45,06;-16,24;-4,04;1,63;5,05;1,77;1,58;0;0;
2817;-28,16;-37,53;-18,36;-9,34;1,83;4,96;1,62;1,6;0;0;
2836;-20,44;-36,96;-18,08;-8,89;1,92;5,21;1,64;1,74;0;0;
2852;-25,18;-41,79;-21,09;-5,59;1,86;5,76;1,88;1,83;0;0;
2871;-21,2;-36;-13,76;-6,18;1,83;5,85;2,16;1,9;0;0;
2888;-22,13;-45,28;-15,15;-10,2;1,94;5,44;2,12;1,79;0;0;
2906;-27,8;-39,12;-17,24;-7,78;1,92;5,47;2,09;1,42;0;0;
2922;-27,8;-39,12;-17,24;-7,78;2,07;5,14;2,08;1,22;0;0;
2940;-17,99;-39,83;-15,2;-10,1;2,32;5,14;1,79;1,22;0;0;
2959;-26,37;-39,1;-17,5;-8,73;2,37;4,65;1,39;1,25;0;0;
2977;-21,98;-40,75;-15,96;-6,45;2,39;4,05;1,22;1,55;0;0;
2994;-19,83;-50,03;-19,17;-6,42;2,49;4,03;1,27;1,67;0;0;
3012;-24,49;-32,9;-18,8;-3,02;2,22;4,12;1,4;3,42;0;0;
3029;-21,77;-26,02;-12,74;-6,22;1,88;3,98;1,61;4,53;0;0;
3046;-24,86;-38,45;-21,06;-11,67;1,78;4,59;2,05;5,17;0;0;
3064;-24,86;-38,45;-21,06;-11,67;1,82;5,12;2,35;5,6;0;0;
3082;-19,29;-35,43;-13,59;0,68;1,91;5,38;2,68;6,48;0;0;
3101;-21,81;-47,23;-14,95;-16,72;1,97;5,22;2,73;7,71;0;0;
3118;-22,43;-35,22;-12,73;-15,97;2,12;4,67;2,55;7,23;0;0;
3137;-24,12;-40,29;-15,82;-20,17;1,91;4,6;2,39;7,14;0;0;
3154;-28,72;-29,74;-17,35;-4,97;2,12;4,97;2,13;7,14;0;0;
3173;-21,65;-31,73;-17,06;-3,14;2,13;5,56;1,96;6,91;0;0;
3190;-24,38;-48,44;-17,72;-14,44;1,99;5,53;1,71;6,11;0;0;
3207;-25,48;-42,71;-16,75;-9,58;1,85;5,78;1,75;4,35;0;0;
3225;-25,48;-42,71;-16,75;-9,58;1,79;6,07;1,79;4,12;0;0;
3244;-24,75;-45,55;-17,64;-4,44;1,87;5,79;1,77;3,89;0;0;
3262;-26,09;-42,28;-18,02;-10,1;1,73;4,92;1,82;3,99;0;0;
3280;-22,66;-43,05;-17,08;-7,41;1,83;4,44;1,66;3,71;0;0;
3300;-22,13;-30,89;-17,79;-3,37;1,91;4,79;1,82;3,79;0;0;
3318;-24,88;-39,71;-18,59;-4,72;1,88;4,3;1,92;3,46;0;0;
3336;-27,3;-38,81;-21,97;-4,73;1,96;4,36;1,92;3,13;0;0;
3351;-24,5;-44;-21,07;-2,58;1,88;4,33;2,03;2,62;0;0;
3370;-22,29;-33,4;-14,12;-1,17;1,9;4,8;3,3;2,25;0;0;
3390;-21,8;-47,37;-17,81;-4,68;1,77;5;3,46;2,26;0;0;
3409;-24,73;-42,18;-15,95;-7,47;1,9;4,1;3,37;1,79;0;0;
3428;-25,51;-40,92;-18,22;-8,88;1,92;3,85;3,37;1,76;0;0;
3448;-25,85;-48,45;-14,26;-8,45;1,72;4,05;3,28;1,96;0;0;
3468;-22,04;-44,72;-18,16;-3,11;1,78;4,22;2,41;1,77;0;0;
3483;-22,04;-44,72;-18,16;-3,11;1,68;3,56;1,89;1,55;0;0;
3502;-23,52;-40,15;-12,66;-11,12;1,61;4,06;2,02;1,58;0;0;
3520;-25,49;-33,15;-18,89;-6,71;1,4;3,82;1,93;1,56;0;0;
3540;-24,5;-29,98;-20,36;-5,17;1,35;4,04;1,89;1,57;0;0;
3556;-24,22;-43,34;-16,62;-8,73;1,35;3,88;1,88;1,51;0;0;
3577;-28,52;-35,62;-16,23;-11,09;1,75;3,07;3,11;1,93;0;0;
3595;-23,03;-47,72;-19,01;-7,18;1,82;3,41;3;1,74;0;0;
3613;-25,36;-37,34;-14,91;-8,59;1,95;4,14;2,97;1,84;0;0;
3631;-25,1;-41,59;-17,66;-4,91;1,94;4,05;3,15;1,9;0;0;
3651;-21,99;-32,76;-16,3;-6,5;1,94;4,32;2,47;1,84;0;0;
3670;-21,45;-41,08;-17,57;-5,42;1,88;4,67;1,66;1,86;0;0;
3687;-21,45;-41,08;-17,57;-5,42;1,51;4,75;1,83;1,94;0;0;
3707;-25,36;-39,87;-16,85;-8,82;1,33;4,01;1,95;2,14;0;0;
3729;-23,89;-37,39;-17,47;-9,36;1,32;3,81;1,72;1,87;0;0;
3747;-24;-30,64;-16,15;-3,68;1,16;3,79;1,62;1,83;0;0;
3765;-24;-30,64;-16,15;-3,68;1,22;3,62;1,55;2,09;0;0;
3783;-26,91;-34,48;-27,14;-4,43;1,29;4,21;1,87;2,11;0;0;
3802;-25,12;-42,27;8,72;-1,83;1,26;4,3;2,5;1,99;0;0;
3821;-21,17;-41,29;-41,31;-7,41;1,45;4,23;4,65;2,07;0;0;
3839;-23,78;-40,53;-13,64;-9,03;1,52;4,24;4,89;1,99;0;0;
3857;-25,14;-39,34;-15,54;-6,45;1,57;3,91;5,18;1,9;0;0;
3876;-24,71;-42,34;-21,71;-8,76;1,73;3,41;5,23;1,89;0;0;
3894;-26,28;-40,79;-16,31;-8,04;1,88;2,72;4,74;1,76;0;0;
3912;-25,03;-36,35;-15,78;-9,12;2,05;2,7;4,57;1,53;0;0;
3930;-23,17;-38,99;-18,81;-3,5;1,96;2,9;3,22;1,81;0;0;
3947;-23,6;-45,64;-20,44;-8,13;1,83;3,23;3,26;1,83;0;0;
3965;-23,6;-45,64;-20,44;-8,13;1,79;3,43;3,27;1,72;0;0;
3984;-20,22;-44,67;-16,27;-4,54;1,71;4,08;3,13;1,78;0;0;
4001;-26,22;-39,93;-14,26;-8,74;1,47;4,43;2,8;1,95;0;0;
4018;-23,77;-38,82;-19,69;-8,03;1,62;3,98;1,8;1,9;0;0;
4038;-23,79;-42,79;-13,76;-5,95;1,79;4,25;2,12;2,02;0;0;
4056;-24,33;-28,78;-17,57;-14,04;1,8;4,39;2,13;2,33;0;0;
4073;-21,83;-37,28;-18,69;-3,8;1,91;4,16;2,09;2,38;0;0;
4092;-23,18;-42,76;-18,05;-11,07;1,68;3,63;2,12;2,47;0;0;
4110;-23;-38,05;-15,21;-7,18;1,56;3,96;2,17;2,5;0;0;
4127;-26,49;-45,12;-14,39;-3,92;1,46;3,76;2,09;2,26;0;0;
4144;-26,49;-45,12;-14,39;-3,92;1,33;3,35;1,83;2,27;0;0;
4160;-25,85;-37,21;-18,77;-8,38;1,39;3,05;1,95;1,89;0;0;
4182;-23,85;-39,63;-15,49;-9,44;1,24;3,09;2,03;2,04;0;0;
4199;-24,68;-42,77;-15,06;-8,14;1,22;3,24;1,87;1,89;0;0;
4217;-22,01;-41,07;-16,37;-5,7;1,42;3,17;1,9;1,89;0;0;
4234;-23,97;-39,15;-15,34;-10,45;1,47;3,97;1,92;2,01;0;0;
4252;-29,88;-33,53;-14,55;-7,16;1,52;4,19;1,94;1,98;0;0;
4271;-20,93;-43,55;-16,77;-8,05;1,64;4,07;1,85;1,97;0;0;
4289;-24,48;-39,57;-17,81;-7,61;1,73;4,12;1,99;2,38;0;0;
4308;-26,56;-41,03;-15,71;-4,96;2,03;4,24;1,98;2,48;0;0;
4324;-26,56;-41,03;-15,71;-4,96;2,16;4,73;1,85;2,52;0;0;
4342;-23,44;-39,08;-20,67;-4,58;2,22;4,08;1,74;2,52;0;0;
4361;-24,89;-40,97;-75,96;-5,4;2,23;4,21;4,25;2,37;0;0;
4379;-21,75;-40,96;-33,32;-8,84;2,8;4,41;10,49;2,16;0;0;
4397;-27,77;-33,15;50,68;-7,78;3,32;4,75;17,24;1,75;0;0;
4415;-20,48;-38,9;-9,86;-5,79;4,61;4,25;19,72;1,6;0;0;
4432;-20,83;-35,96;-11,22;-6,1;4,68;4,04;20,23;1,59;0;0;
4452;-25,75;-47,96;-16,29;-11,69;4,71;4,11;20,05;1,71;0;0;
4470;-24,34;-30,91;-15,8;-9,39;4,5;4,39;13,54;1,95;0;0;
4489;-24,16;-35,46;-17,3;-4,38;3,85;4,63;12;1,91;0;0;
4509;-26,58;-37,6;-20,75;-9,72;2,66;4,57;4,26;1,89;0;0;
4528;-21,14;-45,68;-16,34;-7,66;2,01;4,5;3,37;2,09;0;0;
4545;-21,14;-45,68;-16,34;-7,66;1,82;4,44;3,02;2,16;0;0;
4562;-22,87;-33,05;-18,91;-8,17;1,79;4,29;2,82;1,93;0;0;
4581;-22,19;-17,04;-17,99;-10,11;1,76;4,97;2,58;2,22;0;0;
4597;-29,64;-52,01;-15,17;-10;1,87;5,89;2,07;2,18;0;0;
4616;-25,75;-26,5;-19,55;-8,09;2,75;7,61;1,84;2,27;0;0;
4635;-27,48;-41,06;-19,04;-10,1;3,11;8,44;2,74;2,1;0;0;
4655;-24,46;-65,27;-15,3;-2,99;3,46;10,13;2,65;1,92;0;0;
4672;-24,46;-65,27;-15,3;-2,99;3,86;11,37;2,5;1,67;0;0;
4689;-24,98;-33,7;-18,9;-4,24;4,45;10,51;2,72;1,87;0;0;
4708;-30,04;-37,34;-17,91;-5;4,25;10,34;2,71;1,76;0;0;
4727;-20,52;-54,88;-19,29;-9,39;4,17;10,21;1,91;1,76;0;0;
4747;-27,4;-17,07;-19,72;-5,7;4,14;10,15;1,98;1,7;0;0;
4766;-27,4;-17,07;-19,72;-5,7;4,18;8,99;2,1;1,69;0;0;
4787;-23,63;-42,95;-16,02;-7,58;4,21;7,3;2,29;1,8;0;0;
4804;-23,63;-42,95;-16,02;-7,58;4,55;7,03;2,39;1,63;0;0;
4821;-23,25;-39,8;-16,58;-5,53;4,63;6,98;2,21;1,87;0;0;
4839;-28,07;-34,67;-14,73;-4,75;4,93;6,38;2,17;2,41;0;0;
4858;-23,41;-50,11;-16;-4,72;5,04;7,46;2,06;2,83;0;0;
4876;-27,26;-42,19;-16,09;-6,19;5,92;7,26;2;2,75;0;0;
4894;-24,11;-33,44;-17,35;-4,97;6,19;7,45;1,74;2,72;0;0;
4914;-27,58;-32,1;-14,74;-3,35;6,21;8,35;1,41;2,78;0;0;
4931;-34,42;-50,55;-19,28;-2,64;5,73;7,72;1,53;2,85;0;0;
4949;-24,32;-30,07;-14,03;-7,91;5,31;8,65;1,68;2,29;0;0;
4967;-12,45;-33,38;-16,63;-2,3;6,03;9,06;1,84;2,17;0;0;
4984;-12,45;-33,38;-16,63;-2,3;6,29;10,52;1,88;2,07;0;0;
5003;-25,65;-47,31;-13,87;-5,62;6,13;9,87;2,07;2,06;0;0;
5023;-18,71;-49,36;-21,84;-4,96;6,44;10,89;2,28;1,75;0;0;
5042;-21,9;-43,32;-17,17;-3;6,47;11,7;2,25;1,67;0;0;
5060;-27,02;-31,99;-16,95;-10,84;6,67;10,35;2,15;1,84;0;0;
5076;-34,34;-29,52;-17,74;-8,04;5,58;9,38;2,15;1,98;0;0;
5096;-19,6;-11,69;-27,8;-9,56;4,87;9,88;2,41;1,9;0;0;
5114;-15,51;-40,92;-17,56;-10,36;4,78;10,6;2,07;1,87;0;0;
5132;-27,73;-37,24;-18,96;-8,21;4,49;9,24;1,83;1,67;0;0;
5151;-24,42;-47,36;-15,59;-10,9;4,7;8,58;1,97;1,71;0;0;
5171;-24,42;-47,36;-15,59;-10,9;5;8,57;2,06;1,67;0;0;
5191;-19,89;-47,22;-17,62;-2,74;5,52;7,29;2,18;1,82;0;0;
5208;-37,28;-43,19;-15,58;-3,11;5,4;7,59;2,13;2,16;0;0;
5224;-37,28;-43,19;-15,58;-3,11;5,8;8,77;2,35;2,5;0;0;
5244;-34,16;-39,66;-18,42;-9,87;5,74;9,81;2,57;2,7;0;0;
5264;-20,6;-49,81;-16,92;0,47;5,36;10,35;2,58;2,73;0;0;
5281;-31,13;-54,25;-15,65;-4,79;5,2;10,41;2,44;2,57;0;0;
5301;-20,94;-11,96;-13,95;-17,01;4,78;9,79;2,41;2,78;0;0;
5321;-23,29;-34,89;-18,43;8,05;5,06;9,74;2,27;3,65;0;0;
5343;-17,15;-43,46;-23,93;-16,81;5,29;9,68;2,72;7,82;0;0;
5362;-26,58;-18,33;-20,92;7,45;5,02;10,03;3,27;11,38;0;0;
5382;-34,24;-43,82;-7,65;-13,32;5,54;10,28;3,81;12,72;0;1;
5401;-37,28;-49,7;-17,91;-19,65;5,35;9,08;4,1;14,84;0;1;
5419;-22,72;-43,82;-20,35;15,91;4,95;8,85;4,67;16,75;0;1;
5438;-30,3;-30,51;-23,62;-1,26;5,4;8,31;5,17;20,83;0;1;
5459;-17,6;-39,81;-23,47;-38,51;5,65;8,6;5,04;19,43;0;1;
5477;-18,74;-63,55;-11,21;-69,31;5,53;8,28;4,53;21,28;0;1;
5495;-38,73;-45,65;-15,78;-17,89;5,21;8,8;4,65;20,81;0;1;
5513;-26,94;-50,01;-10,8;92,81;5,76;9,26;4,87;24,41;0;1;
5534;-26,34;-46,71;-16,76;13,53;5,91;10,11;3,78;20,94;0;1;
5552;-27,47;-29,46;-21,34;-5,88;5,58;10,49;3,88;19,49;0;1;
5570;-21,27;-36,82;-10,69;-3,16;5,61;9,75;3,74;25,43;0;1;
5590;-32,28;-40,32;-19,98;-12,66;5,86;11,45;3,38;23,13;0;1;
5609;-28,46;-32,33;-18,35;-2,23;5,35;11,72;2,99;22,9;0;1;
5627;-37,78;-47,89;-65,42;-5,52;5,28;10,48;8,89;18,06;0;1;
5644;-37,78;-47,89;-65,42;-5,52;5,25;9,42;15,03;15,87;0;1;
5662;-16,54;-17,25;8,46;-5,37;4,92;11,61;19,8;10,55;0;1;
5684;-12,03;-36,33;-28,22;-6,86;4,99;11,71;21,26;4,08;0;1;
5705;-25,15;-40,98;-18,07;-9,37;4,69;9,66;21,51;2,9;0;1;
5721;-21,89;-36,58;-15,77;-7,93;5,21;10,49;19,48;2,09;0;0;
5741;-24,06;-30,82;-19,33;9,35;4,89;11,07;13,17;2,42;0;0;
5759;-23,67;-28,08;-16,95;-2,18;4,58;11,64;5,83;3,61;0;0;
5782;-29,19;-26,37;-16,23;-11,49;4,68;11,48;3,49;4,03;0;0;
5801;-21,71;-32,06;-22,15;-8,08;4,72;11,24;2,35;3,88;0;0;
5823;-27,09;-42,54;-16,62;-1,99;4,45;9,85;1,99;3,53;0;0;
5842;-25,2;-19,8;-15,87;-7,63;4,48;10,8;2,05;2,36;0;0;
5861;-29,2;-23,48;-15,34;-12,9;4,81;9,5;2,17;2,11;0;0;
5879;-22,21;-38,88;-21,15;-7,77;4,88;8,65;2,27;2,12;0;0;
5900;-24,2;-35,52;-17,45;-6,7;4,55;8,44;2,02;2,28;0;0;
5916;-20,79;-44,99;-13,08;-6,69;4,6;8,47;2,24;2,27;0;0;
5935;-25,61;-40,31;-11,51;-6,89;4,3;7,35;2,08;2;0;0;
5953;-25,61;-40,31;-11,51;-6,89;3,97;5,63;1,84;1,76;0;0;
5972;-22,33;-48,08;-17,46;-9,9;3,62;5,96;1,74;1,68;0;0;
5991;-17,31;-35,01;-20,12;-6,29;3,37;6,66;1,66;1,54;0;0;
6010;-22,71;-42,73;-19,04;-3,24;3,43;6;1,6;1,66;0;0;
6030;-19,87;-38,55;-15,91;-5,86;4,08;5,52;1,62;1,66;0;0;
6049;-20,83;-30,03;-36,64;-8,88;4,2;5,69;7,21;1,77;0;0;
6067;-25,34;-39,38;-21,78;-5,17;4,35;5,32;11,09;2,15;0;0;
6084;-25,34;-39,38;-21,78;-5,17;4,07;4,85;14,98;2,53;0;0;
6103;-15,64;-52,04;-16,17;-4,97;4,01;5,11;14,85;2,58;0;0;
6120;-11,13;-53,75;-22,5;-8,27;3,84;5,79;15,08;2,44;0;0;
6138;-28,62;-30,3;-16,05;-4,08;3,8;7;13,31;2,43;0;0;
6155;-30,43;-43,27;-17,99;-3,76;4,07;7,66;6,73;2,38;0;0;
6174;-22,87;-34,54;-14,22;-7,51;3,95;8,4;2,82;2,17;0;0;
6191;-25,34;-43,55;-15,54;-6,4;3,9;8,2;1,61;2,07;0;0;
6208;-19,85;-47,73;-20,02;-11,58;4,03;7,72;1,73;2,06;0;0;
6226;-25,77;-39,43;-14,95;-7,65;3,37;7,85;1,58;2,17;0;0;
6243;-25,77;-39,43;-14,95;-7,65;2,99;7,98;1,8;2,23;0;0;
6259;-25,93;-41,77;-21,75;-6,32;3,01;6,78;1,8;1,97;0;0;
6277;-22,24;-35,43;-17,61;-9,7;3,57;7,01;1,82;2,01;0;0;
6296;-25,25;-28,52;-10,41;-2;3,73;7,56;1,95;1,94;0;0;
6314;-29,85;-43,62;-21,47;-8,48;3,52;6,51;1,96;2,09;0;0;
6334;-28,18;-42,93;-14,67;-3,37;3,65;5,67;1,99;2,24;0;0;
6352;-22,98;-35,26;-16,04;-6,45;3,57;5,17;1,86;2,11;0;0;
6370;-25,87;-41,62;-18,12;-9,13;3,02;5,22;1,95;1,91;0;0;
6389;-31,49;-32,74;-13,1;-9,74;2,54;5,43;1,94;2,08;0;0;
6409;-26,24;-35,42;-15,91;-7,31;2,52;4,35;1,61;2,01;0;0;
6429;-22,79;-41,63;-16,86;-7,59;2,3;4,97;1,67;1,98;0;0;
6451;-29,99;-38,42;-14,96;-6,66;2,32;5,42;1,67;1,76;0;0;
6468;-21,27;-53,26;-12,24;-5,95;2,6;5,84;1,73;1,84;0;0;
6486;-21,27;-53,26;-12,24;-5,95;2,94;5,97;1,77;1,69;0;0;
6506;-20,79;-37,11;-12,46;-11,27;2,91;6,66;1,9;1,66;0;0;
6525;-20,79;-37,11;-12,46;-11,27;3,13;7,75;1,9;1,5;0;0;
6541;-28,44;-37,59;-15,39;-6,45;3,12;7,15;1,74;1,71;0;0;
6558;-21,19;-36,53;-15,95;-7,99;2,83;6,81;1,8;1,81;0;0;
6576;-25,08;-40,49;-18,16;-8,93;2,62;6,17;1,98;1,97;0;0;
6593;-21,41;-35,99;-19,94;-8,06;2,63;6,14;1,99;1,92;0;0;
6611;-25,96;-36,96;-19,68;-8,95;2,26;5,04;2,29;1,82;0;0;
6631;-22,18;-42,72;-14,73;-5,08;1,96;4,39;2,4;1,71;0;0;
6647;-24,24;-33,7;-18,97;-6,27;1,73;4,15;2,46;1,71;0;0;
6665;-24,24;-33,7;-18,97;-6,27;1,69;4,42;2,41;1,84;0;0;
6683;-21,19;-34,96;-17,65;-11,34;1,84;5,28;2,27;1,98;0;0;
6702;-26,95;-45,38;-18,18;-8,11;2,04;5,21;2,2;1,97;0;0;
6722;-22,38;-36,49;-18,77;-6,56;1,92;4,98;1,94;2,04;0;0;
6740;-25,87;-42,95;-17,59;-8,76;2,19;4,93;1,85;1,96;0;0;
6757;-23,32;-39,53;-18,32;-5,67;2,33;4,53;1,83;1,86;0;0;
6777;-22,96;-32,52;-16,03;-6,94;2,17;4,2;1,82;1,72;0;0;
6794;-22,72;-46,47;-15,66;-5,69;1,79;3,23;1,59;1,56;0;0;
6811;-25,26;-40,51;-15,19;-1,21;1,69;4,25;1,75;1,72;0;0;
6832;-23,7;-53,44;-19,14;-8,38;1,89;5,14;1,93;1,63;0;0;
6849;-23,82;-48,12;-13,39;-10,46;1,88;5,85;2,11;1,75;0;0;
6867;-26,83;-34,11;-18,73;-7,57;2,06;6,22;2,03;1,68;0;0;
6881;-26,83;-34,11;-18,73;-7,57;2,33;6,6;1,97;1,73;0;0;
6898;-19,36;-37,35;-21,29;-4,82;2,35;6,37;2,01;1,83;0;0;
6917;-20,87;-48,32;-17,63;-6,05;2,35;5,67;1,86;1,97;0;0;
6938;-24,21;-38,68;-23,32;-6,7;1,97;5,05;2,05;1,96;0;0;
6956;-23,39;-35,3;-17,76;-4,98;1,79;4,56;2,39;1,93;0;0;
6982;-27,93;-43,14;-18,83;-5,46;1,78;4,15;2,38;2,39;0;0;
6999;-22,71;-36,81;-12,48;-7,35;1,67;3,88;2,21;2,15;0;0;
7017;-30,15;-36,91;-19,14;-5,32;1,73;4,06;2,22;2,19;0;0;
7037;-26,52;-43,7;-16,21;-8,99;2,11;3,92;2,31;2,33;0;0;
7054;-25,69;-47,24;-16,2;-6,21;2,24;4,25;1,78;2,3;0;0;
7074;-25,56;-28,72;-16,7;-3,05;2,24;4,98;1,61;2,02;0;0;
7094;-24,51;-41,5;-20,03;-7,66;2,17;5,23;1,64;1,86;0;0;
7112;-25,85;-39,35;-15,44;-12,55;2,28;4,88;1,62;1,91;0;0;
7132;-21,37;-40,47;-23,49;-5,61;1,85;4,37;1,63;1,88;0;0;
7150;-23,95;-39,77;-21,01;-6,07;1,66;4,22;1,69;2,08;0;0;
7171;-27,62;-41,26;-14,48;-7,74;1,79;3,9;1,79;2,13;0;0;
7190;-21,48;-48,49;-17,44;-9,07;1,7;3,87;1,72;1,94;0;0;
7208;-22,33;-39,6;-15,82;-7,05;1,79;4,23;1,74;1,85;0;0;
7227;-27,4;-36;-15,85;-4,18;1,77;3,9;1,99;1,78;0;0;
7248;-23,31;-41,09;-17,49;-2,11;1,78;4,13;1,98;1,94;0;0;
7267;-25,86;-40,99;-12,85;-8,03;1,99;3,86;2,1;1,94;0;0;
7284;-25,86;-40,99;-12,85;-8,03;1,99;3,74;2,29;2,23;0;0;
7304;-25,56;-38,84;-19,32;-5,7;1,9;3,61;2,34;2,21;0;0;
7322;-28,17;-31,59;-17,45;-9,37;2,02;3,95;2,29;2,38;0;0;
7340;-26,21;-32,41;-18,57;-7,91;2,67;5,07;1,96;2,16;0;0;
7358;-21,88;-38,2;-13,99;-3,09;2,71;5,02;2,02;2,02;0;0;
7378;-22,67;-41,64;-18,89;-11,51;2,56;5,14;1,84;2,12;0;0;
7396;-22,67;-41,64;-18,89;-11,51;2,41;4,87;1,72;2,24;0;0;
7415;-20,46;-39,38;-15,92;-9,76;2,31;4,99;1,62;2,06;0;0;
7433;-22,53;-32,84;-14,68;-12,07;1,58;3,65;1,67;2,17;0;0;
7451;-27,32;-58,1;-17,19;-7,04;1,43;4,33;1,76;2,3;0;0;
7471;-26,22;-26,44;-14,27;-5,54;2,07;5,83;1,77;2,23;0;0;
7488;-29,1;-51,71;-16,62;-5,17;2,55;6,63;1,79;2,02;0;0;
7507;-27,88;-41,09;-12,69;-6,7;3,14;6,96;1,91;1,84;0;0;
7525;-27,88;-41,09;-12,69;-6,7;3,65;7,07;1,99;1,76;0;0;
7542;-15,28;-39,2;-20,18;-8,74;3,93;7,13;2,12;1,72;0;0;
7559;-15,34;-42,32;-16,67;-7,05;7,54;5,76;2,18;1,81;0;0;
7577;-35,24;-43,79;-17,28;-7,85;9,32;4,62;2,3;1,86;0;0;
7596;-24,92;-37,14;-15,51;-5,89;10,04;3,44;2,38;1,71;0;0;
7615;-24,31;-37,64;-18,71;-9,53;9,66;3,09;2,23;1,84;0;0;
7632;-21,85;-41,97;-19,65;2;9,28;3,01;2,21;2,01;0;0;
7651;-26,41;-45,6;-11,63;14,21;7,27;2,77;2,08;3,88;0;0;
7670;-37,84;-30,6;-15,08;-2,89;5,09;4,85;1,99;6,61;0;0;
7688;-13,44;-22,33;-19,4;6,38;4,99;6,11;1,97;9,77;0;0;
7708;-22,65;-36,22;-19,61;7,73;5,87;8,97;2;11,73;0;0;
7725;-22,65;-36,22;-19,61;7,73;7,32;11,68;2,15;13,62;0;0;
7742;-16,98;-23,93;-20,68;57,76;7,91;13,31;2,61;16,27;0;0;
7759;-13,2;-38,63;-15,61;3,16;8,21;14,23;2,56;15,83;0;0;
7776;-13,4;-49,43;-19,57;13,08;6,76;14,05;2,53;14,34;0;0;
7795;-24,51;-48,85;-18,7;-26,67;6,29;13,27;2,7;13,07;0;1;
7813;-27,22;-53,56;-17,79;-3,51;5,59;11,26;2,79;12,61;0;1;
7832;-27,38;-41,51;-21,27;-49,64;4,88;9,87;2,8;16,86;0;1;
7849;-25,75;-39,95;-15,55;-12,22;4,28;7,66;3,4;16,06;0;1;
7868;-22,54;-44,24;-15,25;-12,08;3,22;6,84;4,08;17,32;0;1;
7884;-22,54;-44,24;-15,25;-12,08;2,6;5,53;4,63;18,46;0;1;
7904;-21,4;-17,55;-21,05;27,91;2,23;5,41;4,97;22,28;0;1;
7923;-25,64;-33,42;-12,39;22,88;2,16;6,65;5,15;21,23;0;1;
7943;-26,86;-29,03;-14,71;1,12;2,28;6,75;5,1;20,29;0;1;
7962;-22,98;-21,39;-21,64;-30,03;2,89;8,17;4,49;18,97;0;1;
7980;-19,94;-20,96;-14,03;11,86;3,61;9,5;4,53;18,96;0;1;
7997;-31,99;-50,69;-20,97;16,88;4,05;11,09;4,03;18,66;0;1;
8015;-18,37;-35,3;-15,25;-14,7;4,39;9,78;3,92;18,78;0;1;
8035;-34,64;-39,78;-12,76;-2,21;4,88;10,4;3,45;15,7;0;1;
8056;-28,82;-18,48;-20,9;-7,08;5,47;10,32;4,94;13,27;0;1;
8076;-10,51;-27,74;-59,82;-10,08;5,56;9,36;27,44;8,14;0;1;
8096;-31,17;-38,29;-11;-3,98;5,69;8,72;28,58;3,91;0;1;
8115;-21,72;-49,78;-14,61;-6,42;5,79;9;28,46;2,77;0;1;
8134;-23,14;-47,84;-16;-18,41;4,61;9,82;28,13;2,75;0;0;
8155;-3,66;-45,47;-15,72;3,16;4,93;9,03;24,44;3,17;0;0;
8174;-25,26;-43,18;-15,91;-0,5;4,93;8,94;8,82;3,58;0;0;
8193;-28,69;-55,88;-18,63;-11,44;4,94;8,91;2,16;3,58;0;0;
8211;-36,61;-30,36;-21,46;-8,09;4,83;9,04;1,92;3,63;0;0;
8231;-10,8;-42,05;-14,46;-5,07;6,03;9,23;2,28;3,8;0;0;
8250;-19,51;-74,37;-18,57;-9,41;5,83;9,34;2,34;3,68;0;0;
8271;-28,38;-27,54;-13,76;-6,3;5,32;9,71;2,08;2,83;0;0;
8292;-19,03;-33;-12,43;-7,92;5,22;9,87;2,33;2,46;0;0;
8312;-24,54;-41,64;-16,28;-9,94;5,31;9,71;2,47;2,13;0;0;
8330;-18,86;-51,89;-15,31;-5,7;5,06;10,56;2,26;2,09;0;0;
8350;-18,08;-38,02;-14,92;-5,8;5,24;9,85;2,07;1,95;0;0;
8368;-25,44;-39,36;-4,15;-7,53;5,92;8,77;3,22;1,82;0;0;
8389;-16,86;-20,27;-17,45;-8,4;5,97;8,42;3,37;2,05;0;0;
8409;-18,5;-51,57;7,12;-6,67;6,07;10,1;19,35;2,06;0;0;
8427;-35,31;-41,23;258,57;-4,8;5,54;8,68;35,67;2,19;0;0;
8447;-25,43;-32,53;-35,06;-6,44;5,26;8,89;42,95;2,11;0;0;
8467;-21,58;-29,43;18,14;-7,75;5,49;9,65;42,99;2,02;0;0;
8483;-21,58;-29,43;18,14;-7,75;5,99;9;44,1;1,76;0;0;
8500;-27,75;-39,93;-14,81;-7,25;5,85;9,26;35,7;1,64;0;0;
8519;-19,72;-35,92;-13,68;-8,58;5,87;8,52;25,86;1,53;0;0;
8537;-22,52;-37,28;-16,58;-5,73;6,12;9,32;7,82;1,66;1;0;
8554;-26,92;-57,3;-19,8;-8,16;5,28;9,38;4,48;1,76;1;0;
8574;-26,84;-57,37;-20,13;-5,4;4,41;9,66;3,3;2,15;1;0;
8593;-21,74;-22,93;-16,08;-10,57;4,15;8,41;2;2,26;1;0;
8611;-20,81;-37,88;576,7;4,01;4,17;8,39;26,44;2,52;1;0;
8634;-26,07;-62,67;-21,79;0,32;3,68;8,56;55,2;2,87;1;0;
8653;-21,18;-35,45;74,78;-7,89;3,44;7,57;83,38;3,01;1;0;
8670;-21,39;-37,68;-60,86;-1,98;3,45;7,09;99,23;3,48;1;0;
8685;-21,39;-37,68;-60,86;-1,98;3,59;7,17;115,15;3,85;1;0;
8704;-25,58;-30,66;-9,86;-4,31;3,15;7,03;132,83;3,96;0;0;
8725;-25,41;-37,09;105,16;-10,19;3,14;6,46;112,33;3,53;0;0;
8744;-19,35;-19,05;22,82;-9;2,98;6,29;118,57;3,31;0;0;
8764;-27,49;-57,92;-353,7;-17,86;3,28;6,67;119,45;3,42;0;0;
8784;-22,05;-44,99;27,46;-20,02;3,37;6,72;129,85;3,43;0;0;
8800;-23,4;-36,91;12,22;-7,36;3,55;6,02;131,88;3,39;0;0;
8818;-26,46;-29,78;79,04;-11,08;3,95;6,66;143,22;3,92;0;0;
8837;-19,28;-40,58;-28,94;-9,46;4,33;8,06;124,08;3,91;0;0;
8857;-28,23;-41,35;-9,25;-6,5;4,94;8,59;125,5;4,26;0;0;
8874;-24,15;-42,53;23,26;-8;5,15;8,46;125,55;4,21;0;0;
8892;-22,72;-34,32;-114,91;-2,65;4,95;8,33;118,47;3,88;0;0;
8912;-22,16;-31,88;111,58;-10,62;5,82;10;120,6;3,68;0;0;
8929;-23,88;-34,79;-241,95;-10,84;5,76;9,05;115,97;3,41;0;0;
8947;-25,01;-40,03;101,14;-5,14;5,28;7,75;111,55;3,38;0;0;
8969;-23,93;-39,01;-62,94;-9,29;4,66;7,79;94,12;3,03;0;0;
8990;-24,85;-37,82;-55,09;-9,12;4,46;7,4;77,79;2,86;0;0;
9008;-23,77;-44,94;-21,42;-8,97;4,03;7,08;57,05;2,58;0;0;
9026;-23,77;-44,94;-21,42;-8,97;2,92;6,13;41,68;2,29;0;0;
9044;-23,19;-43,63;-19,33;-1,9;2,45;5,33;23,45;2,08;0;0;
9065;-22,9;-32,28;-14,12;16,47;2,12;4,98;12,45;5,31;0;0;
9084;-23,16;-45,05;-15,75;-17,03;2,28;5,64;7,19;8,25;0;0;
9103;-23,22;-45,18;-25,04;-1,08;2,18;6;3,41;11,89;0;0;
9120;-23,78;-51,28;-14,91;-0,03;2,15;5,92;3,15;13,46;0;0;
9138;-21,7;-41,25;-12,87;-15,74;2,62;5,48;3,13;17,03;0;0;
9155;-23,86;-35,34;-14,92;-13,19;3,14;5,35;3,09;15,18;0;0;
9174;-27,24;-46,67;-18,85;-9,33;2,99;4,86;3,12;13,69;0;0;
9191;-27,09;-29,04;-16,89;-4,07;3,14;4,62;2,39;9,84;0;0;
9208;-21,79;-35,21;-20,23;-4,84;2,92;4,37;2,32;7,74;0;0;
9225;-21,79;-35,21;-20,23;-4,84;2,72;4,2;2,52;4,74;0;0;
9241;-24,75;-40,38;214,53;-5,26;2,15;3,91;37,78;3,66;0;0;
9258;-25,75;-37,47;-69,41;-12,3;1,98;4;53,43;3,5;0;0;
9274;-21,02;-31,47;-43,35;-4,03;1,82;4,02;65,24;3,41;0;0;
9291;-22,53;-38,84;-13,54;-8,4;1,82;4,18;66,6;3,4;0;0;
9307;-26,73;-41,35;-7,61;-9,24;2;4,76;66,92;3,29;0;0;
9324;-26,73;-41,35;-7,61;-9,24;2,32;5,6;63,87;3,12;0;0;
9343;-25,84;-43,33;-22,01;-10,75;2,48;5,97;26,31;2,36;0;0;
9362;-26,13;-40,21;-17,9;-7,05;2,41;5,82;9,04;1,92;0;0;
9382;-27,48;-46,09;-22,06;-13,66;2,2;5,4;4,55;1,98;0;0;
9399;-21,18;-39,03;-15,28;-3,51;1,97;4,69;4,6;2,2;0;0;
9419;-23,96;-38,07;-22,52;-8,48;1,64;3,61;4;2,24;0;0;
9439;-24,62;-41,59;-21,09;-4,11;1,36;3,42;2,84;1,79;0;0;
9457;-24,54;-40;-15,24;-9,02;1,69;3,7;2,68;1,72;0;0;
9474;-24,82;-34,75;-14,48;-3,98;1,76;4,08;2,12;1,57;0;0;
9494;-27,4;-41,21;-23,88;-7,28;2,34;4,36;2,33;1,49;0;0;
9511;-24,87;-34,62;-22,9;-3,96;2,51;4,61;2,3;1,54;0;0;
9534;-20,36;-43,49;-44,04;-11,12;3,59;4,5;7,76;1,85;0;0;
9554;-10,01;-36,1;392,06;-7,16;7,08;4,19;35,64;2,06;0;0;
9572;-52,27;-43,28;107,15;-9,34;10,65;4,08;58,95;2,24;0;0;
9591;-33,26;-40,9;-130,98;-13,82;14,55;3,96;84,41;2,54;0;0;
9608;-17,11;-44,28;-49,67;-9,33;19,13;3,79;108,38;3,21;0;0;
9625;-17,11;-44,28;-49,67;-9,33;23,79;3,49;130,76;3,69;0;0;
9641;-13,65;-39,81;-70,37;-2,29;27,53;5,4;148,85;3,93;0;0;
9660;-81,39;-29,76;-45,07;-0,94;35,51;5,67;135,01;3,9;0;0;
9677;-79,66;-41,16;221,05;-3,72;35,73;5,89;129,89;4,6;0;0;
9695;40,34;-32,23;-226,8;6,39;42,3;6,25;122,69;4,49;0;0;
9714;131,68;-30,95;-360,62;-6,55;51,7;6,73;124,16;4,76;1;0;
9734;-6,34;-34,75;-151,57;-5,29;52,83;6,42;121,52;4,7;1;0;
9753;-24,43;-44,55;141,97;-15,33;49,89;5,71;126,54;4,24;1;0;
9772;-1,33;-54,67;-20,71;-3,67;47,34;5,44;119,62;4,02;1;0;
9790;-49,59;-39,08;-212,82;-12,51;45,37;7,06;112,16;4,08;1;0;
9808;119,07;-17,27;-122,63;-16,32;44,44;7,72;109,79;3,47;1;0;
9825;119,07;-17,27;-122,63;-16,32;38,56;8,33;108,48;3,56;1;0;
9842;48,17;-38,74;-194,8;-11,09;43,34;8,76;110,44;3,51;1;0;
9863;47,33;-38,42;-208,26;-6,8;47,89;8,03;104,89;3,62;1;0;
9882;-13,75;-37,05;56,48;-7,37;56,86;6,8;122,69;3,04;1;0;
9905;-19,46;-40,96;-24,57;-10;56,34;5,92;124,27;2,91;1;0;
9924;-81,57;-38,44;1,05;-9,62;58,44;5,03;128,97;2,85;1;0;
9942;1,93;-33,2;-51,17;-5,7;57,96;4,16;113,5;2,74;1;0;
9959;14,84;-46,43;7,38;-8,08;53,1;4,38;111,72;2,49;1;0;
9979;-38,34;-49,76;-16,55;5,11;56,76;4,53;83,07;2,63;1;0;
9996;-17,68;-42,34;-15,67;7,34;55,16;4,23;61,61;8,42;1;0;
10014;-246,74;-51,53;-12,4;49,9;65,38;4,58;27,01;16,32;1;0;
10032;-110,89;-51,4;-15,73;-19,82;70,18;5,1;21,44;19,06;1;0;
10051;-1,54;-35,27;-15,83;0,99;69,02;5,23;10,77;19,39;0;0;
10070;-16,03;-41,98;-20,45;-39,92;67,36;5,14;2,54;19,44;0;0;
10089;17,43;-33,5;-9,24;-34,69;63,23;5,13;2,51;16,25;0;0;
10107;16,47;-46,12;-17,98;-0,29;53,3;4,96;3,16;13,94;0;0;
10124;16,47;-46,12;-17,98;-0,29;51,12;4,87;3,95;15,83;0;0;
10143;-45,83;-38,7;-26,34;-5,01;54,01;4,69;6,34;16,44;0;0;
10161;7,94;-44,21;-16,6;-3,14;46,09;4,13;6,72;16,76;0;0;
10180;-69,85;-43,22;-9,94;-4,98;48,63;4,01;6,9;14,35;0;0;
10199;-71,27;-38,67;-17,15;-6,16;53,46;4,03;6,78;12,55;0;0;
10218;-147,37;-43,3;-20,67;-33,12;53,52;3,86;6,21;9,78;0;0;
10245;-14,04;-42,01;-16,81;-7,78;53,55;3,36;4,88;9,13;0;0;
10264;-27,03;-34,33;-14,68;-3,04;52,71;4,04;3,42;8,37;0;0;
10282;-109,84;-49,66;-17,68;-1,53;52,49;4,34;3,57;7,15;0;0;
10300;58,1;-31,92;-16,06;-6,31;50,29;4,43;2,91;6,4;0;0;
10317;-24,77;-45,76;-16,11;-9,13;48,85;4,69;2,76;4,1;0;0;
10334;-117,23;-38,7;-15,9;-5,85;46,81;5,05;2,3;3,3;0;0;
10352;-129,26;-36,11;-18,18;-5,97;54,51;4,34;2,08;2,04;0;0;
10369;1,62;-36,48;-26,09;-10,11;55,4;3,98;2,06;1,98;0;0;
10388;40,81;-38,67;-6,92;-6,22;50,68;4,06;2,75;2,11;0;0;
10406;49,87;-44,74;-17,61;-6,18;49,23;3,78;2,94;2;0;0;
10426;-10,93;-33,3;-9,21;-11,67;47,5;4,06;3,11;2,23;0;0;
10446;-29,36;-37,1;-15,16;-10,23;40,65;3,72;7,17;2,1;0;0;
10466;-21,12;-35,21;15,89;-1,26;24,16;4,25;8,47;2,23;0;0;
10483;-21,12;-35,21;15,89;-1,26;19,58;4,45;9,53;2,48;0;0;
10501;-27,23;-39,77;-36,98;-8,88;17,22;4,2;18,01;2,29;0;0;
10518;1,53;-41,46;34,38;-8,63;12,55;3,51;19,52;2,04;0;0;
10538;-32,71;-37,67;-54,8;-4,98;13,01;2,87;27,03;2,08;0;0;
10557;-45,46;-42,78;-15,58;-8,57;14,46;3,03;34,86;2,13;0;0;
10576;-17,84;-39,82;-85,14;-9,56;17,39;2,79;48,23;1,92;0;0;
10593;-14,33;-41,46;-10,67;-2,45;18,34;2,26;44,97;1,78;0;0;
10612;-21,85;-39,26;-13,94;-10,38;15,43;2,68;39,77;1,79;0;0;
10629;-41,19;-33,09;-15,88;-8,11;13,59;2,81;35,43;1,76;0;0;
10646;-41,19;-33,09;-15,88;-8,11;10,04;2,61;24,45;1,75;0;0;
10667;-10,59;-42,75;-18,68;-9,75;8,93;2,47;14,52;1,71;0;0;
10684;-10,59;-42,75;-18,68;-9,75;7,64;2,64;4,72;1,76;0;0;
10703;-23,04;-45,44;-19,26;-9,23;5,7;3,34;3,49;1,78;0;0;
10723;-26,48;-41,34;-15,06;-6,5;5,44;4,07;4,27;1,68;0;0;
10743;-22,51;-38,06;21,14;-10,84;4,63;3,99;23,51;2,24;0;0;
10760;-12,58;-39,87;40,54;-6,08;3,12;4,06;35,55;2,29;0;0;
10778;-31,75;-35,03;-20,84;-4,09;2,27;4,2;42,6;2,35;0;0;
10794;-28,55;-42,84;-0,07;-10,52;3,22;3,99;48,32;2,26;0;0;
10811;-20,08;-66,88;-57,76;-11,1;3,51;4,56;61,9;2,45;0;0;
10830;-26,32;-37,06;7,04;-10,73;3,42;4,95;59,09;2,29;0;0;
10849;-23,95;-26,55;-25,19;-6,31;3,67;5,76;51,27;2,17;0;0;
10866;-24,88;-40,85;-13,93;-5,94;3,01;5,84;36,8;2,15;0;0;
10884;-24,88;-40,85;-13,93;-5,94;2,45;5,73;33,2;2,19;0;0;
10901;-24,5;-39,6;-15,65;-19,77;1,68;5,56;22,94;2,45;0;0;
10918;-26,77;-39,32;-18,06;-6,62;1,8;4,53;10,81;2,29;0;0;
10937;-23,6;-39,53;-18,05;-14,03;1,65;3,66;2,98;2,43;0;0;
10956;-21,06;-36,25;-11,87;-2;1,66;3,44;2,26;3,06;0;0;
10973;-26,26;-40,81;-13,87;-2,43;2,01;3,21;2,47;4,47;0;0;
10991;-26;-38,17;-15,93;-7,11;2,1;2,74;2,29;4,5;0;0;
11008;-24,24;-42,37;-13,71;-11,07;2;2,57;2,22;4,12;0;0;
11027;-22,78;-38,31;-16,56;-5,88;1,71;2,49;2,26;4,15;0;0;
11047;-26,87;-35,61;-12,95;-3;1,68;2,42;2,11;3,82;0;0;
11066;-24,88;-38,78;-14,19;-9,77;1,57;1,76;2,01;2,61;0;0;
11084;-24,88;-38,78;-14,19;-9,77;1,37;1,93;1,88;1,91;0;0;
11104;-24,48;-38,19;-19,38;-7,03;1,31;2,22;1,95;2,21;0;0;
11122;-22,97;-41,36;-10,4;-5,61;1,33;2,28;1,97;2,29;0;0;
11139;-25,83;-38,27;-8,03;-9,14;1,39;2,29;2,32;2,3;0;0;
11158;-23,54;-38,13;30,37;-9,64;1,35;2,38;17,87;2,6;0;0;
11177;-23,6;-44,75;194,67;-6,46;1,38;2,73;56,05;2,76;0;0;
11195;-25,83;-42,17;-51,49;-6,48;1,45;2,84;89,48;2,83;0;0;
11213;-23,87;-37,71;-111,78;-0,21;1,48;2,82;111,03;3,27;0;0;
11232;-24,94;-42,61;6,56;-9,12;1,56;2,9;123,02;3,36;0;0;
11251;-26,65;-41,06;-140,42;-13,4;1,57;2,87;128,44;3,58;0;0;
11268;-24,74;-37,39;-73,03;-4,17;1,5;2,71;117,3;3,43;0;0;
11289;-22,79;-40,77;-99,21;-2,32;1,38;2,18;88,66;3,39;0;0;
11308;-26,23;-40,26;11,6;-2,68;1,41;2,59;85,51;3,21;0;0;
11324;-26,23;-40,26;11,6;-2,68;1,46;3,04;89,35;3,32;0;0;
11341;-24,72;-40,81;-123,17;-4,7;1,59;3,12;98,99;3,06;0;0;
11357;-22,43;-35,73;-253,66;-5,2;1,76;3,13;110,58;3,48;0;0;
11377;-16,28;-31,12;-9,77;-8,09;2,37;3,74;110,94;3,75;0;0;
11398;-25,49;-39,29;-108,92;-12,63;3,01;3,82;115,05;4,49;0;0;
11417;-22,7;-38,12;29,51;-7,22;3,01;3,53;113,27;4,16;0;0;
11436;-25,93;-38,77;-40,48;-2,01;2,98;3,11;108,1;3,96;0;0;
11455;-25,47;-39,95;86,06;0,41;2,61;3,56;95,68;4,64;0;0;
11474;-28,92;-40,81;-14,02;-7,06;2,28;3,46;83,68;4,56;0;0;
11491;-25,32;-42,19;1,62;-8,04;1,71;2,72;66,08;3,5;0;0;
11509;-24,87;-38,93;-87,66;-5,18;1,37;2,68;49,83;2,92;0;0;
11524;-24,87;-38,93;-87,66;-5,18;1,2;2,54;37,73;2,65;0;0;
11542;-16,11;-36,22;-18,37;-6,33;3,03;2,55;34,47;2,31;0;0;
11559;-21,07;-40;4,52;-8,11;3,87;2,31;25,08;1,76;0;0;
11578;39,83;-34,61;-18,42;-5,57;8,37;2,52;17,44;2,23;1;0;
11596;-69,04;-36,98;-16,84;-6,78;12,91;3,2;14,27;2,46;1;0;
11614;-42,74;-41,97;-17,26;-1,24;25,32;3,43;11,54;2,8;1;0;
11634;-48,74;-43,3;-14,68;-11,65;32,19;3,66;5,63;3,39;1;0;
11651;-59,46;-37,8;-19,18;-58,32;36,82;3,87;3,73;6,3;1;0;
11670;-108,29;-37,51;-10,81;7,76;44,68;3,98;2,46;7,25;1;0;
11689;-22,74;-45,07;-45,64;-8,45;38,9;5,99;28,49;8,81;1;0;
11711;-7,99;-39,14;-4,35;-4,15;35,81;7,1;29,77;8,85;1;0;
11728;-50,58;-38,77;-14,3;-11,9;33,58;6,51;30,9;8,89;1;0;
11745;-50,58;-38,77;-14,3;-11,9;33,17;6,16;32,08;6,92;1;0;
11763;46,69;-42,1;-10,53;-9,76;35,49;5,37;29,46;6,56;1;0;
11781;-5,02;-40,37;-11,59;-7,62;37,74;3,43;9,77;6,14;1;0;
11799;-20,79;-38,91;-20,34;-7,01;40,37;2,38;5,02;6,02;1;0;
11819;18,11;-40,95;-17,48;-5,58;36,9;2,47;4,18;5,81;1;0;
11839;0,85;-37,29;-17,42;-6,83;41,69;2,91;3,28;4,94;1;0;
11864;-20,69;-26,04;-20,54;-7,29;43,78;3,69;2,92;4,34;1;0;
11882;-57,87;-38,08;-19,15;-11,57;45,58;4,05;2,66;3,86;1;0;
11900;-13,49;-43,9;-14,45;-21,11;45,1;4,56;2,76;3,64;1;0;
11919;31,69;-27,62;-18,22;-6,86;47,98;4,75;2,62;3,95;1;0;
11935;-59,92;-38,85;-15,34;-7,19;46,21;4,81;2,03;3,59;0;0;
11952;-9,34;-40,27;-18,57;-5,17;46,69;4,76;2,22;3,44;0;0;
11972;-143,14;-39,44;-15,27;-9,08;50,8;4,23;2,32;3,06;0;0;
11991;-24,17;-34,83;-21,79;-9,12;45,2;4,24;2,11;2,64;0;0;
12010;-130,54;-34,55;-17,14;-6,69;49,97;3,89;2;1,92;0;0;
12030;-57,1;-36,63;-19,77;-5,88;50,37;3,84;2,23;1,91;0;0;
12048;-49,31;-37,94;-16,76;-9,5;49,72;3,78;2,03;1,89;0;0;
12069;-44,16;-47,98;-15,13;-9,36;54,73;4,29;1,92;1,86;0;0;
12089;19,84;-35,38;-18,97;-12,45;51,45;4,42;1,8;2;0;0;
12110;-119,95;-44,95;-20,92;-4,93;48,15;4,11;1,9;2,12;0;0;
12128;-23,92;-42,59;-12,27;-5,73;49,31;3,93;1,93;2,35;0;0;
12148;8,99;-39,11;-18,57;-6,32;53,68;4,26;2;2,23;0;0;
12165;8,99;-39,11;-18,57;-6,32;58,43;4,54;2,04;2,11;0;0;
12183;-15,25;-43,15;-17,49;-3,46;52,86;3,92;1,99;2,48;0;0;
12199;-12,83;-46,85;-18,43;-5,69;51,89;3,95;2,09;2,34;0;0;
12216;57,95;-36,66;-18,12;-9,05;51,35;4,25;2,02;2,24;0;0;
12234;-45,15;-35,11;-19,92;-9,82;47,69;4,32;2,02;2,14;0;0;
12253;-23,76;-42,95;19,12;-10,11;35,59;3,95;4,17;2,19;0;0;
12271;-25,85;-39,6;-17,23;-7,29;23,25;3,77;25,62;2,2;0;0;
12289;-21,15;-43,45;-53,94;-5,58;18,27;3,56;36,31;2,07;0;0;
12309;-12,48;-38,13;-14,72;-6,68;6,44;2,92;51,42;2,15;0;0;
12325;-12,48;-38,13;-14,72;-6,68;3,71;2,97;59,82;2,31;0;0;
12343;-59,64;-45,21;-15,6;-8,76;6,8;2,99;38,72;2,21;0;0;
12360;-29,53;-30,96;-17,65;-10,89;9,28;2,87;25,69;2,06;0;0;
12378;-7,29;-31,08;-17,63;-11,86;9,69;2,99;17,84;2,47;0;0;
12396;-23,17;-36,39;-19,84;-7,28;9,1;3,06;10,58;2,52;0;0;
12412;-28,02;-50,98;-16,78;-6,41;9,51;3,7;2,7;2,75;0;0;
12430;-23,52;-42,11;-17,16;-11,46;7,97;4,56;1,91;2,8;0;0;
12449;-27,59;-55,71;-14,14;-5,33;4,18;6,12;2,13;2,75;0;0;
12467;-25,43;-43,61;-15,01;-6,64;3;6,8;2,12;2,52;0;0;
12482;-25,43;-43,61;-15,01;-6,64;2,67;7,47;2,23;2,47;0;0;
12501;-23,78;-27,86;-17,02;-9,74;2,98;7,49;1,99;1,99;0;0;
12517;-17,62;-49,29;-16,55;-7,66;2,81;7,52;1,88;1,76;0;0;
12535;-28,19;-42,73;-17,37;-4,46;2,88;6,85;1,66;1,65;0;0;
12551;-25,84;-39,11;-16,74;-7,48;2,86;5,14;1,61;1,59;0;0;
12569;-22,9;-36,84;-15,37;-8,42;2,73;4,56;1,48;1,42;0;0;
12588;-23,41;-35,1;-17,66;-14,1;2,33;3,97;1,44;1,53;0;0;
12604;-23,41;-35,1;-17,66;-14,1;2,4;3,65;1,55;1,64;0;0;
12621;-22,44;-37,94;-19,44;-9,11;1,98;3,56;1,69;1,61;0;0;
12640;-20,31;-41,15;-15,92;-9,57;2,12;3,37;1,77;1,84;0;0;
12658;-23,35;-52,45;-15,15;-7,76;1,89;3,33;1,66;1,81;0;0;
12676;-27,26;-47,81;-14,29;-3,94;1,73;3,54;2,22;1,96;0;0;
12693;-28,2;-44,99;-20,95;-6,25;1,84;3,53;2,38;1,96;0;0;
12711;-24,26;-38,21;-15,12;-8,03;1,92;3,22;2,64;1,72;0;0;
12729;-27,2;-36,83;-16,12;-2,65;1,78;2,97;2,44;1,83;0;0;
12748;-20,04;-37,82;-22,47;-10,77;1,83;3,1;2,37;1,97;0;0;
12764;-20,04;-37,82;-22,47;-10,77;1,51;3,25;1,6;1,85;0;0;
12784;-27,22;-35,77;-14,88;-10,08;1,59;3,34;1,83;1,92;0;0;
12801;-25,94;-33,25;-17,57;-10,36;1,65;3,41;1,93;1,85;0;0;
12820;-22,31;-36,7;-14,6;-4,1;1,79;3,53;1,96;1,92;0;0;
12838;-23,42;-42,19;-13,84;-8,2;1,72;3,81;1,86;2,12;0;0;
12858;-25,03;-37,95;-20,33;-6,66;1,88;4,01;2;2,06;0;0;
12877;-24,43;-38,83;-15,04;-6,33;2,01;3,9;2,07;2,05;0;0;
12893;-22,79;-38,61;-14,38;-8,42;1,99;3,58;2,24;1,97;0;0;
12912;-24,95;-36,68;-14,71;-8,63;1,84;3,5;2,64;1,94;0;0;
12930;-21,28;-48,54;-19,69;-5,68;1,88;3,2;2,72;1,83;0;0;
12947;-24,59;-41,97;-58,32;-8,63;1,93;2,94;6,31;1,78;0;0;
12963;-24,59;-41,97;-58,32;-8,63;1,87;2,86;9,72;1,91;0;0;
12980;-22,04;-40,89;203,18;-6,66;1,82;3,15;25,76;1,88;0;0;
12997;-26,41;-42,37;-45,16;-3,75;1,8;3,45;42,8;2,04;0;0;
13015;-25,74;-43,78;-59,19;-8,43;1,75;3,41;54,91;2,27;0;0;
13033;-22,5;-42,66;212,74;-7,78;1,87;3,34;75,79;2,47;0;0;
13050;-24,5;-43,36;-125,04;-10,72;1,75;3,59;82,72;2,58;0;0;
13067;-26,71;-41,13;19,86;-3,75;1,64;3,57;91,63;2,89;0;0;
13087;-27;-44,87;6,3;-12,7;1,84;3,26;80,98;2,99;0;0;
13105;-27;-44,87;6,3;-12,7;1,94;3,06;81,25;3,06;0;0;
13122;-22,6;-34,18;-20,11;-8,41;2,04;3,39;68,55;2,74;0;0;
13138;-27,6;-41,26;50,38;-6,35;2,1;3,02;56,56;2,51;0;0;
13154;-33,63;-44,78;33,1;-10,03;3,34;2,93;60,52;2,6;0;0;
13173;-17,11;-38,45;-25,35;-9,76;6,09;2,93;56,45;2,18;0;0;
13192;-76,26;-36,65;110;-7,05;12,93;3,52;62,1;2,14;0;0;
13210;-0,55;-28,57;0,01;-9,37;18,87;3,89;68,76;2,19;0;0;
13229;-40,13;-49,6;-64,72;-7,01;19,27;3,93;67,74;2,22;0;0;
13245;-40,13;-49,6;-64,72;-7,01;19,73;4,07;64,95;2,18;0;0;
13263;-4,43;-43,15;-157,99;-5,08;26,88;3,98;73,69;2,24;0;0;
13281;-31,76;-31,05;-38,11;-6,18;29,43;4,41;76,81;2,63;0;0;
13300;22,35;-27,27;-125,92;-10,83;32,09;5,17;78,46;3,02;0;0;
13316;-1,51;-33,44;175,73;-12,33;36,8;5,42;95,27;2,99;0;0;
13335;0,04;-51,92;26,73;-4,73;39,19;5,79;95,65;3,27;0;0;
13355;-74,66;-42,25;-38,72;-10,43;41,01;5,54;110,29;3,33;0;0;
13374;117,62;-37,32;-224,69;-13,45;49,56;5,71;99,76;3,5;0;0;
13393;20,56;-39,2;209,88;-7,65;58,42;5,56;128,28;3,43;0;0;
13411;29,44;-32,23;-182,44;-3,63;52,28;4,83;121,97;3,68;0;0;
13429;13,76;-36,8;-48,08;-5,84;49,27;4,54;113,88;4,05;0;0;
13454;-6,32;-56,86;80,05;-7,68;50,51;4,66;113,75;3,75;0;0;
13471;-47,6;-44,08;-85,88;-7,77;44,76;5,44;103,93;3,67;1;0;
13492;-8,94;-53,35;-40,17;-21,52;41,99;5,57;98,31;3,61;1;0;
13510;-6,71;-39,14;-114,67;-8,44;45,52;6,17;90,23;3,74;1;0;
13530;81,36;-39,52;-12,26;-9,48;42,55;6,25;77,31;3,24;1;0;
13550;-83,75;-42,6;-35,41;-2,98;50,72;6,26;71,23;2,92;1;0;
13572;-39,12;-34,35;-26,07;-8,49;46,76;5,49;66,12;2,94;1;0;
13592;-41,56;-49,88;42,15;-4,66;44,96;4,96;63,81;2,76;1;0;
13608;-41,56;-49,88;42,15;-4,66;38,67;4,68;49,97;2,24;1;0;
13626;39,05;-35,86;-78,8;-7,16;41,34;4,16;53,64;2,18;1;0;
13645;39,05;-35,86;-78,8;-7,16;41,45;3,76;71,74;2,38;1;0;
13662;-6,04;-38,27;-45,9;-4,19;40,56;3,85;70,08;2,39;1;0;
13679;6,91;-42,74;-124,37;-7,71;39,45;3,99;73,53;2,51;1;0;
13697;-2,85;-45,25;-56,98;-6,67;41,04;3,76;77,77;2,58;1;0;
13714;-37,85;-39,83;-77,37;-3,1;42,25;3,58;67;2,7;1;0;
13732;-72,05;-41,9;-17,33;-9,34;39,08;3,45;57,19;2,54;1;0;
13751;-10,87;-41,05;20,38;-8,21;35,59;3,57;56,45;2,48;1;0;
13771;65,91;-38,75;-24,35;-6,88;39,56;4,16;54,19;2,26;1;0;
13790;-62,72;-44,07;-18,78;-8,04;44,3;3,87;40,51;2,19;1;0;
13808;-39,29;-39,35;-14,55;8,88;40,03;4,06;32,63;3,62;1;0;
13825;-39,29;-39,35;-14,55;8,88;37,94;4,21;21,77;4,76;1;0;
13842;-48,75;-39,8;-22,49;-11,41;36,69;4,28;12,73;6,75;0;0;
13862;8,55;-40,46;-9,91;3,68;34,22;4,27;3,48;10,34;0;0;
13878;-25,03;-35,73;-16,85;-20,11;29,2;3,81;2,74;13,22;0;0;
13897;-22,68;-49,47;-31,16;-20,87;23,13;3,8;9,54;13,47;0;0;
13916;-37,26;-39,81;-0,05;2,55;20,36;4,06;11,35;12,56;0;0;
13933;-27,28;-41,48;-20,1;-7,21;18,52;4,01;11,98;11,54;0;0;
13950;-66,05;-39,14;-12,75;-5,1;15,64;3,41;12,05;7,84;0;0;
13968;-27,34;-42,23;-19,98;-3,16;13,86;3,49;12,36;4,93;0;0;
13987;-31,17;-39,42;-17,09;-7,07;12,36;3,44;7,61;3,17;0;0;
14005;-31,17;-39,42;-17,09;-7,07;14,42;3,01;4,33;2,25;0;0;
14022;-92,28;-48,81;-19,56;-6,9;19,47;2,79;2,8;2,17;0;0;
14041;9,86;-36,17;-20,51;-6,84;19,37;3,01;2,53;2,05;0;0;
14064;7,96;-37,77;-17,12;-9,82;17,34;3,04;1,92;2,21;0;0;
14082;-21,26;-41,88;-22,69;-7,33;16,84;3,12;1,69;2,4;0;0;
14101;-25,36;-34,68;-17,69;-9,57;14,54;3,35;1,72;2,36;0;0;
14120;-22,81;-35,6;-17,69;-15,43;11,72;3,24;1,92;2,79;0;0;
14140;-25,07;-39,84;-14,27;-5,84;7,13;2,81;2,15;2,89;0;0;
14159;-23,54;-45,95;-14,91;-10,72;6,34;2,84;2,01;2,73;0;0;
14177;-25,11;-43,29;-24,17;-5,1;4,12;2,78;2,05;2,59;0;0;
14195;-23,37;-37,31;-17,42;-8,96;3,64;4,06;2,07;2,47;0;0;
14213;-24,44;-47,66;-17,56;-8,57;3,36;4,48;2,03;2,11;0;0;
14234;-24,51;-53,21;-16,33;-8,9;3,5;6,07;1,87;1,73;0;0;
14251;-22,27;-34,96;-14,64;-8,59;2,74;7,62;1,83;1,69;0;0;
14268;-27,63;-41,6;-19,91;-7,53;2,4;8,27;2,05;1,76;0;0;
14284;-27,63;-41,6;-19,91;-7,53;2,18;8,5;2,01;1,88;0;0;
14302;-23,05;-40,77;-17,53;-8,48;2,36;8,08;2,2;1,95;0;0;
14318;-27,67;-42,19;-12,08;-7,14;2,24;7;2,23;1,92;0;0;
14336;-27,67;-42,19;-12,08;-7,14;2,14;4,89;2,24;1,9;0;0;
14355;-23,8;-39,69;-16,31;-8,4;1,94;3,91;2,02;1,84;0;0;
14373;-28,15;-43,23;-15,53;-6,68;2,13;3,81;1,82;1,84;0;0;
14390;-24,67;-44,83;-16,02;-8,63;2,11;3,62;1,71;1,88;0;0;
14405;-24,67;-44,83;-16,02;-8,63;2;3,66;1,56;2,08;0;0;
14422;-19,82;-41,77;-21,39;-5,66;2,21;4,1;1,85;2,11;1;0;
14440;-24,03;-49,45;-19,21;-7,42;2,2;4,5;1,91;2,17;1;0;
14461;-23,65;-32,25;-18,17;-3,99;2,36;4,51;2,06;2,2;1;0;
14478;-22,81;-39,61;-12,78;-10,54;1,92;4,67;2,29;1,94;1;0;
14500;-24,61;-42,45;-13,73;-9,08;2,04;5;2,41;2,06;1;0;
14520;-24,66;-41;-18,89;-9,38;1,89;4,69;2,25;2,1;1;0;
14537;-22,35;-39,86;-14,68;-6,55;1,68;4,54;2,01;2,03;1;0;
14555;-23,03;-41,01;-20,79;-10,38;1,55;3,94;1,86;2,25;1;0;
14573;-28,51;-39,44;-17,84;-6,23;1,87;3,59;1,99;2,02;1;0;
14592;-27,43;-40,98;-30,99;-7,16;2,05;3,1;2,22;1,87;1;0;
14607;-24,76;-48,93;-188,18;-5;1,89;3,39;15,71;1,91;1;0;
14628;-21,28;-36,98;-152,6;-11,24;1,97;3,75;47,84;2,35;1;0;
14646;-21,28;-36,98;-152,6;-11,24;1,93;3,87;79,84;2,72;1;0;
14663;-128,44;-39,62;-27,4;-17,44;6,87;3,59;96,57;3,47;1;0;
14680;-9,36;-35,12;6,33;-7,61;12,86;3,49;102,04;4,2;1;0;
14698;33,74;-43,04;94,92;-3,49;20,11;3,7;110,73;4,68;0;0;
14715;3,02;-36,62;-46,18;-12,77;25,96;3,44;93,67;4,87;0;0;
14736;-59,28;-26,1;-228,33;-1,3;34,71;3,61;77,38;4,88;0;0;
14754;16,7;-36,53;131,43;0,57;38,09;4,03;72,9;4,8;0;0;
14773;-42,77;-39,83;205,29;-0,93;36,25;4,97;102,26;4,25;0;0;
14791;-48,34;-35,96;138,53;3,32;36,15;4,75;108,23;3,99;0;0;
14811;-98,41;-39,47;-238,93;1,54;31,57;4,46;112,39;3,84;0;0;
14832;-39,31;-45,3;-74,04;-8,74;31,91;4,6;115,53;4,08;0;0;
14854;-23,44;-41,85;-234,38;-4,95;27,62;4,27;112,26;3,55;0;0;
14874;-30,6;-46,73;-17,57;-10,97;22,36;3,57;95,31;3,8;0;0;
14893;-26,03;-31,61;39,66;-8,34;14,62;4,68;98,37;3,54;0;0;
14911;-28,88;-40,2;20,62;-8,88;6,26;4,76;93,95;3,13;0;0;
14928;-27,2;-41,86;-188,26;-11,23;2,72;5,36;96,55;3,31;0;0;
14945;-27,2;-41,86;-188,26;-11,23;2,15;6,33;98,8;3,22;0;0;
14962;-27,13;-38,59;-89,79;-11,18;2,37;6,14;98,63;2,9;0;0;
14983;24,44;-37,97;-15,81;-16,36;7,48;5,28;75,32;3,03;0;0;
15002;-39,44;-41,97;-18,17;-17,58;9,44;5,14;62,62;4,15;0;0;
15023;-31,02;-41,69;-19,42;-54,07;13,28;4,43;44,26;9,35;0;0;
15043;-27,3;-40,41;-27,05;-34,4;13,47;3,53;25,32;15,21;0;0;
15060;-24,86;-30,35;-24,44;-32,53;13,51;3,12;10,73;20,45;0;0;
15084;-21,82;-39,72;-14,43;32,61;11,43;3,67;3,51;21,76;0;0;
15104;-25,59;-42,25;-15,64;-10,34;6,77;3,76;3,61;21,14;0;0;
15120;-28,79;-38,75;-12,45;-5,07;4,36;4,1;3,35;18,75;0;0;
15138;-21,23;-40,2;-20,5;-10,38;2,87;3,86;3,2;13,11;0;0;
15155;-26,19;-43,1;-16,92;-5,3;2,76;4,05;2,68;7,9;0;0;
15172;-26,21;-45,4;-19,93;-7,39;2,6;3,64;2,38;5,16;0;0;
15192;-23,56;-36,22;-17,92;5,1;2,22;3,87;2,33;4,38;0;0;
15210;-26,61;-53,91;-12,74;-4,73;2,05;4,44;2,25;4,6;0;0;
15232;-25,6;-39,17;-39,78;-6,38;2,01;4,47;2,87;3,67;0;0;
15249;-23,53;-36,59;70,3;-3,61;1,76;5,43;7,27;3,35;0;0;
15267;-26,22;-38,03;60,48;-14,02;1,69;5,74;46,24;3,32;0;0;
15283;-26,22;-38,03;60,48;-14,02;1,74;5,76;85,22;3,49;0;0;
15302;-22,16;-45,4;134,04;-9,27;1,79;5,42;105,34;3,15;0;0;
15319;-24,87;-31,11;11,16;-10,95;1,66;4,75;128,84;3,47;0;0;
15337;-26,47;-40,35;-103,64;-2,99;1,75;4,5;150,46;3,89;0;0;
15353;-22,07;-40,69;199,08;-0,63;1,6;4,13;163,45;4,41;0;0;
15371;-25,14;-36,2;-233,61;-10,38;1,68;3,93;146,41;4,27;0;0;
15388;-24,57;-35,73;-116,36;-9,84;1,81;3,78;135,24;3,87;0;0;
15407;-27,55;-38,02;-2,26;-13,48;1,74;3,5;133,31;4,33;1;0;
15424;-27,55;-38,02;-2,26;-13,48;1,75;3,17;135,89;4,69;1;0;
15443;-27,32;-40,91;-314,98;-14,51;1,64;3,56;146,49;4,87;1;0;
15463;-21,08;-41,61;-182,68;0,49;2,32;3,32;143,45;4,99;1;0;
15480;-36,4;-34,39;-348,08;-12,24;2,87;3,54;149,7;5,36;1;0;
15498;-91,33;-37,2;30,12;-7,15;11,91;3,66;138,02;4,99;1;0;
15516;-31,16;-41,38;20,73;-17,5;18,25;3,59;145,75;4,67;1;0;
15534;-44,34;-45,65;-483,99;-14,79;24,08;3,26;147,54;5;1;0;
15550;-75,34;-43,88;-33,21;-3,3;26,18;3,57;114,83;3,85;1;0;
15568;-44,21;-24,74;-428,43;-11,67;32,56;4,37;120,38;3,94;1;0;
15587;-16,46;-28,58;-126,39;0,76;31,95;5,29;115,96;4,32;1;0;
15603;-16,46;-28,58;-126,39;0,76;28,52;6,54;116,77;4,71;1;0;
15622;19,91;-41,23;84,87;-9,02;29,91;6,89;129,14;4,79;1;0;
15640;9,91;-38,52;-13,15;-4,9;29,82;6,67;120,85;4,59;1;0;
15659;38,18;-40,24;-8,34;-2,27;27,34;5,91;114,01;4,76;1;0;
15678;99,63;-39,16;-16,44;-8,8;39,54;4,86;77,92;4,32;1;0;
15696;-21,24;-45,06;-13,69;-18,82;44,18;3,88;56,35;4,01;1;0;
15716;-43,87;-49,13;-13,14;-33,87;48,23;3,45;33,5;4,69;1;0;
15736;25,65;-43,29;-15,21;-7,07;50,98;3,95;14,08;6,72;1;0;
15753;-15,37;-39,91;-63,56;-5,22;50,83;3,82;24,36;6,74;1;0;
15773;-27,94;-42,68;-14,97;14,16;48,77;4,01;25,95;7,66;0;0;
15793;-70,07;-42,46;-92,17;0,37;41,2;3,8;27,87;8,12;0;0;
15814;68,26;-27,94;-15,48;-7,76;40,03;3,96;33,16;7,92;0;0;
15832;-36,51;-36,67;157,16;-0,62;32,9;3,56;40,74;5,33;0;0;
15852;23,88;-41,41;-74,1;-8,3;32,96;3,58;38,49;4,24;0;0;
15871;-4,48;-40,11;-16,56;-8,64;33,94;3,78;32,57;4,2;0;0;
15890;-55,51;-63,4;-8,44;-5,15;32,28;4,17;32,09;3,44;0;0;
15908;-44,35;-41,83;-21,81;-4,99;32,22;4,87;25,57;2,99;0;0;
15928;-97,9;-38,89;-15,95;-2,48;36,82;4,79;24,78;2,84;0;0;
15949;-53,69;-40,74;-24,2;-7,83;41,26;5,44;10,15;2,66;0;0;
15968;-19,85;-40,6;-14,96;-5,45;37,88;5,56;3,07;2,62;0;0;
15985;-19,85;-40,6;-14,96;-5,45;37,44;5,68;2,28;2,16;0;0;
16002;13,09;-33,76;-12,78;-13,03;37,63;5,29;1,93;2;0;0;
16019;-25,29;-48,1;-18,16;-8,47;33,99;4,71;1,77;2,43;0;0;
16036;-84,1;-42,34;-15,57;-7,04;30,91;4,77;1,78;2,5;0;0;
16052;-62,38;-44,83;-13,96;-10,58;32,78;4,38;1,65;2,56;0;0;
16070;-46,21;-30,22;-16,13;-9,87;34,68;4,16;1,66;2,61;0;0;
16089;-26,93;-42,86;-11,98;-8,79;33,17;4,53;1,9;2,58;0;0;
16107;22,07;-37,67;-17,5;-3,57;34,94;5,11;1,97;2,2;0;0;
16123;22,07;-37,67;-17,5;-3,57;38,03;5,45;2,16;1,81;0;0;
16140;-28,37;-38,35;-17,4;-8,42;38,32;5,39;2,36;1,87;0;0;
16162;9,83;-43,35;-18,62;-4,57;32,05;5,32;2,2;1,76;0;0;
16180;-39,11;-42,05;-17,62;-1,09;36,15;5,11;2,11;2,2;0;0;
16198;11,43;-42,8;-15,75;-7,15;33,18;4,67;1,95;2,69;0;0;
16220;-23,7;-44,34;-21,07;-8,51;27,31;4,08;1,82;2,76;0;0;
16239;-25,01;-38,29;-16,14;-6,07;20,96;3,13;1,77;2,79;0;0;
16259;-14,24;-28,66;-16,62;-7,04;17,28;3,14;1,63;2,74;0;0;
16275;-32,86;-39,42;-20,44;-7,84;10,48;3,72;1,57;2,63;0;0;
16292;-26,77;-36,55;-16,84;-6,41;6,38;3,59;1,7;1,62;0;0;
16311;-14,57;-38,8;-17,62;-8,77;5,69;3,31;1,54;1,7;0;0;
16328;-6,33;-31;-19,83;-6,07;9,21;3,58;1,64;1,45;0;0;
16347;-3,13;-40,24;-15,87;-6,38;10,87;3,76;1,65;1,44;0;0;
16364;-3,13;-40,24;-15,87;-6,38;10,86;3;1,75;1,35;0;0;
16382;-21,92;-36,73;-15,05;-7,04;10,25;2,71;1,78;1,56;0;0;
16400;-24,02;-42,43;-20,73;-9,62;10,12;4,07;1,61;1,52;0;0;
16420;-28,64;-44,56;-24,76;-6,69;8,8;4,68;2,3;1,46;0;0;
16439;-27,81;-46,04;-18,81;-8,57;5,79;5,47;3,68;1,64;0;0;
16458;-26,22;-51,67;-31,5;-8,39;4,34;6,59;7,89;1,78;0;0;
16477;-22,16;-43,61;-19,2;-9,66;3,23;8,3;8,85;1,8;0;0;
16494;-18,41;-33,5;-16,94;-8,95;3,14;8,66;9,16;1,67;0;0;
16512;-29,47;-38,63;-16,34;-10,01;2,8;7,48;7,8;1,7;0;0;
16530;-22,39;-26,05;-14,62;-5,69;2,89;7;4,14;1,5;0;0;
16549;-19,1;-50,67;-15,98;-11,09;2,83;6,34;2,45;1,54;0;0;
16567;-23,01;-41,15;-21,48;-7,67;2,94;5,42;2,22;1,47;0;0;
16583;-23,01;-41,15;-21,48;-7,67;2,86;5,12;2,35;1,5;0;0;
16601;-21,44;-43,79;-16,35;-5,29;2,79;5,17;2,25;1,61;0;0;
16617;-23,94;-39,53;-15,45;-5,2;2,28;5,48;2,1;1,4;0;0;
16635;-23,94;-39,53;-15,45;-5,2;2,06;5,04;2,17;1,31;0;0;
16651;-24,5;-33,85;-16,85;-5,81;1,95;4,64;2,16;1,32;0;0;
16669;-24,53;-45,9;-15,3;-1,53;1,8;4,64;1,85;1,35;0;0;
16692;-22,31;-38,01;-15,97;-9,13;1,75;4,92;1,58;1,49;0;0;
16711;-21,5;-36,04;-16,39;-4,59;1,65;5,01;1,52;1,61;0;0;
16730;-28,22;-29,23;-16,11;-7,43;1,83;5,1;1,64;1,77;0;0;
16747;-26,48;-43,47;-15,36;-14,2;2,07;4,53;1,76;1,99;0;0;
16766;-22,98;-36,13;-15,67;-7,66;2,43;4,18;1,91;2,59;0;0;
16788;-20,96;-45,43;-16,95;-6,36;2,31;4,14;2,18;2,42;0;0;
16806;-23,15;-39,98;-17,01;-5,45;2,32;3,92;2,1;2,53;0;0;
16824;-23,15;-39,98;-17,01;-5,45;2,14;3,43;2;2,69;0;0;
16841;-25,37;-37,78;-20,56;-13,23;2,01;3,84;2,12;2,42;0;0;
16858;-20,83;-38,3;-17,54;-6,03;1,89;3,65;2;2,28;0;0;
16878;-24,12;-41,6;-10,31;-9,5;1,78;3,36;1,81;2,12;0;0;
16897;-22,31;-48,71;-20,67;-4,97;1,79;3,96;1,96;2,23;0;0;
16915;-22,18;-55,33;-19,14;-7,4;1,86;4,4;2,02;2,16;0;0;
16935;-26,22;-38,32;-18,4;-14,02;1,89;4,62;2,04;2,2;0;0;
16950;-25,12;-41,59;-18,27;-3,64;1,74;4,76;1,94;2,4;0;0;
16969;-25,01;-39,53;-15,23;-5,71;1,88;4,72;2,06;2,36;0;0;
16987;-23,26;-34,87;-15,94;-8,04;1,72;4,64;1,81;2,4;0;0;
17004;-23,26;-34,87;-15,94;-8,04;1,6;3,94;1,7;2,25;0;0;
17022;-22,41;-30,27;-21,63;-6,2;1,56;3,13;1,72;2,29;0;0;
17040;-25,17;-42,17;-15,34;-11,81;1,47;2,97;1,86;2,03;0;0;
17057;-24,15;-42,51;-13,02;-7,36;1,47;3,2;1,91;1,81;0;0;
17075;-22,23;-38,57;-17,51;-4,24;1,4;3,4;1,96;1,81;0;0;
17095;-23,57;-35,06;-17,37;-9,02;1,89;3,59;2,09;1,81;0;0;
17114;6,54;-46,56;-14,13;-7,45;7,39;3,65;1,97;1,82;0;0;
17135;17,22;-34,26;-17,88;-7,84;12,76;3,81;1,76;1,81;0;0;
17152;-33,53;-44,07;-17,68;-5,94;16,19;4,05;1,62;1,89;0;0;
17171;-48,51;-42,94;-7,48;-3,55;22,41;4,29;2,03;1,75;0;0;
17189;-59,32;-37,85;-11,24;-7,23;31,87;4,18;3,14;1,8;0;0;
17205;-59,32;-37,85;-11,24;-7,23;39,91;4,26;4,14;1,76;0;0;
17222;-49,68;-40,27;30,67;-17,7;36,55;4,26;27,74;1,95;0;0;
17240;-35,21;-39,38;-12;-6,2;39,05;4,12;33,35;2,16;0;0;
17259;-4,96;-40,21;107,04;-8,52;36,52;3,89;47,08;2,25;0;0;
17276;9,64;-21,27;5,99;-10,37;34,57;4,83;65,43;2,37;0;0;
17296;-80,52;-43,39;295,42;-6,23;29,22;5,09;81,53;2,35;1;0;
17345;-75,28;-46,04;-223,86;-15,51;26,12;5,3;94,67;2,89;1;0;
17361;-10,91;-33,49;-224,06;-19,68;25,94;6,32;106,14;3,08;1;0;
17381;-112,5;-34,92;-112,19;5,86;24,97;7,09;117,94;3,52;0;0;
17401;-21,68;-40,36;-83,28;-1,19;25,63;6,78;122,46;3,83;0;0;
17421;63,76;-33,38;-61,21;-4,9;25,57;6,52;126,28;4,2;0;0;
17441;14,57;-38,11;77,31;-11,82;30,14;6,38;147,97;4,63;0;0;
17458;-145,95;-39,37;-32,14;-3,72;31,51;5,76;131,57;4,43;0;0;
17477;0,43;-24,82;-228,53;-5,66;35,39;5,02;112,08;4,14;0;0;
17498;-17,44;-45,19;-22,19;-0,78;39,89;5,48;108,08;3,82;0;0;
17517;-12,65;-50,46;136,48;-9,61;42,78;5,41;99,51;3,79;0;0;
17534;-108,45;-36,75;-25,98;-9,21;40,02;5,69;64,84;3,65;0;0;
17551;-55,96;-33,05;-16,82;-5,72;42,57;5,84;45,71;3,39;0;0;
17570;-85,26;-44,02;-14,68;-6,47;39,36;6,01;42,14;3,75;0;0;
17589;4,47;-37,48;-16,28;-14,84;33,59;5,47;29,46;5,22;0;0;
17609;-38,42;-34,26;-13,97;-48,41;33,47;5,26;22,76;8,53;0;0;
17625;-38,42;-34,26;-13,97;-48,41;34,15;5,22;5,15;11,61;0;0;
17646;70,29;-38,82;-17,55;-9,97;35,82;4,67;2,4;12,02;0;0;
17662;-89,49;-42,15;-17,72;-4,59;35,96;4,05;2,43;12,42;0;0;
17679;-63,06;-44,8;-20,58;-4,97;37,93;3,99;2,4;11,7;0;0;
17699;-87,98;-41,02;-14,93;-1,67;39,52;3,9;2,75;9,96;0;0;
17720;23,51;-42,96;-17,69;-10,37;41,56;4,22;2,5;6,47;0;0;
17739;-28,3;-34,67;-15,46;-4,94;41,89;3,82;2,29;2,99;0;0;
17758;-2,01;-40,03;-13,96;-7,79;40,83;3,9;2,07;2,24;0;0;
17777;-3,39;-33,6;-15,95;-8,78;40,41;4,23;1,82;2;0;0;
17794;-21,86;-40,32;-13,69;-4,64;39,54;3,94;1,76;2,27;0;0;
17812;-52,44;-34,39;-15,97;-9,11;45,21;4,28;1,8;2,12;0;0;
17829;4,2;-36,34;-22,23;-9,55;44,09;3,59;2,01;2,49;0;0;
17846;19,85;-41,27;-16,2;-10,9;44,33;3,72;2,05;2,71;0;0;
17862;19,85;-41,27;-16,2;-10,9;41,23;3,59;2,08;2,89;0;0;
17878;-50,18;-37,01;-16,95;-9,36;34,4;3,32;2,39;3,12;0;0;
17899;-7,7;-46,94;-13,89;-6,71;29,94;3,31;2,28;2,74;0;0;
17918;-61,16;-38,05;-16,24;-3,36;21,74;3,31;2,31;2,94;0;0;
17936;-20,61;-35,5;-16,46;-9,94;19,66;4,17;2,12;2,82;0;0;
17953;-15,07;-41,95;-16,36;-7,06;15,88;4,36;1,91;2,82;0;0;
17971;-44,36;-37,48;-14,36;-7,6;12,68;4,33;1,65;2,69;0;0;
17991;-37,43;-49,38;-17,61;-10,95;15,33;4,14;1,69;2,49;0;0;
18007;-37,01;-40,52;-19,75;-8,9;13,54;4,01;1,59;2,24;0;0;
18025;-37,01;-40,52;-19,75;-8,9;10,76;4,03;1,6;1,99;0;0;
18042;-12,2;-32,81;-16,41;-8,57;10,41;3,52;1,64;1,91;0;0;
18060;-24,08;-39,66;-13,42;-7,92;10,87;3,43;1,82;1,73;0;0;
18076;-36,72;-36,55;-19,76;-10,45;9,54;3,16;1,78;1,78;0;0;
18093;-20,09;-41,14;-18,23;-6,28;6,04;3,16;1,76;1,8;0;0;
18112;-29,1;-38,55;-13,52;-8,17;6,42;2,91;1,8;1,72;0;0;
18133;-26,6;-36,42;-20,79;-7,66;6,14;2,54;1,87;1,52;0;0;
18149;-21,62;-41,66;-19,73;-10,54;4,93;3,14;1,92;1,51;0;0;
18166;-21,25;-34,38;-12,84;-2,25;4,09;3,37;1,88;1,58;0;0;
18184;-21,25;-34,38;-12,84;-2,25;3,25;3,68;1,88;1,71;0;0;
18203;-26,41;-41,41;-18,45;-12,63;2,95;4,33;1,78;1,69;0;0;
18227;-23,51;-46,82;-16,63;-5,83;2,96;4,94;1,73;1,71;0;0;
18248;-25,44;-41,4;-17,66;-4,86;3,17;5,17;1,66;1,9;0;0;
18265;-25,44;-41,4;-17,66;-4,86;2,99;5,39;1,66;2,04;0;0;
18280;-26,83;-33,5;-14,37;-7,73;2,93;5,29;1,68;1,91;0;0;
18300;-22,45;-42,04;-18,43;-4,9;2,77;5,07;1,74;1,89;0;0;
18320;-23,22;-40,78;-14,07;-5,21;2,58;4,82;2,02;1,81;0;0;
18342;-26,73;-48,99;-13,83;-7,69;2,29;4,42;2,1;1,85;0;0;
18360;-25,76;-40,66;-18,17;-8,46;2,11;3,83;2,01;1,69;0;0;
18380;-20,16;-33,4;-19,38;-4,08;2,14;4,14;1,98;1,58;0;0;
18399;-26,96;-39,92;-16,27;-10,79;2,21;4,17;1,92;1,64;0;0;
18418;-25,13;-38,96;-16,65;-5,8;2,07;4,42;1,72;1,7;0;0;
18435;-18,86;-43,38;-18,56;0,29;2,01;4,62;1,65;1,83;0;0;
18454;-28,81;-51,76;-17,42;-5,33;2,02;5,09;1,67;2,29;0;0;
18471;-17,85;-39,06;-18,12;-12,07;2,51;5,16;1,57;2,46;0;0;
18487;-22,55;-38,82;-18,09;-5,33;2,42;4,71;1,59;2,6;0;0;
18504;-22,55;-38,82;-18,09;-5,33;2,51;4,65;1,45;2,52;0;0;
18522;-23,2;-37,27;-11,97;-3,52;2,5;5;1,8;2,49;0;0;
18540;-21,89;-36,97;-19,2;-7,29;2,4;4,88;1,86;2,11;0;0;
18558;-24,92;-44,65;-17,73;-6,64;2,25;4,49;1,9;1,8;0;0;
18576;-25,58;-39,65;-11,3;-8,83;1,88;5,07;1,95;1,52;0;0;
18596;-23,03;-35,97;-19,57;-6,21;1,87;5,01;2,09;1,47;0;0;
18614;-24,27;-40,46;-12,98;-8,88;1,86;4,37;2,1;1,68;0;0;
18631;-25,84;-37,68;-15,98;-6,53;2,04;4,71;1,91;1,71;0;0;
18648;-24,01;-43,84;-14,47;-8,41;1,88;3,97;1,9;1,85;0;0;
18666;-24,71;-39,49;-16,19;-9,39;1,77;3,53;1,96;1,88;0;0;
18683;-24,71;-39,49;-16,19;-9,39;1,88;3,28;1,87;1,87;0;0;
18701;-25,26;-43,75;-17,08;-6,54;1,68;3,68;1,66;1,74;0;0;
18719;-22,9;-42,63;-15,08;-6,56;1,61;3,71;1,53;1,41;0;0;
18737;-26,48;-36,77;-17,94;-4,95;1,82;4,12;1,55;1,34;0;0;
18753;-21,45;-40,64;-18,18;-6,3;1,9;4,2;1,37;1,27;0;0;
18771;-21,53;-39,34;-15,95;-13,19;1,72;4,14;1,32;1,38;0;0;
18789;-25,94;-38,89;-17,29;-5,07;1,74;3,94;1,53;1,43;0;0;
18805;-25,94;-38,89;-17,29;-5,07;1,87;3,42;1,82;1,47;0;0;
18824;-23,83;-38,44;-17,11;-10,34;1,59;3,4;1,8;1,55;0;0;
18841;-23,78;-40,72;-15,61;-6,94;1,41;3,05;1,9;1,56;0;0;
18860;-22,98;-35,63;-16,63;-8,25;1,49;3,28;1,99;1,55;0;0;
18875;-24,99;-37,66;-15,66;-7,13;1,49;3,36;1,83;1,51;0;0;
18892;-23,76;-42,78;-15,52;-10,53;1,35;3,3;2,07;2,01;0;0;
18910;-27,2;-36,28;-14;-7,48;1,33;3,3;2,05;2,16;0;0;
18927;-19,86;-37,16;-16,34;-9,11;1,7;3,88;2;2,22;0;0;
18944;-19,86;-37,16;-16,34;-9,11;1,88;4,5;1,92;2,28;0;0;
18962;-27,27;-43,16;-18,26;-1,29;2,05;4,41;2,09;3,04;0;0;
18981;-25,01;-36,43;-17,36;-4,34;1,96;4,61;1,95;3,24;0;0;
18999;-23,04;-41,99;-15,11;-6,46;1,97;4,5;1,54;3,08;0;0;
19016;-24,69;-39,68;-15,8;-12,06;1,82;3,72;1,63;3,14;0;0;
19035;-22,78;-38,27;-15,21;-5,91;1,53;3,13;1,83;3,14;0;0;
19053;-23,35;-37,53;-16,09;-2,53;1,35;2,81;1,73;2,51;0;0;
19071;-25,32;-35,42;-14,75;-9,96;1,28;3,16;1,46;2,2;0;0;
19089;-25,32;-35,42;-14,75;-9,96;1,14;3,51;1,51;2,06;0;0;
19109;-24,17;-38,22;-14,26;-5,07;1,33;3,67;1,67;2;0;0;
19129;-24,21;-45,39;-21,9;-5,71;1,25;3,8;1,6;2,06;0;0;
19145;-24,21;-45,39;-21,9;-5,71;1,18;3,9;1,73;2,03;0;0;
19164;-25;-36,65;-17,51;-8,57;1,31;3,63;2,12;1,99;0;0;
19184;-24,98;-47,71;-16,8;2,79;1,15;3,41;2,11;2,74;0;0;
19201;-23,5;-27,98;-16,96;-3,38;1,26;3,6;2,03;3,1;0;1;
19219;-25,71;-34,76;-14,95;-7,54;1,28;4,02;1,95;4,26;0;1;
19239;-27,88;-71,19;-16,96;-11,51;1,71;4,61;2,05;5,36;0;1;
19255;-24,1;-44,82;-13,47;-28,85;2,18;7,03;1,85;6,99;0;1;
19274;-21,44;-37,53;-20,05;64,5;2,66;8,96;1,74;16,24;0;1;
19291;-23,34;-22,68;5,92;27,69;2,7;9,72;3,31;23,03;0;1;
19309;-22,32;-26,52;-11,05;-1,84;3,68;13,29;4,22;26,56;0;1;
19328;-17,27;-83,64;-15,31;-12,55;3,82;14,74;5,47;29,51;0;0;
19347;-32,12;-49,95;-14;-16,87;4,22;15,31;5,75;30,91;0;0;
19368;-37,48;-37,81;-12,88;-18,8;5,14;14,51;6,3;25,25;0;0;
19386;-37,48;-37,81;-12,88;-18,8;5,88;14,49;6,28;18,65;0;0;
19402;-24,66;-39,38;-17,21;-17,86;6,42;12,96;4,88;16,92;0;0;
19420;-26,16;-34,1;-16,38;-3,28;6,42;11,59;4,38;18,57;0;0;
19439;-30,97;-23,85;-22,7;66,56;6,79;10,88;4,44;23,42;0;0;
19459;-16,13;-47,74;-9,69;14,14;6,24;10,07;4,78;27,52;0;0;
19479;-15,68;-20,34;-24,02;-26,77;5,49;9,53;4,71;30,24;0;0;
19500;-23,42;-26,72;-9,26;48,03;5;9,18;4,77;30,85;0;0;
19519;-32,45;-30,55;-18,21;-5,34;4,64;9,45;4,9;35,74;0;0;
19536;-28,96;-57,73;-17;-52,7;4,83;9,25;4,95;33,78;0;0;
19554;-21,8;-31,17;-13,1;-8,89;4,5;8,24;5,2;34,79;0;0;
19572;-49,43;-56,9;-14,73;8,36;5,18;8,4;4,88;33,13;0;0;
19593;-29,3;-52,55;-14,47;15,2;6,19;8,78;4,36;34,82;0;0;
19612;-23,43;-13,73;-16,48;-8,92;5,99;8,71;4,18;26,27;0;0;
19630;-27,91;-51,97;-28,11;-8,92;5,82;9,08;4,64;21,83;0;0;
19648;-38,07;-40,39;-19,01;-6,72;5,68;7,95;6,51;15,86;0;0;
19665;-38,07;-40,39;-19,01;-6,72;5,87;7,29;8,49;9,79;0;0;
19682;-17,85;-30,64;-16,55;23,24;4,34;6,64;8,42;7,59;0;0;
19700;-32,17;-47,76;-20,67;5,82;4,43;5,49;8,38;6,7;0;0;
19718;-18,22;-31,99;-13,57;36,35;4,26;4,97;8,43;10,94;0;0;
19736;-23,58;-46,86;-22,24;-4,23;4,14;5,02;6,08;14,92;0;0;
19755;-26,22;-46,3;-15,63;-6,49;3,41;5,22;3,45;15,62;0;0;
19771;-28,18;-40,36;-18,66;-8,32;2,98;5,36;2,26;16,39;0;0;
19789;-29;-42,03;-19,15;-3,96;2,81;5,56;2,31;13,23;0;0;
19807;-17,08;-40,62;-15,78;-4,66;2,56;4,94;2,11;11,14;0;0;
19824;-17,08;-40,62;-15,78;-4,66;2,55;5,03;2;4,04;0;0;
19844;-19,59;-36,38;-20,1;-9,73;2,85;5,48;1,91;3,18;0;0;
19863;-23,42;-38,27;-13,58;-24,09;3,65;5,63;2,05;3,35;0;0;
19879;-18,61;-41,32;-18,27;-1,3;3,85;6,05;2;2,77;0;0;
19897;-21,59;-40,26;-15,13;-12,32;3,72;5,36;1,91;2,98;0;0;
19919;-21,48;-45,02;-23,68;-4,04;3,66;5,49;2,03;3,14;1;0;
19937;-25,98;-43,21;-15,94;-9,62;3,7;5,22;2,06;3,28;1;0;
19954;-24,29;-46,07;-14,43;-10,04;3,45;4,59;2,12;3,33;1;0;
19974;-18,96;-37,91;-19,54;-7,23;3,1;4,49;2,16;2,4;1;0;
19992;31,62;-30,54;-9,69;-4,21;7,39;4,45;2,74;2,28;1;0;
20010;-69,71;-46,75;-33,54;-6,2;16,04;4,31;3,64;1,96;1;0;
20030;19,4;-33,96;-191,58;-0,92;21,79;4,66;12,74;1,77;1;0;
20050;63,42;-28,76;-54,31;-4,94;27,98;5,59;17,84;1,59;1;0;
20068;-43,96;-44,44;-22,45;-9,11;33,56;6,57;25,57;1,88;1;0;
20084;-43,96;-44,44;-22,45;-9,11;37,89;7,69;33,25;2,23;1;0;
20102;-61,6;-49,54;-88,92;-3,59;33,67;8,21;52,22;2,35;1;0;
20118;27,73;-37,31;-193,52;-4,37;32,05;9,62;68,44;2,68;1;0;
20136;-15,27;-33,39;-73,45;-9,74;32,84;8,89;76,82;2,74;1;0;
20153;-33,81;-40,15;-95,34;-5,03;34,44;8,09;94,37;2,6;1;0;
20172;-10,95;-36,07;-84,06;-3,57;36,12;7,45;104,44;2,58;1;0;
20191;-70,01;-53,03;-35,68;-4,24;38,05;7,38;102,34;2,5;0;0;
20211;-2,46;-48,68;45,33;-16,11;46,86;6,61;99,94;2,55;0;0;
20234;-82,02;-29,35;5,82;-4,4;46,25;5,89;97,96;2,89;0;0;
20254;24,05;-42,92;84,66;-19,8;42,02;5,7;103,32;3,39;0;0;
20270;35,34;-34,22;-236,38;-7,07;42,56;6,07;95,11;3,89;0;0;
20291;-21,22;-41,65;18,09;-14,08;41,1;5,22;92,89;4,03;0;0;
20311;-25,01;-42,63;142,54;-7,22;37,65;5,04;94,99;4,28;0;0;
20331;-48,61;-43,16;13,21;-1,99;46,66;5,31;100,52;4,3;0;0;
20351;-24,22;-28,17;34,69;-6,38;48,04;6,3;114,77;4,31;0;0;
20368;-26,46;-36,25;-265;-7,58;44,57;6,74;102,7;3,88;0;0;
20383;-26,46;-36,25;-265;-7,58;37,99;6,96;95,95;3,95;0;0;
20399;43,53;-33,27;-8,77;-12,31;40,92;6,96;89,24;3,68;0;0;
20415;11,04;-37,69;-22,22;-7,79;41,68;6,76;70,82;3,19;0;0;
20434;-143,15;-34,61;-20,08;-14,75;30,15;5,21;48,3;2,7;0;0;
20454;6,91;-47,53;-21,04;-1,97;49;4,47;14,49;3,12;0;0;
20471;-29,97;-41,3;-14,41;-28,98;48,69;4,75;5,4;4,2;0;0;
20487;-78,39;-27,71;-9,41;-37,69;49,27;4,34;4,35;6,52;0;0;
20504;-78,39;-27,71;-9,41;-37,69;49,51;4,72;3,45;8,89;0;0;
20521;31,71;-42,1;-17,52;3,33;51,03;5,57;3,43;10,24;0;0;
20537;-1,58;-28,09;-11,52;-2,31;53,15;6,04;3,87;11,25;0;0;
20555;-0,27;-43,77;-20,03;12,78;48,28;5,71;4,07;16,82;0;0;
20574;-28,31;-38,72;-14,64;-21,81;49,36;6,07;3,5;18,19;0;0;
20593;-111,74;-38,54;-21;-5,59;46,57;5,87;3,05;17,42;0;0;
20610;-101,68;-51,23;-17,26;-1,49;46,61;5,58;2,71;15,64;0;0;
20628;-49,15;-34,89;-19,92;-12,07;36,07;4,71;2,7;14,22;0;0;
20645;-49,15;-34,89;-19,92;-12,07;35,38;4,44;2,31;11,05;0;0;
20665;25,47;-38,26;-18,4;-4,94;37,75;4,91;2,08;5,97;0;0;
20680;-54,29;-47,23;-16,47;-9;39,03;4,69;2,17;4,07;0;0;
20699;28,88;-39,02;-10,34;-18,15;40,42;4,46;2,01;4,6;0;0;
20715;-141,2;-41,37;-17,29;1,01;41,36;4,07;2,52;5,05;0;0;
20735;-51,86;-42,55;-18,61;3,88;44,38;4,17;2,61;5,69;0;0;
20754;60,45;-27,85;-21,33;-9,57;43,61;4,1;2,72;6,25;0;0;
20771;-26,97;-41,2;-22,87;-4,95;46,66;4,31;2,83;6,12;0;0;
20790;-80,8;-38,55;-18,42;1,14;43,86;3,86;2,92;5,66;0;0;
20807;133,6;-43,72;-19,12;-13,41;50,82;3,65;2,57;5,12;0;0;
20825;133,6;-43,72;-19,12;-13,41;54,75;3,32;2,1;4,9;0;0;
20843;-35,27;-40,97;-15,62;-3,09;54,35;2,89;2,18;4,45;0;0;
20860;5,61;-39,36;-15,79;-4,69;58,75;2,67;1,94;4,09;0;0;
20877;3,47;-35,2;-18,68;-8,77;57,69;2,57;1,76;3,89;0;0;
20896;-13,92;-43,29;-17,34;-9,08;57,07;2,74;1,7;3,34;0;0;
20914;21,04;-34,49;-22,81;-9,68;50,04;3,58;1,95;2,44;0;0;
20933;-8,47;-38,92;-14,65;-8,11;43,46;4,31;1,72;1,9;0;0;
20950;-33,78;-39,07;4,62;-8,37;32,57;4,25;2,63;1,56;0;0;
20970;-36,19;-43,32;-139,07;-8,74;24,86;4,37;8,26;1,68;0;0;
20987;-37,9;-42,8;-317,15;-15,04;21,78;3,98;47,01;1,98;0;0;
21003;-37,9;-42,8;-317,15;-15,04;16,85;3,5;85,66;2,28;0;0;
21019;-32,59;-42,33;422,45;-10,08;11,52;3,17;113,79;3,08;0;0;
21038;18,2;-38,66;101,21;-7,48;13,72;3,4;130,35;3,37;0;0;
21057;-22,19;-45,28;54,01;-9,65;13,54;3,29;138,71;3,78;0;0;
21075;44,54;-30,96;-98,37;-11,81;19;3,57;131,48;4,01;0;0;
21094;-54,43;-39,28;58,41;-0,78;20,02;3,47;103,99;3,98;1;0;
21110;-1,39;-35,81;-30,31;-7,91;22,46;3,46;84,74;3,27;1;0;
21127;-26,07;-35,26;42,19;-1,56;21,51;3,12;68,05;3,16;1;0;
21147;-16,67;-44,52;74,58;-3,55;19,43;3,38;68,51;3,49;1;0;
21165;-16,67;-44,52;74,58;-3,55;18,16;3,83;68,07;3,7;1;0;
21181;-28,08;-35,62;-17,21;-19,77;11,2;3,44;56,74;6,3;1;0;
21200;-27,18;-33,23;-8,58;22,09;7,56;3,98;46,35;12,73;1;0;
21218;-27,23;-38,06;-20,31;-9,31;5,23;4,29;39,89;17,8;1;0;
21236;-28,38;-54,44;-8,43;-16,31;4,8;5,47;26,91;20,81;1;0;
21252;-31,16;-35,08;-21,84;5,44;4,36;6,39;12,54;22,01;1;0;
21273;-30,16;-33,25;-14,6;-6,66;3,87;6,67;5,33;22,57;1;0;
21290;-20,77;-39,06;-17,3;14,7;4,06;7,03;5,16;22,6;1;0;
21309;-24,02;-50,66;-15,17;-5,13;3,9;6,83;3,77;16,48;1;0;
21324;-24,02;-50,66;-15,17;-5,13;3,38;6,47;2,99;13,7;1;0;
21344;-23,5;-37,75;-20,28;-13,75;3,07;5,86;2,21;11,11;1;0;
21362;-24,35;-51,97;-17,24;-4,15;2,47;5,1;1,81;10,14;1;0;
21383;-26,77;-40,93;-10,29;-10,22;2,19;4,69;1,89;8,8;1;0;
21401;-23,8;-40,5;-17,98;-8,68;1,96;4,25;1,88;5,17;1;0;
21419;-28,61;-39,26;-17,35;-7,41;2,15;4,16;2,06;3,82;1;0;
21438;-34,51;-35,62;-15,26;-5,94;3,41;3,39;1,96;2,93;0;0;
21457;-22,53;-35,78;-19,42;-16,5;3,67;3,15;1,92;2,3;0;0;
21473;-27,34;-36,04;-12,27;-4,23;3,87;3,11;2,17;2,23;0;0;
21491;-29,96;-37,22;-19,04;-4,8;3,82;3,07;1,87;2,27;0;0;
21509;3;-48,64;-12,97;-8;5,2;3,43;1,93;2,18;0;0;
21533;-22,52;-34,29;-15,72;-3,43;7,7;4,51;1,88;2,62;0;0;
21549;-56,87;-43,27;-17,17;-4,96;9,85;4,56;2,16;2,72;0;0;
21568;-10,91;-42,31;-18,85;-3,71;11,51;4,95;2,04;2,43;0;0;
21590;-46,24;-40,63;-15,73;-4,84;15,06;5,05;1,74;2,33;0;0;
21611;-27,16;-38,66;-18,56;-13,42;25,07;4,67;1,84;2,32;0;0;
21630;-25,35;-38,65;-20,19;-5,34;26,34;4,38;1,8;2,23;0;0;
21647;-6,42;-40,4;-21,69;-8,44;27,29;3,53;1,95;1,74;0;0;
21667;-50,73;-37,69;-16,07;-5,22;26,41;3,79;1,86;1,79;0;0;
21684;-50,73;-37,69;-16,07;-5,22;27,34;3,47;1,81;1,89;0;0;
21701;-23,53;-40,18;-18,71;-10,36;20,68;3,62;1,92;1,81;0;0;
21720;-33,28;-41,04;-16,85;-10,95;16,16;3,84;1,95;1,68;0;0;
21738;12,42;-33,67;-22,94;-6,68;19,66;4,12;2,16;1,86;0;0;
21758;-61,97;-40,7;-15,75;-9,4;22,28;3,9;1,93;2,18;0;0;
21776;-42,76;-39,96;-15,79;-5,42;26,52;3,73;1,86;2,08;0;0;
21793;-48,99;-25,21;-19,19;-3,98;26,62;3,83;2,06;1,99;0;0;
21811;-25,31;-41,62;-19,36;0,22;28,25;3,37;2,1;2,55;0;0;
21827;-26,11;-44,76;-14,8;-3;23,35;3,98;2,31;2,38;0;0;
21845;-26,11;-44,76;-14,8;-3;17,02;4,22;2,2;2,42;0;0;
21862;-25,91;-29,21;-17,61;-3,71;10,1;5,12;2,2;2,19;0;0;
21881;-22,01;-38,54;-21,06;-10,85;6;5,49;2,2;2,29;0;0;
21901;-23,75;-37,15;-18,15;-4,72;2,01;5,13;2,03;2,09;0;0;
21917;-26,65;-39,41;-16,24;-6,65;1,8;4,98;1,85;2,08;0;0;
21935;-25,34;-39,65;-16,85;-5,74;2,56;4,38;1,73;2,1;0;0;
21951;-24,37;-38,03;-16,52;-3,99;3,77;3,45;1,76;2,04;0;0;
21970;-21,38;-37,71;-17,69;-8,25;4,29;3,35;1,74;2,08;0;0;
21990;-21,81;-48,94;-17,91;-6,87;4,16;3,55;1,7;1,97;0;0;
22006;-25,51;-41,64;-16,16;-10,74;4,29;3,57;1,72;2,09;0;0;
22022;-25,51;-41,64;-16,16;-10,74;3,97;3,23;1,76;2,19;0;0;
22041;-17,33;-46,47;-18;-8,23;3,16;3,86;1,71;1,95;0;0;
22059;-23,89;-30,4;-14,6;-5,03;2,45;4,38;1,69;1,82;0;0;
22075;-26,6;-41,63;-23,83;-7,67;1,99;4,65;1,73;1,56;0;0;
22092;-23,15;-42,59;-12,45;-6,57;2,02;4,73;1,93;1,67;0;0;
22109;-22,18;-34,25;-18,66;-8,41;2,16;5,2;1,97;1,59;0;0;
22125;-22,18;-34,25;-18,66;-8,41;2,21;5,52;2;1,49;0;0;
22142;-23,54;-34,75;-16,05;-6,55;2,53;5,46;1,94;1,49;0;0;
22159;-23,06;-29,59;-19,08;-3,93;2,61;5,06;1,91;1,68;0;0;
22175;-23,45;-36,2;-12,66;-11,38;2,74;5,52;1,82;1,75;0;0;
22192;-20,13;-33,95;-17,52;-2,65;2,84;5,39;1,89;1,73;0;0;
22212;-22,28;-39,16;-16,57;-10,36;2,79;5,9;1,83;1,83;0;0;
22229;-24,47;-44,87;-14,57;-4,45;2,49;6,08;1,81;1,97;0;0;
22247;-26,66;-35,29;-16,35;-9,44;2,35;5,49;1,91;2,11;0;0;
22262;-26,66;-35,29;-16,35;-9,44;2,48;5,35;1,78;1,91;0;0;
22282;-20,51;-35,01;-13,08;-5,61;2,46;5,46;1,81;1,95;0;0;
22304;-25,44;-29,74;-20,47;-4,98;3;6,06;1,85;2,31;0;0;
22323;-28,89;-39,02;-18,05;-0,96;3,33;4,87;1,81;2,72;0;0;
22341;-22,8;-36,48;-18,72;-10,3;3,09;4,77;1,75;2,84;0;0;
22358;-26,8;-32,55;-18,34;-8,21;3,1;4,8;1,82;3,12;0;0;
22376;-22,93;-39,93;-18,44;-7,3;2,84;4,49;1,75;2,98;0;0;
22394;-22,61;-50,61;-15,65;-8,1;2,29;4,14;1,73;2,77;0;0;
22410;-24,88;-32,72;-16,87;-8,59;1,92;3,25;1,7;2,21;0;0;
22427;-23,57;-36,19;-17,67;-11,79;1,69;3,36;1,83;2,02;0;0;
22448;-21,42;-26,98;-14,6;-8,82;1,81;4,07;1,99;1,77;0;0;
22467;-25,22;-47,72;-19,65;-6,89;1,78;4,62;2,12;1,83;0;0;
22488;-20,49;-51,86;-17,89;-4,82;1,95;4,98;2,2;1,81;0;0;
22505;-20,49;-51,86;-17,89;-4,82;2,04;5,51;2,15;1,65;0;0;
22522;-19,61;-42,75;-16,77;-6,28;2,14;5,47;2,26;1,74;0;0;
22541;-27,45;-40,98;-15,1;-11,06;2,17;5,12;2,08;1,91;0;0;
22557;-26,47;-36,51;-16,49;-2,77;2,05;4,06;2;2,31;0;0;
22575;-24,16;-42,51;-14,64;-5,7;1,93;3,59;1,78;2,33;0;0;
22592;-24,52;-38,39;-14,69;-5,06;1,77;3,02;1,75;2,7;0;0;
22609;-25,72;-46,42;-16,63;-2,7;1,68;2,73;1,63;2,84;0;0;
22626;-22,61;-30,24;-16,06;-5,86;1,65;3,01;1,82;2,84;0;0;
22642;-22,61;-30,24;-16,06;-5,86;1,8;3,43;1,92;2,55;0;0;
22659;-27,68;-45,47;-13,62;-7,32;2,31;4,33;2,07;3,3;0;0;
22676;-22,88;-31,1;-14,42;-4,98;2,35;4,56;2,14;3,21;0;0;
22695;-26,45;-37,95;-14,84;-8,26;2,58;4,79;2,25;3,37;0;0;
22713;-27,36;-44,77;-18,12;-18,77;2,54;4,44;2,52;3,58;0;0;
22730;-26,24;-36,82;-21,29;-7,01;2,36;4,36;2,6;4,99;0;0;
22749;-21,33;-41,71;-15,33;-22,58;2,06;3,45;3,04;6,1;0;0;
22769;-24,87;-35,78;-26,34;26,43;1,75;2,94;3,38;9,15;0;0;
22787;-19,86;-43,47;-31,16;-17,68;1,6;3,2;4,21;18,28;0;0;
22804;-19,86;-43,47;-31,16;-17,68;1,43;3,46;5;27,15;0;0;
22820;-22,65;-48,38;-20,95;-5,61;1,63;3,66;5,18;28,42;0;0;
22840;-25,86;-32,34;-30,75;-46,53;1,77;4,26;5,48;34,02;0;0;
22861;-26,31;-35,98;-26,02;43,77;1,74;4,57;6,05;36,57;0;0;
22877;-21,88;-35,97;-11,29;-8,71;1,83;4,52;5,79;34,89;0;0;
22894;-23,57;-38,65;-12,84;6,61;1,89;4,03;5,11;29,83;0;0;
22914;-21,18;-40,77;-9,33;-20,79;1,83;3,65;5,01;28,28;0;0;
22932;-26,23;-41,03;-12,01;-12,17;1,59;3,46;5,3;26,65;0;0;
22949;-33,64;-38,48;-23,75;70,1;1,79;4,02;4,82;24,97;0;0;
22966;-17,14;-51,25;-15,6;15,59;2,45;6,29;4,6;24,89;0;0;
22984;-17,14;-51,25;-15,6;15,59;3;8,75;5,2;26,71;0;0;
23002;-10,83;-32,26;-16,28;-11,46;4,2;10,71;5,25;28,26;0;1;
23020;-31,4;-38,82;-9,11;18,32;4,63;11,25;4,96;31,09;0;1;
23037;-16,09;-48,98;-23,09;16,29;4,7;11,74;5,22;28,88;0;1;
23055;-30,05;-37,36;-23,2;-8,9;4,47;11,42;5,14;27,04;0;1;
23073;-28,82;-40,92;-18,69;-9,81;4,14;10,18;4,56;23,54;0;1;
23091;-18,98;-26,25;-14,26;-42,11;3,44;9,18;4,38;19,13;0;1;
23112;-19,67;-40,22;-16,48;6,24;3,86;9,7;4,17;18,5;0;1;
23129;-27,61;-31,46;-18,68;-9,83;4,54;8,89;3,82;14,62;0;1;
23145;-27,61;-31,46;-18,68;-9,83;5,05;6,77;3,41;11,9;0;1;
23161;-24,32;-29,16;-21,18;-16,96;4,79;5,81;2,86;11,3;0;1;
23180;-17,11;-36,08;-21,21;8,63;5,5;6,14;3,04;12,31;0;1;
23197;-25,39;-29,09;-12,36;-8;5,87;5,85;2,82;13,07;0;1;
23213;-22,33;-20,25;-17,32;22,16;5,11;6,5;2,65;15,19;0;1;
23230;-28,34;-52,17;-19,34;11,23;4,37;7,81;2,81;16,46;0;1;
23247;-13,53;-44,43;-18,04;12,43;4,64;8,08;3,01;16,62;0;1;
23263;-13,53;-44,43;-18,04;12,43;4,46;8,09;2,9;16,44;0;1;
23281;-23,09;-43,45;-13,77;0,32;4,17;7,68;2,85;15,41;0;1;
23298;-31,25;-34,21;-16,65;4,17;4,11;8,24;2,65;12,6;0;1;
23315;-26,11;-40;-15,17;4,56;3,82;7,35;2,72;9,79;0;1;
23333;-23,07;-41,37;-20,71;37,26;4,32;6,9;2,58;11,76;0;0;
23351;-21,9;-46,8;-13,18;-2,46;4,16;7,42;2,44;13,38;0;0;
23367;-31,91;-53,46;-13,07;-13,15;4,22;8,53;2,33;11,5;0;0;
23386;-31,91;-53,46;-13,07;-13,15;4,48;9,65;2,33;11,12;0;0;
23404;-25,11;-34,83;-12,62;-6,43;4,45;9,5;2,1;10,24;0;0;
23424;-32,06;-28,01;-13,78;-7,1;4,63;10,26;2,2;8,86;0;0;
23443;-24,87;-48,24;-14,66;-6,89;4,5;10,12;2,26;3,63;0;0;
23462;-29,48;-33,51;-20,87;-5,24;4,39;9,38;2,25;2,19;0;0;
23482;-25,55;-48,84;-17,96;-38,17;4,36;9,14;2,54;2,9;0;0;
23505;-22,67;-39,33;-13,55;-9,87;4,11;8,44;2,58;3,23;0;0;
23525;-29,44;-46,54;-12,3;-4,07;3,84;6,87;2,38;3,87;0;0;
23541;-29,44;-46,54;-12,3;-4,07;3,18;6,27;2,38;4,44;0;0;
23559;-28,04;-37,51;-14,01;-12,11;3,13;5,12;2,53;5,8;0;0;
23578;-20,66;-38,84;-18,96;-6,55;2,84;4,86;2,13;6,12;0;0;
23596;-23,95;-31,15;-19,2;-3,1;2,57;3,73;2,66;5,1;0;0;
23616;-22,45;-31;1,2;-3,76;2,63;4,22;4,17;4,88;0;0;
23637;-29,62;-33,85;-236,2;-3,01;3,02;5,36;10,96;4,4;0;0;
23653;-29,62;-33,85;-236,2;-3,01;3,46;6,24;17,54;2,61;0;0;
23671;-31,51;-43,25;-54,3;-1,25;3,58;6,08;28,4;2,27;0;0;
23689;-25,11;-40,15;40,05;-4,23;3,45;5,98;58,67;2,54;0;0;
23708;-23,32;-46,92;-32,91;-11,72;3,23;5,21;94,1;3,12;1;0;
23725;-23,32;-46,92;-32,91;-11,72;2,72;4,03;113,1;3,73;1;0;
23742;-23,22;-41,4;-52,89;-10,43;2,46;4,58;113,52;3,85;0;0;
23760;-25,47;-36,6;155,82;-12,09;2,67;4,92;119,36;3,72;0;0;
23781;-24,89;-42,57;-22,58;-8,99;2,21;4,6;102,95;3,64;0;0;
23799;-25,49;-52,52;-64,4;0,57;1,8;4,52;114,06;3,51;0;0;
23820;-23,94;-41,6;-91,25;-12,13;1,63;4,84;110,3;3,48;0;0;
23840;-22,7;-47,2;-275,14;-5,1;1,63;4,32;103,97;3,71;0;0;
23857;-22,69;-37,42;0,87;-9,55;1,83;4,41;100,73;4,02;0;0;
23875;-25,49;-40,79;-76,22;-4,48;1,94;4,18;103,48;3,98;0;0;
23896;-13,39;-43,33;-5,22;-10,09;3,88;4,06;91,73;3,83;0;0;
23913;-5,79;-40,08;-22,09;-7,24;10,46;3,11;66,26;3,22;0;0;
23932;-49,33;-48,59;199,91;-5,65;13,84;3,4;73,01;3,23;0;0;
23952;22,08;-39,1;99,3;-7,34;18,51;3,1;78,98;2,64;0;0;
23970;-31,44;-35,95;-20,84;-3,17;21,7;3,12;67,12;2,24;0;0;
23991;-24,26;-36,65;-16,74;-10,83;27,71;3,38;55,62;2,34;0;0;
24009;-22,76;-24,51;-16,35;-7,66;30;4,5;49,37;2,71;0;0;
24026;-59,85;-45,5;-17,95;-16,5;28,97;5,36;43,39;6,13;0;0;
24043;-59,85;-45,5;-17,95;-16,5;31,6;5,43;27,14;9,72;0;0;
24063;-142,01;-34,51;-43,62;-3,18;36,8;6,05;4,6;10,85;0;0;
24082;72,5;-35,78;-37,16;-8,13;41,91;5,65;10,51;11,19;0;0;
24101;-74,35;-41,28;-7,7;-4,95;43,41;5,76;23,04;10,91;0;0;
24118;7,22;-40,05;-20,63;-5,34;44,1;5,27;24,55;10,51;0;0;
24139;5,58;-36,14;-9,53;-8,09;46,31;5,58;24,99;9,77;0;0;
24158;-22,73;-30,92;18,05;-1,07;44,56;5,56;28,97;7,93;0;0;
24175;43,38;-40,69;-19,76;-8,27;38,33;5,74;24,44;6,96;0;0;
24193;-10,52;-37,17;-10,75;-12,76;36,34;5,31;19,37;7,02;0;0;
24211;18,93;-31,05;-13,36;-10,12;36,89;5,3;8,98;6,55;0;0;
24228;-39,83;-41,23;-19,81;-42,86;40,93;4,85;8,04;6,31;0;0;
24246;-28,15;-36,97;-19,01;-35,27;39,72;4,8;6,81;5,8;0;0;
24263;-28,15;-36,97;-19,01;-35,27;39,78;4,6;2,46;6,57;0;0;
24279;-53,17;-43,82;-19,13;1,17;36,29;4,87;2,7;7,26;0;0;
24299;-138,71;-34,14;-21,43;-2,75;41,51;5,64;2,53;7,98;0;0;
24321;42,75;-32,25;-9,38;-8,97;40,36;6,28;2,92;7,95;0;0;
24338;43,1;-39,43;-17,37;-7,08;39,86;6,42;3,14;6,24;0;0;
24354;4,62;-42,76;-13,13;-3,48;37,81;6,33;3,17;4,98;0;0;
24372;-148,53;-39,12;-16,84;-4,28;42,55;5,61;3;4,29;0;0;
24389;29,07;-38,45;-19,42;-8,71;45,18;5,05;3,14;3,23;0;0;
24405;29,07;-38,45;-19,42;-8,71;45,13;3,96;3,3;3,59;0;0;
24421;-37,88;-37,4;-18,3;-8,67;35,43;3,34;2,6;3,04;0;0;
24439;-25,29;-38,73;-17,07;-5,34;30,93;3,06;2,54;2,89;0;0;
24457;-6,95;-25,85;-62,39;-10,1;30,35;3,41;3,76;2,66;0;0;
24476;3,21;-46,77;-172,37;-6,97;22,66;4,05;35,1;2,53;0;0;
24492;-64,94;-32,49;-232,6;-17,42;21,57;4,69;61,66;2,54;0;0;
24510;-52,42;-48,21;-81,77;-0,93;22,9;4,91;85,16;3,11;0;0;
24527;-61,63;-41;-15,31;-13,46;34,95;5,12;95,28;3,49;0;0;
24545;-61,63;-41;-15,31;-13,46;45,24;5,05;105,47;3,71;0;0;
24561;-0,37;-34,02;-65,25;-1,41;44,19;5,02;106,39;4,17;0;0;
24578;-52,7;-36,92;7,56;-8,82;45,26;4,66;108,68;4,46;0;0;
24597;-36,66;-38,66;5,14;-7;42,17;4,45;85,13;3,78;0;0;
24615;30,18;-34,04;-39,62;-4,7;37,12;4,98;83,66;4,11;0;0;
24636;-120,31;-42,34;-4,23;-8,98;33,88;4,76;81,68;3,96;0;0;
24654;-46,91;-43,17;-285,79;-10,93;34,01;4,32;92,61;3,74;0;0;
24672;-49,36;-41,48;-54,45;-6,48;34,67;4,21;83,96;3,24;0;0;
24690;-48,71;-36,11;-45,93;-12,39;36,18;4,01;88,12;3,27;0;0;
24712;77,9;-36,73;-58,98;-8,36;38,52;3,46;103,08;3,23;0;0;
24732;23,04;-40,18;-69,8;-7,41;42,2;3,73;100,92;3,02;0;0;
24749;-25,29;-39,9;-226,52;3,72;37,54;3,78;105,39;2,89;0;0;
24768;-134,89;-37,15;76,37;-3,12;38,76;3,48;97,49;2,89;0;0;
24785;-54,73;-40,66;-8,48;-3,67;37,64;3,47;81,99;2,57;0;0;
24800;-54,73;-40,66;-8,48;-3,67;35,54;3,33;57,31;2,13;0;0;
24815;11,03;-40,54;-3,69;-7,29;30,23;3,36;45,46;2,22;0;0;
24833;-36,58;-43,45;-13,75;-3,18;26,51;2,78;38,76;2,48;0;0;
24851;-21,92;-44,7;-15,37;-15,26;23,21;3,15;20,13;2,41;0;0;
24866;-24,54;-41,63;-16,99;-2,69;17,3;3,82;8,89;3;0;0;
24881;-24,54;-41,63;-16,99;-2,69;12,42;4,34;4,71;3,63;0;0;
24898;-22,97;-40,9;-18,06;6,34;7,3;4,25;3,51;5,1;1;0;
24915;-20,83;-41,52;-9,83;-15,95;3,42;3,92;2,61;5,9;1;0;
24932;-26,94;-40,28;-17,67;-4,57;2,49;3,89;2,3;6,24;1;0;
24950;-26,38;-34,77;-16,11;-17,65;4,07;3,87;2,68;8,55;1;0;
24969;170,24;-40,3;-20,9;-36;17,48;3,37;2,57;10,32;1;0;
24989;-60,7;-42,91;-13,24;-8,78;24,29;3,02;3,65;8,95;1;0;
25005;-60,7;-42,91;-13,24;-8,78;31,22;3,26;4,88;8,31;1;0;
25022;-39,27;-40,12;-19,42;-32;32,59;3,31;4,84;9,09;1;0;
25041;-11,93;-26,83;-15,93;-3,2;32,99;5,24;4,55;8,48;1;0;
25061;-26,61;-40,59;-17;-4,39;30,95;6,09;4,82;6,67;1;0;
25082;-21,8;-36,83;-17,01;-3,04;14,69;6,02;3,98;5,54;1;0;
25102;-25,6;-45,77;-17,74;2,02;7,69;5,83;2,67;6,24;1;0;
25120;-24,61;-43,75;-17,9;-9,07;4,11;5,97;2,26;6,18;1;0;
25137;-11,1;-40,26;-20,5;-18,42;3,31;5,33;2,36;4,9;1;0;
25154;-152,38;-61,08;-21,12;-2,34;24,07;3,98;2,5;5,19;1;0;
25172;65,17;-41,34;-22,78;-6,02;32,87;3,35;2,34;5,68;1;0;
25192;-16,65;-38,21;-13,38;-29,77;37,57;3,39;2,31;5,92;1;0;
25213;-46,42;-45,79;-21,26;-16,97;42,1;3,14;2,58;6,12;1;0;
25232;-22,13;-52,29;-13,04;-14,4;43,24;3,96;2,81;6,46;0;0;
25249;-28,67;-33,78;-20,12;-7,06;35,69;5,61;2,55;5,39;0;0;
25290;50,82;-46,5;-14,3;-5,36;24,69;5,07;2,81;4,76;0;0;
25313;-9,81;-32,8;-30,01;-5,43;27,02;5,41;2,84;4,11;0;0;
25331;-128,02;-56,86;-27,34;-10,37;40,7;6,51;4,1;2,62;0;0;
25347;-50,14;-32,27;-15,13;-9,97;44,57;6,86;4,19;1,82;0;0;
25362;-50,14;-32,27;-15,13;-9,97;50,65;5,54;4,47;1,71;0;0;
25383;61,75;-37,6;-15,28;-6,42;60,66;4,98;4,37;1,8;0;0;
25405;15,88;-33,95;-16,6;-5,42;57,41;4,98;4,35;1,68;0;0;
25426;-58,31;-45,13;-15,6;-5,6;52,16;5,75;2,96;1,77;0;0;
25445;-21,46;-44,57;-14,44;-8,19;38,73;6,04;2,3;1,74;0;0;
25462;72,54;-32,53;-17,61;-3,59;37,9;5,9;2,04;1,87;0;0;
25481;-26,65;-43,86;-17,59;-5,07;37,11;5,77;1,85;2,05;0;0;
25499;24,97;-45,44;-13,34;-6,17;30,39;6,36;2,03;2,15;0;0;
25515;-104,21;-45,68;-16,47;-6,05;34,76;5,54;1,98;2,43;0;0;
25532;31,03;-33,23;-14,82;-9,11;40,32;4,83;2,05;2,31;0;0;
25549;-7,03;-34,35;-17,08;-7,62;38,83;4,34;2,08;2,54;0;0;
25568;-22,21;-35,24;-18,36;-0,56;33,32;4,32;2,06;2,42;0;0;
25588;-25,73;-30,77;-15,07;-5,7;30,14;4,12;2,01;3,25;0;0;
25606;-23,13;-39,5;-16,28;-6,77;24,73;4,57;1,88;3,12;0;0;
25623;-23,13;-39,5;-16,28;-6,77;9,79;4,89;1,93;3,09;0;0;
25641;-35,31;-38,19;-15,96;-8,75;4,07;4,09;1,94;3,05;0;0;
25657;-13,57;-40,99;-20,83;-7,9;4,62;4,25;2,06;2,63;0;0;
25674;-52,82;-38,61;-16,69;-1,3;4,76;3,75;1,8;2,01;0;0;
25690;-38,1;-38,39;-18,21;-7,79;11,85;2,58;1,82;1,46;0;0;
25709;-10,72;-39,32;-16,72;-8,03;13,66;2,32;1,71;1,43;0;0;
25727;-22,73;-47,61;-17,74;-6,31;12,94;2,4;1,66;1,49;0;0;
25744;-22,73;-47,61;-17,74;-6,31;12,05;2,36;1,54;1,65;0;0;
25760;-23,87;-41,58;-19,37;-9,8;9,86;2,87;1,43;1,52;0;0;
25780;-25,12;-42,28;-17,79;-7,93;6,71;3,18;1,31;1,81;0;0;
25797;-25,12;-42,08;-14,56;-10,09;3,63;3,33;1,56;1,88;0;0;
25816;-26,64;-42,76;-14,14;-6,07;2,17;3,6;1,7;2,09;0;0;
25833;-14,58;-41,13;-19,99;-7,3;2,44;3,5;1,66;2,09;0;0;
25849;-14,58;-41,13;-19,99;-7,3;3,29;3,19;1,66;2,04;0;0;
25867;-28,54;-43,81;-12,81;-6,21;3,31;2,99;1,75;1,92;0;0;
25884;-28,54;-43,81;-12,81;-6,21;3,41;2,93;1,87;1,77;0;0;
25901;-25;-31,6;-17,77;-6,34;3,45;3,1;1,99;1,61;0;0;
25918;-25,08;-40,36;-13,72;-5,46;3,39;3,6;2,14;1,45;0;0;
25935;-25,12;-41,33;-20,51;-6,67;2,75;4,34;2,17;1,45;0;0;
25954;-24,53;-35,58;-19,81;-7,5;2,09;4,42;2,2;1,54;0;0;
25972;-24,59;-42,11;-15,13;-5,89;1,99;4,17;2,17;1,69;0;0;
25991;-22,2;-38,21;-13,93;-6,04;2,25;5,64;2,15;1,94;0;0;
26009;-27,57;-35,81;-19,7;-9,24;2,17;5,52;1,91;2,08;0;0;
26028;-24,68;-43,22;-18,88;-3,66;1,9;5,22;2,02;2,16;0;0;
26044;-24,68;-43,22;-18,88;-3,66;1,99;4,31;2,04;2,26;0;0;
26063;-25,14;-39,02;-20,3;-5,22;2,19;5,13;2,13;2,33;0;0;
26081;-20,8;-34;-16,77;-4,9;2,02;4,44;1,87;2,31;0;0;
26098;-24,18;-33,03;-18,63;-5,94;1,73;3,74;1,86;1,97;0;0;
26117;-22,25;-36,77;-19,09;-2,77;1,81;3,84;1,76;2,15;0;0;
26135;-26,42;-35,11;-12,82;-6,31;1,86;4,14;1,69;1,96;0;0;
26152;-21,97;-37,01;-17,07;-11,59;1,81;3,69;1,67;1,84;0;0;
26169;-19,24;-35,96;-18,3;-6,26;2,02;3,78;1,66;1,93;0;0;
26187;-26,65;-36,34;-20,67;-5,73;1,89;3,39;2,02;1,9;0;0;
26207;-23,9;-37,1;-14,68;-7,43;1,84;4,12;2,31;1,95;0;0;
26224;-23,9;-37,1;-14,68;-7,43;1,7;5,02;2,65;1,74;0;0;
26242;-23,74;-40,38;-15,97;-8,76;1,55;4,72;2,77;1,43;0;0;
26260;-24,15;-38,77;-23,54;-6,93;1,46;4,6;2,72;1,47;0;0;
26276;-27,45;-36;-15,83;-6,88;1,56;4,09;2,52;1,36;0;0;
26294;-25,87;-41,82;-18,57;-11,22;1,77;3,39;2,23;1,37;0;0;
26314;-23,84;-34,63;-14,45;-10,08;1,83;2,75;1,84;1,58;0;0;
26331;-24,5;-43,46;-13,11;-11,84;1,67;3,05;1,76;1,64;0;0;
26348;-20,96;-38,78;-14,4;-8,15;1,66;3,2;1,57;1,71;0;0;
26365;-20,96;-38,78;-14,4;-8,15;1,68;3,84;1,45;1,73;0;0;
26383;-23,01;-31,76;-15,66;-8,03;1,54;3,81;2,57;1,64;0;0;
26401;-24,7;-41,05;-2,68;-4,16;1,33;3,85;3,74;1,67;0;0;
26417;-24,36;-38,33;-29,84;-5,97;1,49;3,76;8;1,53;0;0;
26435;-26,15;-39,91;-15,99;-11,73;1,5;3,11;8,98;1,42;0;0;
26453;-27,21;-39,63;-12,31;-4,58;1,51;2,53;9,06;1,54;0;0;
26470;-24,86;-42,62;-132,13;-8,11;1,63;2,29;19,59;1,58;0;0;
26487;-23,66;-32,52;-5,45;-9;1,48;2,09;19,67;1,73;0;0;
26507;-21,45;-38,28;-15,31;-9;1,48;3,09;16,7;1,74;0;0;
26526;-22,88;-42,41;-15,07;-7,05;1,68;3,52;15,47;1,78;0;0;
26543;-22,88;-42,41;-15,07;-7,05;1,97;3,85;15,37;1,85;0;0;
26559;-22,27;-32,63;-16,88;-7,42;1,82;3,94;13,05;1,76;0;0;
26578;-25,37;-38,14;-13,97;-5,25;1,9;4,33;4,22;1,78;0;0;
26595;-25,17;-39,36;-16,87;-10,72;1,97;3,67;2,75;1,82;0;0;
26612;-23,53;-39,99;-15,4;-8,03;1,89;2,99;2,42;1,95;0;0;
26629;-21,82;-37,19;-20,86;-9,73;1,7;2,68;2,44;1,92;0;0;
26645;-21,82;-37,19;-20,86;-9,73;1,61;2,35;2,45;1,95;0;0;
26662;-24,71;-35,01;-15,79;-5,67;1,62;2,47;2,53;1,96;0;0;
26678;-24,87;-35,74;-16,34;-6,95;1,54;2,68;2,23;1,7;0;0;
26696;-24,5;-39,59;-21,96;-3,15;1,6;3,03;3,74;1,53;0;0;
26715;-9,56;-40,1;-199,22;-4,38;2,69;3,31;20,61;1,98;0;0;
26733;-9,56;-40,1;-199,22;-4,38;3,75;3,47;37,62;2,56;0;0;
26750;-2,52;-37,12;-163,88;-7,06;13,76;3,18;63,19;2,79;0;0;
26768;-89,8;-44,31;3,25;-7,41;22,93;3,21;76,61;2,91;0;0;
26788;10,41;-32,92;-46,01;-8,65;29,78;3,16;83,74;3,06;0;0;
26807;-64,32;-46,82;-26,21;-6,17;34,25;3,3;75,85;2,86;1;0;
26824;-64,32;-46,82;-26,21;-6,17;38,28;3,62;60,2;2,37;1;0;
26842;-80,21;-41,24;-57,58;-15,19;40,17;4,42;57,81;2,33;1;0;
26862;-30,37;-48,62;-159,42;5,3;34,82;4,78;57,02;2,59;1;0;
26878;10,48;-43,13;88,43;-5,53;33,1;5,47;67,26;3,37;1;0;
26896;-33,33;-42,87;-247,09;-4,54;36,64;5,18;73,75;3,76;1;0;
26913;-99,69;-40,31;-69,47;-8,58;38,97;4,76;95,44;4,53;1;0;
26931;-17,05;-40,81;-34,54;-5,66;37,18;4,47;109,08;4,72;1;0;
26948;68,08;-44,31;30,01;-8,21;36,43;3,79;101,56;5,03;0;0;
26965;68,08;-44,31;30,01;-8,21;32,39;3,05;95,72;5,19;0;0;
26984;-48,66;-60,47;-68,13;-2,78;26,12;3,49;95,21;5,02;0;0;
27004;-19,83;-48,09;-9,92;-7,66;28,38;4,44;78,26;4,44;0;0;
27023;-30,2;-29,48;-6,45;-2,42;27,63;4,71;64,35;4,17;0;0;
27040;63,48;-35,5;-23,65;-1,71;40,11;5,56;40,97;5,55;0;0;
27056;-24,17;-34,5;-20,21;-15,35;42,9;6;28,18;7,13;0;0;
27074;-67,29;-39,17;-16,25;-4,82;46,41;5,91;18,14;8,52;0;0;
27094;-1,59;-40,47;-25,6;-10,32;48,83;4,97;8,93;10,38;0;0;
27113;6,98;-40,4;-22,79;3,32;47,58;4,67;6,61;13,37;0;0;
27133;-75,16;-43,94;-57,28;-18,7;47,62;5,31;6,31;18,99;0;0;
27149;7,04;-40,58;-21,82;16,31;41,13;4,79;7,41;17,86;0;0;
27170;-72,25;-39,1;-17,28;3,86;38,66;4,73;7,47;18,34;0;0;
27191;57,08;-41,94;-29,57;-11,89;38,78;4,68;12,89;16,82;0;0;
27207;-56,66;-42,32;-18,09;-7,03;42,81;4,18;12,54;15,56;0;0;
27223;-56,66;-42,32;-18,09;-7,03;42,81;3,6;12,55;9,64;0;0;
27239;0,22;-40,62;-14,72;-4,98;39,8;3,09;8,83;5,94;0;0;
27256;13,62;-38,44;-15,75;-8,74;39,32;3,08;8,19;3,66;0;0;
27272;-23,88;-40,72;-16,76;-23,37;39,41;3,5;3,23;2,54;0;0;
27288;-15,69;-34,05;-14,3;-7,49;34,26;3,61;2,48;2,97;0;0;
27308;-22,62;-41,34;-19,08;-7,05;33,95;3,86;2,27;3,01;0;0;
27325;-22,62;-41,34;-19,08;-7,05;37,45;3,93;2,29;3,12;0;0;
27341;-20,28;-45,8;-14,26;-6,93;33,53;3,86;2,5;3,32;0;0;
27357;-31,76;-39,86;-21,25;-6;26,92;3,69;2,59;3,63;0;0;
27377;-20,31;-39,84;-20,62;-7,15;21,62;3,98;2,4;3,48;0;0;
27395;-30,07;-35,86;-16,01;1,48;15,99;3,47;2,72;3,96;0;0;
27415;-23,23;-37,74;-15,13;-5,62;9,2;3,23;2,61;4,23;0;0;
27434;-42,29;-41,24;31,79;-3,22;8,77;3,28;5,23;4,21;0;0;
27453;35,21;-38,77;-22,08;-20,09;15,92;3,65;22,4;4,72;0;0;
27469;-38,03;-42,94;361,74;-0,79;24,17;4,01;46,28;5,19;0;0;
27484;-38,03;-42,94;361,74;-0,79;32,37;3,69;69,59;5,79;0;0;
27501;-85,54;-37,59;83,54;-0,68;38,91;3,84;103,99;6,22;1;0;
27521;-21,78;-35,92;43,3;-9,48;39,78;4,31;120,01;7,03;0;0;
27541;-27,18;-24,95;-136,3;-4,89;34,77;6,1;123,41;6,75;0;0;
27560;-27,16;-41,97;-480,53;-4,14;23,64;5,78;135,49;6,12;0;0;
27579;-21,7;-38,55;-117,34;-5,98;15,31;5,44;139,33;5,71;0;0;
27597;-25,19;-42,74;-178,44;-8,73;9,71;5,29;137,77;4,74;0;0;
27615;-98,18;-38,56;235,78;-16,2;8,51;5,16;151,6;4,05;0;0;
27632;48,66;-41,95;366,08;-2,66;24,42;4,28;146,3;3,65;0;0;
27651;-148,89;-43,71;-20,51;-11,02;32,1;3,43;164,95;4,46;0;0;
27670;11,58;-36,26;146,62;-8,79;44,3;4,17;137,75;4,52;0;0;
27690;-39,65;-45,3;88,03;-6,68;44,79;4,34;138,12;3,8;0;0;
27710;-22,7;-19,36;-76,67;2,4;45,42;8,05;114,72;3,53;0;0;
27728;-22,18;-38,99;-21,93;-5,28;34,29;8,34;91,39;3,69;0;0;
27744;-22,18;-38,99;-21,93;-5,28;21,29;8,77;71,33;3,5;0;0;
27760;32,33;-43,49;-19,15;-13,77;11,84;7,95;51,04;3,21;0;0;
27778;-153,91;-41,56;-17,16;-7,06;18,26;8,22;35,84;3,01;0;0;
27797;72,06;-43,13;-16;-24,87;27,29;5,92;22,26;4,17;0;0;
27814;25,06;-32,76;-21,76;-1,06;33,7;5,01;8,02;6,11;0;0;
27832;32,1;-39,04;-14,56;2,03;37,89;5,03;3,58;6,6;0;0;
27849;-40,25;-40,81;-12,93;7,53;49,65;4,72;2,63;9,32;0;0;
27866;-19,33;-38,81;-17,72;-10,33;49,6;4,57;2,48;9,69;0;0;
27889;-123,59;-43,18;-17,97;-7,07;45,88;4,2;2,34;9,75;0;0;
27908;4,45;-36,42;-9,22;-8,39;41,66;4,76;3,37;7,54;0;0;
27926;-1,65;-46,07;-14,97;-6,51;42,72;5,3;6,7;5,88;0;0;
27943;-1,65;-46,07;-14,97;-6,51;38,24;6,05;10,05;4,6;0;0;
27960;30,32;-44,29;-183,2;-8,89;38,02;5,9;15,8;2,08;0;0;
27982;-38,5;-30,59;-65,45;-8,39;37,12;6,61;35,79;1,77;0;0;
28000;-75,21;-34,75;-16,93;-8,96;36,14;6,52;48,14;1,78;0;0;
28016;-2,74;-34,14;-26,12;-10,36;36,22;5,3;49,49;2,02;0;0;
28034;-22,28;-38,05;-14,43;-4,53;32,94;4,41;46,03;2,11;0;0;
28050;-25,19;-42,71;-11,93;-11,65;26,96;4,12;44,32;3,33;0;0;
28068;-20,07;-45,9;-17,72;-4,2;20,83;4,38;24,68;3,45;0;0;
28084;-20,07;-45,9;-17,72;-4,2;15,97;3,83;15,82;3,49;0;0;
28102;-26,22;-36,83;-17,67;-8,14;7,15;3,73;3,47;3,4;0;0;
28118;-24,69;-47,97;-16,49;-2,04;4,08;4,25;1,76;3,72;0;0;
28135;-25,8;-48,22;-15,64;-18,36;3,63;4,6;1,65;4,36;0;0;
28152;-46;-37,14;-15,43;-10,39;4,38;4,67;1,64;3,81;0;0;
28170;-19,52;-39,33;-18,14;-8,19;4,32;4,21;1,52;3,74;0;0;
28185;-19,52;-39,33;-18,14;-8,19;4,63;3,58;1,48;3,74;0;0;
28203;-26,11;-44,51;-17,29;-8,39;4,57;3,5;1,45;3,55;0;0;
28222;-11,23;-54,01;-17,13;-7,79;4,88;3,24;1,58;2,94;0;0;
28241;-30,14;-33,07;-16,96;-3,55;5,39;3,38;1,5;1,95;0;0;
28258;-23,39;-30,57;-15,79;-3,97;3,92;4,75;1,61;2,21;0;0;
28276;-30,61;-22,13;-18,22;-5,08;3,14;5,69;1,66;2,2;0;0;
28292;-33,46;-38,32;-17,12;-4,05;3,77;6,21;1,74;2,05;0;0;
28311;-26,09;-28,1;-17,78;-6,6;3,96;6,63;1,53;2,07;0;0;
28328;-23,15;-43,08;-20,9;-5,78;3,08;6,85;1,62;2,07;0;0;
28346;-18,69;-31,67;-19,17;-4,07;3,06;6,73;1,61;2,04;0;0;
28363;-18,69;-31,67;-19,17;-4,07;3,46;6,11;1,57;1,89;0;0;
28381;-27,59;-53,82;-11,86;-3,23;3,52;5,82;1,61;1,92;0;0;
28399;-23,29;-43,73;-18,76;-8,75;3,28;6,4;1,64;1,81;0;0;
28415;-27,68;-38,83;-19,34;-7,9;3,56;5,84;1,75;1,91;0;0;
28434;-23,34;-36,8;-20,02;-9,91;3,61;5,73;1,9;1,73;0;0;
28452;-22,26;-34,01;-16,02;-6,34;3,4;5,43;2,04;1,59;0;0;
28472;-25,18;-42,48;-16,39;-9,99;3,31;4,84;2,09;1,53;0;0;
28487;-24,14;-38,19;-12,95;-3,99;2,74;4,5;2,13;1,52;0;0;
28508;-26,82;-34,2;-19,14;-11,08;2,38;3,71;2,44;1,72;0;0;
28527;-23,73;-39,81;-19,12;-8,83;2,02;3,47;2,22;1,75;0;0;
28543;-23,73;-39,81;-19,12;-8,83;2,12;3,46;1,84;1,78;0;0;
28559;-21,17;-48,62;-17,28;-6,77;2,03;4,03;1,87;1,87;0;0;
28577;-29,67;-29,29;-17,01;-4,71;2;4,29;1,97;1,84;0;0;
28595;-25;-44,82;-16,29;-4,19;1,99;4,37;1,71;1,98;0;0;
28610;-26,3;-37,71;-14,61;-8,77;2;4,24;1,55;1,99;0;0;
28629;-20,02;-37,49;-13,06;-4,98;1,86;4,28;1,8;2,2;0;0;
28645;-20,02;-37,49;-13,06;-4,98;1,59;4,15;1,99;2,42;0;0;
28663;-24,13;-40,32;-14,32;-6,43;1,6;4;2,04;2,33;0;0;
28678;-23,77;-28,42;-18,39;-3,69;1,75;3,89;2,07;2,48;0;0;
28695;-23,6;-41,88;-14,24;-8,67;1,8;4,1;2,27;2,19;0;0;
28713;-19,67;-33,84;26,06;-3,5;2,22;4,55;5,16;2,36;0;0;
28732;-23,53;-38,97;308,77;-10,98;2,32;4,97;33,05;2,49;1;0;
28748;-25,48;-40,26;-26,47;-9,54;2,34;4,38;53,03;2,95;1;0;
28765;-25,48;-40,26;-26,47;-9,54;2,03;3,88;73,02;3,59;1;0;
28781;-18,15;-32,31;-13,77;-7,4;2,29;3,96;73,22;3,32;1;0;
28799;-26,38;-38,29;-15,66;-8,39;2,14;3,37;72,94;3,36;1;0;
28815;-25,93;-44,62;-19,41;-3,37;2,1;2,82;62,36;3,12;1;0;
28833;-24,82;-41,51;-16,62;-5,42;2,05;2,85;26,21;2,52;1;0;
28852;-22,9;-30,11;28,94;-3,63;2;4,88;6,92;2,23;1;0;
28869;-27,63;-28,61;-259,3;-13,16;1,98;5,85;24,1;2,48;1;0;
28886;-25,19;-42,3;2,92;-15,73;1,84;5,7;42,72;2,84;1;0;
28906;-24,82;-42,28;128,59;-6,47;1,91;5,82;62;3,54;1;0;
28923;-24,82;-42,28;128,59;-6,47;1,84;5,99;81,29;4,05;1;0;
28944;-31,14;-29,52;-5,53;-5,97;2,1;5,2;103,2;4,54;1;0;
28960;-23,18;-35,76;-105,08;-5,51;2,17;5,27;115,19;4,37;0;0;
28980;-23,16;-41,02;35,36;-0,83;2;4,48;101,51;4,26;0;0;
29000;-17,52;-42,68;-85,66;-3,68;2,12;4,98;105,78;4,2;0;0;
29017;8,31;-42,64;6,52;-9,52;6,34;5,67;97,83;3,89;0;0;
29036;-57,16;-35,52;82,76;-5,8;8,13;5,41;99,5;3,27;0;0;
29052;-85,03;-40,02;-22,63;-10,95;18,29;4,84;87,46;3,28;0;0;
29071;41,59;-31,52;-208,46;-8,32;24,33;5,24;87,12;3,45;0;0;
29092;-1,35;-43,27;135,34;-9,52;30,73;5,69;113,38;3,04;0;0;
29112;-64,35;-35,93;87;-0,07;35,99;5,19;118,14;3,14;0;0;
29130;-103,48;-48,15;-50,15;0,19;38,86;5,17;104,37;3,16;0;0;
29147;-45,42;-65,71;-42,34;-9,53;37,39;6,4;98,27;2,95;0;0;
29167;-5,44;-49,73;-21,01;-9,19;29,69;7,27;90,26;2,83;0;0;
29183;-5,44;-49,73;-21,01;-9,19;27,93;7,77;63,55;2,82;0;0;
29199;-55,32;-45,27;-20,51;-7,9;24,82;7,62;39,21;2,95;0;0;
29216;-17,77;-35,61;-15,2;-11,29;21,17;7,62;24,4;7,71;0;0;
29233;-138,24;-43,74;-14,89;-2,9;25,79;7,2;16,52;8,15;0;0;
29253;-39,94;-42,18;-16,72;-4,01;27,14;5,2;12,66;9,36;0;0;
29273;-24,9;-30,33;-18;-28,35;27,71;4,21;6,56;10,14;0;0;
29290;-67,27;-38,14;-17,19;-0,6;28,34;4,2;1,82;10,61;0;0;
29311;-69,79;-47,87;-15,3;-10,96;29,03;4,48;1,85;8,12;0;0;
29330;-86,2;-41,35;-17,41;-9,19;29,08;4,81;1,86;6,66;0;0;
29348;34,47;-40,61;-17,44;-7,63;24,55;4,56;1,68;6,77;0;0;
29365;34,47;-40,61;-17,44;-7,63;23,47;4,61;1,6;6,92;0;0;
29381;-110,05;-34,51;-13,45;-8,44;29,56;4,26;1,63;5,71;0;0;
29397;34,29;-29,4;-10,15;-6,76;34,66;3,85;1,87;5,33;0;0;
29414;73,8;-39,79;-12,44;-6,37;38,36;3,44;2,27;4,34;0;0;
29430;73,8;-39,79;-12,44;-6,37;43,24;3,72;2,85;2,98;0;0;
29452;-73,58;-44,13;-15,06;-3,3;45,87;3,93;3,12;2,38;0;0;
29469;-53,81;-37;-21,11;-8,02;43,94;4,21;3,11;2,33;0;0;
29485;-53,81;-37;-21,11;-8,02;36,17;4,6;2,83;2,88;0;0;
29502;15,51;-33,85;-14,81;-4,19;31,03;4,57;2,4;3,1;0;0;
29519;-41,6;-42,47;-17,42;-5,36;28,02;4,68;2,1;3,33;0;0;
29540;8,45;-38,15;-16,58;-10,54;31,67;5,31;1,71;3,34;0;0;
29558;14,26;-43,97;-14,55;-14,4;32,58;5,44;1,86;3,14;0;0;
29576;-49,54;-30,17;-17,48;-9,93;36,84;5,15;1,79;3,07;0;0;
29594;8,26;-39,25;-21,89;-6,22;41,4;5,21;1,77;2,65;0;0;
29613;-23,04;-40,2;-14,37;-5,51;36,73;4,64;1,75;2,16;0;0;
29629;-32,44;-45,73;-16,46;-3,94;37,44;4,58;1,71;2,19;0;0;
29646;-64,53;-49,44;-19,44;-5,83;36,57;4,95;1,66;1,99;0;0;
29663;-64,53;-49,44;-19,44;-5,83;37,02;4,81;1,69;1,86;0;0;
29678;-96,31;-49,05;-15,09;-6,87;35,69;5,27;1,97;1,7;0;0;
29696;-77,73;-39,71;-15,25;-7;41,72;5,46;1,91;1,78;0;0;
29714;-26,1;-40,87;-13,39;-6,8;40,61;4,73;2,12;1,76;0;0;
29730;-104,12;-39,86;-17,12;-8,42;41,06;4,25;2,07;1,65;0;0;
29746;34,19;-46,38;-14,29;-8,6;48,17;3,98;2,19;1,57;0;0;
29763;34,19;-46,38;-14,29;-8,6;53,82;3,58;2,22;1,62;0;0;
29780;-51,32;-42,58;-15,67;-9,53;54,11;3,63;1,97;1,87;0;0;
29796;-91,72;-44,28;-18,52;-7,39;53,81;4,09;1,89;2,05;0;0;
29813;-21,81;-39,55;-16,64;-12,05;57,28;4,7;2,03;2,12;0;0;
29831;-14,05;-42,57;-16,28;-5,1;50,87;4,87;2,07;2,08;0;0;
29848;-99,3;-38,65;-14,49;-0,76;42,82;4,76;1,92;2,42;0;0;
29864;-99,3;-38,65;-14,49;-0,76;36,75;4,63;1,81;2,72;0;0;
29881;19,29;-30,54;-17,37;-10,21;42,01;4,32;1,88;2,53;0;0;
29898;-21,56;-29,42;-14,74;-5,64;34,83;4,95;1,91;2,39;0;0;
29915;-90,65;-44,67;-13,47;-4,47;33,67;4,78;1,87;2,38;0;0;
29933;-35,34;-48,84;-12,3;-8,12;40,39;4,83;2,01;2,34;0;0;
29950;68,85;-43,49;-13,59;-9,11;41,94;4,97;2,02;1,97;0;0;
29967;-31,29;-33,67;-17,49;-8,89;35,35;4,96;2,09;1,72;0;0;
29986;-36,72;-39,82;-18,25;-9,57;36,28;4,33;2,08;1,8;0;0;
30002;-36,72;-39,82;-18,25;-9,57;42,45;3,8;2,15;1,75;0;0;
30021;-28,92;-35,67;-18,47;-6,84;38,28;3,35;2,08;1,96;0;0;
30039;1,28;-37,49;-17,48;-6,68;36,9;3,06;2,02;2,08;0;0;
30058;-21,37;-50,31;-17,56;-6,05;33,7;3,38;1,93;2,22;0;0;
30076;-27,27;-36,96;-14,56;-6,59;31,12;3,52;1,81;2,11;0;0;
30091;-49,99;-34,94;-20,34;-8,01;27,55;3,91;1,82;1,98;0;0;
30109;-14,24;-39,26;-14,28;-6,71;27,9;3,89;1,84;2,15;0;0;
30128;-56,78;-47,7;-20,91;-11,09;25,64;4,11;1,8;1,92;0;0;
30146;-28,61;-32,79;-17,38;-7,35;28,44;4,3;1,51;2,01;0;0;
30161;-28,61;-32,79;-17,38;-7,35;32,43;4,31;1,57;2,03;0;0;
30179;-3,79;-40,27;-18,6;-9,42;30,23;4,11;1,86;2,1;0;0;
30199;-20,35;-41,59;-12,72;-9,79;24,88;4,08;1,93;2,07;0;0;
30217;-26,84;-45,61;-19,46;-3,2;21,75;4,17;1,89;2;0;0;
30234;-21,92;-47,01;-15,24;-12,01;16,4;4,15;2,14;2;0;0;
30251;-39,23;-41,83;-16,46;-6,91;9,14;4,12;2,21;2;0;0;
30267;-21,75;-36,49;-14,81;-8,07;6,93;4,12;2,27;1,98;0;0;
30285;-21,75;-36,49;-14,81;-8,07;7,88;4,05;2,18;2,12;0;0;
30303;2,51;-35,91;-15,92;-8,4;8,11;3,67;2,05;2,19;0;0;
30320;-40,23;-43,31;-14,19;-10,37;11,64;3,6;2,05;2;0;0;
30339;-31,44;-36,38;-15,91;-11,34;12,82;3,19;2,11;2,12;0;0;
30356;-22,93;-35,15;-18,16;-6,35;10,74;3,46;2,11;1,99;0;0;
30376;-24,9;-36,89;-16,77;-7,2;8,13;4,33;1,94;1,93;0;0;
30392;-22,98;-34,17;-19,89;-8,53;7,48;4,92;1,98;1,74;0;0;
30408;-28,42;-40,05;-20,14;-5,54;4,64;5,56;2;2,04;0;0;
30428;-19,76;-30,2;-13,7;-5,41;2,52;6;1,82;1,97;0;0;
30449;-4,21;-33,34;-21,3;-5,35;2,37;6,6;1,85;1,97;0;0;
30468;-27,8;-54,73;-16,75;-6,19;2,76;6,15;1,94;1,83;0;0;
30486;-21,93;-43,06;-16,1;-8,76;2,94;6,56;1,9;1,86;0;0;
30505;-21,93;-43,06;-16,1;-8,76;3,13;6,63;1,8;1,83;0;0;
30520;-26,81;-36,25;-18,19;-7,05;3,08;6,2;1,95;1,82;0;0;
30537;-26,43;-52,24;-11,59;-8,03;3,07;6,07;2,78;1,71;0;0;
30554;-23,9;-40,62;-19,94;-8,77;2,73;5,82;2,99;1,61;0;0;
30571;-25,75;-30,29;-22,82;-3,46;2,51;5,72;3,03;1,69;0;0;
30590;-24,48;-35,85;-14,07;-4,62;2,35;5,16;2,94;1,76;0;0;
30610;-23,01;-42,36;-17,61;-1,53;2,14;5,62;3,08;1,87;0;1;
30628;-25,69;-38,69;-23,68;40,3;1,96;5,89;2,73;10,04;0;1;
30645;-25,69;-38,69;-23,68;40,3;1,67;6,36;2,51;18,43;0;1;
30662;-26,09;-37,54;-13,97;-15,9;1,71;6,23;3,16;27,9;0;0;
30679;-25,26;-66,65;-0,81;-4,94;1,86;6,54;4,88;35,03;0;0;
30700;-33,05;-49,3;-29,55;-22,35;2,43;7,41;6,39;41,7;0;0;
30718;-29,73;-37,08;-12,6;-48,56;3,57;10,16;6,85;46,2;0;0;
30734;-27,46;-30,66;-14,93;-4,5;5,72;11,64;7,41;41,54;0;0;
30751;-14,8;-42,14;-15,38;-42,92;6,58;13,56;7,45;33,64;0;0;
30768;-26,19;-36,02;-35,46;33,08;7,52;14,32;7,65;40,16;0;0;
30785;-26,19;-36,02;-35,46;33,08;8,13;14,13;6,67;44,52;0;0;
30801;-23,38;-44,89;-22,06;75,58;7,41;11,3;6,55;41,79;0;0;
30822;-24,25;-9,34;-19,45;44,84;6,27;10,81;6,59;44,09;0;0;
30843;-20,11;-49,62;-1,13;13,15;5,16;10,52;6,63;47,31;0;0;
30862;-26,73;-36,64;-22,3;-25,22;4,39;8,5;6,59;41,44;0;0;
30878;-21,65;-32,76;-15,13;7,6;3,69;7,83;6,06;34,14;0;0;
30896;-21,99;-48,53;-22,28;20,11;3,12;8,37;5,28;29,81;0;0;
30914;-27,95;-44,09;-15,52;-44,75;3,87;9,27;5;34,24;0;0;
30931;-24,82;-28,77;-12,71;-1,42;3,94;8,66;4,74;29,15;0;0;
30947;-28,84;-29,91;-20,18;11,31;4,1;8,54;3,8;28,89;0;0;
30966;-23,93;-43,36;-16,36;-20,59;4,58;8,42;3,51;27,78;0;0;
30983;-23,93;-43,36;-16,36;-20,59;4,84;8,86;3,36;21,72;0;0;
31000;-21,36;-38,38;-13,56;-4,51;4,61;7,52;2,89;14,99;0;0;
31023;-23,23;-27,58;-13,25;0,42;4,49;8,52;2,99;14,29;0;0;
31042;-28,78;-21,88;-18,39;3,56;5,09;9,46;2,7;14,96;0;0;
31060;-26,3;-47,62;-14,65;41,53;5,61;9,53;2,65;15,31;0;0;
31077;-25,88;-30,75;-12,7;-15,02;5,11;9,13;2,52;16;0;0;
31093;-20,98;-26,94;-20,87;-11,53;5,26;8,8;2,47;14,73;0;0;
31112;-24,3;-46,12;-16,66;-15,03;5,08;8,89;2,47;13,59;0;0;
31129;-28,02;-25,03;-8,19;-5,73;4,69;8,48;2,25;13,03;0;0;
31146;-21,35;-44,03;-11,77;-3,44;4,23;8,39;2,44;9,94;0;0;
31163;-21,35;-44,03;-11,77;-3,44;4,55;8,83;2,51;5,26;0;0;
31179;-19,37;-46,9;-17,35;-10,3;4,53;9,63;2,62;5,28;0;0;
31196;-21,55;-35,42;-14,95;-4,96;4,56;8,81;2,58;5,92;0;0;
31214;-24,84;-35,4;-17,31;-54,25;4,53;8,43;2,59;5,8;0;0;
31231;-21,61;-41,34;-15,62;47,34;4,5;6,8;2,67;10,19;0;0;
31248;-18,51;-43;-16,72;-13,19;4,29;6,41;2,48;10,98;0;0;
31265;-22,65;-47,31;-18,18;-6,27;4,25;5,52;2,12;11,09;0;0;
31282;-22,65;-47,31;-18,18;-6,27;3,97;5,47;2,01;11,25;0;0;
31300;-27,81;-39,81;-16,2;-4,69;3,87;5,86;1,99;10,36;0;0;
31317;-19,45;-26,11;-18,66;-8,98;3,98;6,81;1,94;7,21;0;0;
31334;-26,95;-46,47;-10,7;-8,33;3,66;6,89;2,38;3,1;0;0;
31350;-29;-45,43;-14,32;-8,61;3,2;6,78;2,55;2,69;0;0;
31369;-19,51;-40,41;-29,03;-9,76;2,99;6,57;3,1;2,42;0;0;
31385;-19,51;-40,41;-29,03;-9,76;2,76;6,51;3,56;2,54;0;0;
31401;-25,34;-38,09;29,1;-9,09;2,73;6,28;14,64;2,44;0;0;
31420;-24,41;-50,31;-119,83;-9,28;2,79;4,93;23,49;2,36;0;0;
31438;-24,99;-38,65;-70,51;-8,03;2,82;4,49;38,39;2,51;0;0;
31457;-28,69;-44,81;-65,38;-7,96;2,79;4,22;50,65;2,51;0;0;
31473;-24,56;-37,21;0,67;-8,03;2,91;4,64;60,33;2,38;0;0;
31491;-23,76;-47,92;-93,94;-10,47;2,69;4,6;65,89;2,09;0;0;
31509;-22,18;-39,05;-38,33;-5,93;2,47;4,47;57,19;2,33;0;0;
31525;-22,18;-39,05;-38,33;-5,93;2,1;4,28;47,64;2,42;0;0;
31542;-22,98;-38,68;-15,59;-10,91;2,1;4,75;35,53;2,34;0;0;
31559;-27,69;-35,78;-13,5;-5,16;2,17;4,41;25,06;2,2;0;0;
31577;-27,69;-35,78;-13,5;-5,16;2,23;4,11;14,53;2;0;0;
31593;-23,41;-38,56;-114,43;-6,93;2,25;3,94;11,23;1,88;0;0;
31611;10,08;-36,6;37,05;-6,54;3,66;3,6;19,88;1,71;0;0;
31628;-26;-36,81;-56,02;-4,53;6,17;3,44;24,34;1,84;0;0;
31648;-14,14;-41,35;-19,83;-8,08;14,72;3,31;40,51;1,9;0;0;
31666;-34,94;-51,59;3,04;-10,1;16,92;3,69;43,86;1,9;0;0;
31681;-34,94;-51,59;3,04;-10,1;19,01;4,2;42,26;1,9;0;0;
31700;-13,34;-42,56;44,53;-3,16;19,33;4,69;44,33;2,09;0;0;
31717;63,7;-34,65;-36,75;-5,38;24,44;4,89;50,27;1,89;0;0;
31734;-26,13;-37,88;24,72;-2,08;23,45;4,98;55,25;2,19;0;0;
31750;-2,65;-41,23;-40,17;-10,74;22,68;4,95;59,14;2,38;0;0;
31769;-0,55;-40,01;-46,48;-9,81;24,19;4,79;60,4;2,34;0;0;
31787;11,6;-40,23;-29;-6,7;28,07;4,54;53,83;2,26;0;0;
31803;11,6;-40,23;-29;-6,7;31,54;4,4;46,98;2,19;0;0;
31820;-13,55;-42,31;-13,78;-8,27;23,62;4,39;28,91;2,06;0;0;
31839;-39,4;-30,68;-19,55;-9,95;25,09;4,96;19,65;2,04;0;0;
31859;-12,4;-47,29;-16,08;-10,38;24,36;6,04;11,39;1,84;0;0;
31875;-12,41;-42,77;-19,77;-7,42;27,16;6,2;6,34;1,78;0;0;
31891;15,2;-33,48;6,13;-9,1;24,29;6,18;4,77;1,67;0;0;
31908;44,75;-41,62;-1,01;-6,04;28,54;6,64;11,9;1,67;0;0;
31926;-104,21;-41,56;99,17;-6,06;33,8;6,31;25,05;1,66;0;0;
31945;-104,21;-41,56;99,17;-6,06;40,11;5,07;38,2;1,48;0;0;
31961;-7,82;-36,1;-20,13;-7,3;39,66;3,95;41,37;1,44;0;0;
31979;-20,93;-33,35;109,02;-10,59;37,95;4,22;51,96;1,62;0;0;
31996;46,6;-50,09;-40,57;-4,79;38,65;4,88;58,97;1,67;0;0;
32012;-25,97;-25,14;-51,72;-9,23;34,16;5,14;54,26;1,9;0;0;
32029;-4,02;-32,75;-16,03;-7,88;27,3;5,75;43,14;1,92;0;0;
32047;-8,4;-40,42;-15,62;-7,43;24,67;5,47;31,18;1,82;0;0;
32064;-8,4;-40,42;-15,62;-7,43;26,27;5,23;25,69;1,77;0;0;
32079;37,18;-42,63;-13,92;-7,39;28,05;5,34;14,47;2,03;0;0;
32097;-28,22;-41,48;-15,33;-12,09;28,18;4,21;8,83;2;0;0;
32115;53,62;-35,91;-47,48;-4,37;33,1;3,36;26,96;1,89;0;0;
32134;-23,54;-35,87;-71,54;-7,79;30,56;3,3;43,34;2,02;0;0;
32152;-22,07;-35,51;97,44;-12,44;24,9;3,45;55,02;2,26;0;0;
32170;-22,05;-67,83;-8,99;-7,38;20,34;4,05;68,31;2,24;0;0;
32189;-24,62;-41,2;-10,76;-7,98;13,26;5,47;74,85;2,1;0;0;
32205;-24,62;-41,2;-10,76;-7,98;9,56;6,64;69,3;2,1;0;0;
32224;-23,13;-40,86;-8,62;-9,42;3,45;6,82;54,12;2,49;0;0;
32241;-57,33;-36,87;-12,09;-9,46;3,66;6,38;44,32;2,64;0;0;
32260;-23,53;-40,63;-15,8;-6,55;6,72;6,48;27,12;2,38;0;0;
32277;-34,05;-43,38;-40,73;-11,92;7,78;4,77;19,43;2,38;0;0;
32294;-26,81;-43,46;-61,96;-8,8;9,36;3,41;21,83;2,66;0;0;
32313;-30,22;-34,34;174,97;-8,65;10,03;2,64;38,11;2,47;0;0;
32331;-25,93;-35;-12,61;-2,64;10,8;3;40,48;2,58;0;0;
32348;-25,96;-50,36;-83,07;-4,8;7,2;3,58;60,6;2,62;0;0;
32365;-25,96;-50,36;-83,07;-4,8;6,59;3,87;81,53;2,75;0;0;
32383;-25,86;-36,46;-32,12;-4,57;3,69;4;92,71;2,9;0;0;
32401;-23,41;-41,36;-73,2;-0,01;3,16;4,28;110,54;3,71;0;0;
32419;-24,77;-30,11;60,73;-2,06;2,16;4,91;116,44;3,63;0;0;
32439;-22,8;-52,04;-132,67;-0,97;1,74;4,93;122,05;4,02;0;0;
32457;7,59;-38,41;-55,63;-15,17;3,43;6,13;123,88;4,47;0;0;
32474;-35,56;-44,05;-23,75;-5,07;6,11;6,25;119,89;4,88;0;0;
32491;-20,32;-37,61;90,39;-4,62;6,24;6,27;111,94;4,63;1;0;
32511;-20,36;-41,25;-102,23;-12,95;6,41;6,65;118,92;4,37;1;0;
32529;-22,42;-39,17;-78,78;-5,33;6,42;6,86;116,18;4,54;1;0;
32545;-22,42;-39,17;-78,78;-5,33;6,21;6,1;123,76;4,42;1;0;
32564;-77,14;-28,24;-140,37;-14,52;6,16;6,81;132,85;4,1;1;0;
32588;-26,69;-48,68;103,06;-8,64;8,06;7,23;130,08;3,87;1;0;
32604;-26,69;-48,68;103,06;-8,64;11;8,02;123,42;3,82;1;0;
32620;-22,7;-35,89;61,28;-4,94;10,85;8,24;112,36;3,59;1;0;
32638;-19,74;-47,89;-67,75;-7,65;10,87;7,89;102,37;3,32;1;0;
32656;-20,89;-41,89;-3,96;-9,01;10,65;8;80,72;2,93;1;0;
32672;-25,65;-33,19;46,4;-6,53;5,92;6,92;93,08;2,82;1;0;
32691;-22,8;-43,07;-30,82;-8,53;2,89;6,26;90,08;2,69;1;0;
32710;-27,74;-32,97;-87,56;-10,22;3,22;5,03;89,58;2,62;1;0;
32726;36,2;-31,92;-75,02;-5,7;9,4;4,69;81,74;2,45;1;0;
32742;36,2;-31,92;-75,02;-5,7;15,5;4,3;70,64;2,42;1;0;
32758;61,74;-52,11;74,07;-10,65;26,96;5,02;81,04;2,52;1;0;
32777;27,49;-36,94;-0,68;-13,29;30,69;5,3;70,73;2,83;1;0;
32794;-64,02;-46,45;-12,16;-8,38;36,5;5,3;74,35;2,71;1;0;
32811;-21,43;-23,82;182,52;-10,38;39,17;6,01;66,68;2,53;1;0;
32829;43,94;-44,84;143,7;-4,88;37,82;6,68;85,08;2,64;0;0;
32848;-69,72;-40,78;-3,77;-9,13;36,12;5,81;82,41;2,46;0;0;
32866;-38,88;-33,26;24,39;-8,16;31,56;5,67;72,77;2,56;0;0;
32882;-38,88;-33,26;24,39;-8,16;34,59;6,01;76,04;2,37;0;0;
32900;47,46;-34,29;-37,97;-8,76;30,45;5,32;75,11;2,54;0;0;
32919;-160,52;-38,02;-41,3;-10,17;33,68;4,45;72,43;2,33;0;0;
32941;-32,72;-44,15;70,47;-5,5;34,35;4,57;66,46;2,11;0;0;
32956;-80,99;-24,96;35,7;-6,26;34,23;5,52;66,24;2,14;0;0;
32973;26,71;-49,05;-25,01;-8,89;36,35;5,65;56,11;1,91;0;0;
32991;15,82;-44,52;-110,54;-8,95;36,45;5,45;52,06;1,63;0;0;
33013;-83,18;-38,1;-60,45;-8,69;42,17;5,78;57,81;2,22;0;0;
33033;-109,5;-49,08;4,53;-2,02;42,59;5,86;48,83;2,24;0;0;
33051;-33,28;-37,74;-18,59;-6,84;39,8;5,61;38,92;2,72;0;0;
33070;14,17;-38,15;-18,36;-16,99;42,45;4,56;34,7;3,52;0;0;
33086;-71,03;-37,91;-14,92;25,76;43,2;4,87;31,12;7,26;0;0;
33104;-71,03;-37,91;-14,92;25,76;41,41;5,18;9,75;10,76;0;0;
33120;-6,25;-33,98;-15,89;-19;42,88;5,3;6,31;10,65;0;0;
33136;-110,47;-34,49;-15,06;8,4;41,04;5,88;3,43;12,23;0;0;
33154;-80,36;-45,24;-33,77;-13,49;38,85;6,49;17,19;12,9;0;0;
33171;-57,19;-42,44;-22,32;-43,91;34,74;7,59;18,39;14,79;0;0;
33189;7,23;-45,42;-11,98;0,48;34,29;7,25;18,62;12,87;0;0;
33205;7,23;-45,42;-11,98;0,48;32,15;7,16;18,72;12,5;0;0;
33221;-35,11;-40,88;-12,74;-9,39;30,28;6,92;18,67;11,7;0;0;
33239;-29,59;-39,4;-14,14;-36,96;30,2;6,37;3,33;9,95;0;0;
33255;-5,22;-30,81;-20,35;-28,57;28,11;5,65;2,97;9,96;0;0;
33271;-49,13;-39,66;-15,98;-9,55;23,73;5,35;2,61;9,78;0;0;
33289;-152,21;-46,14;-20,11;-5,91;27,52;5,5;2,23;9,62;0;0;
33307;-73,21;-37,76;-13,69;-3,43;34,24;5,13;1,96;11,91;0;0;
33323;-73,21;-37,76;-13,69;-3,43;40,33;5,05;2,11;13,98;0;0;
33344;-51,96;-41,25;-15,62;-8,11;40,74;5,01;2,1;12,08;0;0;
33361;31,2;-35,99;-15,95;-6,2;43,47;4,49;2,03;9,33;0;0;
33377;21,69;-42,59;-18,6;-4,81;44,36;4,58;2,01;7,93;0;0;
33393;26,1;-39,77;-17,47;-11,2;45,51;4,15;1,92;7,21;0;0;
33410;12,02;-40,58;-16,34;-6,56;39,01;3,7;1,71;4,73;0;0;
33431;-37,34;-38,12;-13,6;-6,17;34,77;3,93;1,94;2,49;0;0;
33450;-20,89;-37,95;-12,41;-8,98;35,51;3,51;1,91;2,16;0;0;
33466;-29,11;-36,04;-15,62;-5,46;34,78;3,41;1,91;2,14;0;0;
33482;-29,11;-36,04;-15,62;-5,46;31,35;3,6;1,68;2,34;0;0;
33499;-14,1;-43,21;-20,49;-5,46;24,06;3,65;1,9;2,2;0;0;
33515;-28,1;-45,98;-15,8;-9,88;23,73;3,3;1,96;2,2;0;0;
33531;-23,4;-40,97;-14,69;-5,8;18,47;3,71;1,87;2,29;0;0;
33547;-23,4;-40,97;-14,69;-5,8;15,02;4,1;1,96;2,15;0;0;
33566;-30,22;-41,13;-17,08;-8,41;9,97;3,52;1,91;1,75;0;0;
33583;-30,22;-41,13;-17,08;-8,41;6,47;3,05;1,76;1,42;0;0;
33601;-35,47;-41,58;-19,86;-7,06;5,8;3,47;1,52;1,28;0;0;
33619;-10,16;-39,65;-19,8;-11,46;6,08;3,24;1,58;1,33;0;0;
33636;-33,45;-43,07;-16,9;-6,26;9,29;2,81;1,5;1,58;0;0;
33652;-26,68;-24,96;-12,75;-9,28;9,56;3,33;1,72;1,72;0;0;
33700;-27,19;-34,29;-18,56;-11,44;9,75;4,09;2,02;1,89;0;0;
33718;-24,53;-38,53;-19,87;-0,94;8,82;4,67;2,17;2,11;0;0;
33734;-27,13;-32,73;-14,37;-4,27;7,58;4,58;2,09;2,69;0;0;
33751;-27,13;-32,73;-14,37;-4,27;4,48;4,49;1,9;2,95;0;0;
33768;-28,17;-32,71;-13,66;-7,75;3,31;4,71;1,98;3,2;0;0;
33786;-21,15;-40,62;-14,42;-2,32;3,34;4,23;1,93;3,73;0;0;
33801;-21,15;-40,62;-14,42;-2,32;3,36;3,74;1,93;4,19;0;0;
33819;-23,05;-39,74;-14,55;-0,04;3,33;3,77;1,87;4,3;0;0;
33837;-23,87;-38,68;-20,47;-1,72;2,58;3,81;1,9;4,5;0;0;
33855;-25,41;-39,4;-18,45;-10,44;1,98;3,73;2,52;5,54;0;0;
33873;-21,6;-37,32;-18,19;-9,01;1,76;3,46;2,79;5,37;0;0;
33890;-24,21;-32,7;-17,87;-7,71;1,6;3,59;2,76;6,05;0;0;
33905;-24,21;-32,7;-17,87;-7,71;1,57;3,76;2,91;7,01;0;0;
33922;-18,54;-42,53;-17,25;-4,71;1,63;3,75;2,95;6,75;0;0;
33943;-20,58;-36,91;-11,59;-7,73;1,98;3,61;2,76;5,83;0;0;
33961;-25,17;-43,49;-18,15;-4,98;2,2;4,32;2,44;4,67;0;0;
33981;-22,97;-39,22;-21,68;-7,1;2,07;4,34;2,39;4,16;0;0;
34000;-23,79;-41,84;-18,33;-5,31;1,94;3,82;2,2;3,13;0;0;
34016;-27,99;-46,62;-15,63;-7,13;2;3,74;2,2;3,17;0;0;
34033;-27,8;-35,28;-10,6;-5,79;1,7;3,77;2,54;4,49;0;0;
34052;-24,53;-33,27;-15,18;-8,15;1,45;4,03;2,35;4,88;0;0;
34070;-20,7;-41,11;-18,56;-11,21;1,23;3,5;2,28;5,1;0;0;
34086;-24,48;-43,84;-15,97;-11,24;1,31;3,4;2,28;5,02;0;0;
34103;-24,48;-43,84;-15,97;-11,24;1,4;3,25;2,43;5,14;0;0;
34120;-24,69;-34,99;-20,29;-10,35;1,39;3,45;2,34;4,16;0;0;
34136;-24,5;-48,25;-17,3;-6,68;1,58;3,34;2,39;3,57;0;0;
34155;-20,54;-38,39;-18,59;-6,68;1,98;3,51;2,64;3,95;0;0;
34177;-27,4;-40,61;-16,91;-7,84;2,18;3,54;2,76;4,64;0;0;
34197;-25;-43,41;-16,27;-6,08;2,18;3,87;2,83;4,2;0;0;
34213;-23,39;-40,8;-18,7;-7,43;2,23;4,06;2,96;3,67;0;0;
34230;-23,28;-26,79;-14,81;-6,64;2,07;3,67;2,64;3,71;0;0;
34248;-26,84;-37,9;-16,42;-7,3;1,99;2,99;2,39;3,57;0;0;
34264;-26,84;-37,9;-16,42;-7,3;1,97;2,85;2,24;2,98;0;0;
34280;-22,56;-45,75;-12,54;-3,38;1,87;3,19;2,17;3,31;0;0;
34298;-26,2;-39,37;-17,22;-2,63;1,8;3,45;2,09;3,56;0;0;
34313;-23,65;-34,05;-20,95;-10,14;1,86;3,79;2,01;4,19;0;0;
34330;-24,51;-37,68;-16,88;-9,29;1,65;3,49;2,01;4,17;0;0;
34347;-26,12;-37,02;-15,99;-3,22;1,53;4,26;1,97;4,04;0;0;
34363;-26,12;-37,02;-15,99;-3,22;1,54;4,83;1,86;3,62;0;0;
34379;-26,83;-39,14;-16,82;-5,04;2,22;4,15;1,92;3,13;0;0;
34397;-15,84;-37,27;-19,96;0,15;4,78;4,25;1,86;3,44;0;0;
34417;38,9;-37,82;-20,69;-9,15;11,93;3,94;2,08;3,32;0;1;
34436;-4,91;-46,95;-13,05;-12,59;20,18;4,75;2,56;3,38;0;1;
34454;-25,89;-35,26;-18,81;-14,88;26,33;4,09;2,57;3,56;0;1;
34471;-22,07;-50;-14,93;-5,62;24,34;4,86;2,69;3,52;0;1;
34487;-27,2;-33,65;-19,48;-7,68;19,33;5,08;2,64;3,41;0;1;
34503;-27,2;-33,65;-19,48;-7,68;11,41;5,05;2,26;3,34;0;1;
34519;-23,89;-38,64;-11,6;-6,93;6,17;4,56;2,4;3,3;0;1;
34536;-25,69;-33,68;-17,8;-4,48;2,74;4,44;2,27;3,54;0;1;
34552;-22,18;-41,16;-15,95;-6,89;2,47;5,28;2,2;3,37;0;1;
34569;-19,54;-38,16;-20,06;-9,39;2,33;5,5;2,16;3,09;0;1;
34586;-27,17;-29,42;-15,73;-10,23;2,25;6,16;2;2,85;0;1;
34603;-27,17;-29,42;-15,73;-10,23;2,36;6,78;1,69;2,61;0;1;
34621;-17,89;-42,31;-14,31;-3,76;3,19;12,25;1,62;2,48;0;1;
34639;-21,09;-56,43;-15,05;17,5;4,14;13,59;1,88;4,27;0;1;
34656;-28;-30,05;-9,26;-1,39;4,1;13,28;3,12;8,62;0;1;
34672;-16,9;-56,68;-28,46;1,74;4,67;14,1;3,6;12,35;0;1;
34689;-23,77;-23,41;-28,34;4,72;5,38;14,74;4,94;17,19;0;1;
34706;-16,01;-44,37;-10,86;-38,81;6,62;13,91;5,62;26,32;0;1;
34722;-16,01;-44,37;-10,86;-38,81;6,8;13,09;6,22;35,07;0;0;
34740;-28,9;-32,24;-21,15;-82,7;6,76;12,58;6,8;36,82;0;0;
34761;-22,69;-48,47;-13,55;-79,28;7,68;13,06;6,15;36,33;0;0;
34779;-19,65;-22,7;-20,19;-25,14;7,55;13,31;5,74;41,76;0;0;
34798;-36,49;-36,28;-26,01;25,97;7,61;13,41;4,88;37,41;0;0;
34816;-18,2;-36,63;-22,64;51,86;6,56;12,39;4,77;36,25;0;0;
34835;-31,08;-30,99;-19,69;-5,84;6;10,93;4,18;34,1;0;0;
34852;-30,82;-46,25;-21,55;-7,35;5,69;10,75;4,48;30,78;0;0;
34871;-30,25;-48,18;-15,73;-5,95;5,78;10,97;4,36;32,06;0;0;
34889;-21,91;-29,98;-15,84;-36,25;4,51;10,09;4,19;26,13;0;0;
34908;-8,01;-74,07;-11,57;-34,33;4,42;9,61;3,57;26,09;0;0;
34927;-21,57;-37,38;-21,05;-9,53;4,56;9,37;3,7;23,8;0;0;
34944;-21,57;-37,38;-21,05;-9,53;4,46;9,18;3,46;26,04;0;0;
34963;-28,69;-36,72;-29,36;-3,84;4,16;7,69;4,32;19,93;0;0;
34984;-25,22;-49,95;-6,38;-2,63;3,78;6,29;5,86;17,82;0;0;
35001;-17,49;-33,98;-14,05;5,8;3,85;6,34;6,46;16,35;0;0;
35019;-16,02;-67,56;-14,83;-4,13;3,62;6,11;6,45;11,82;0;0;
35037;-24,23;-38,81;-13,38;6,5;3,77;6,51;6,03;7,11;0;0;
35053;-28,67;-30,7;-16,74;17,24;3,46;6,21;5,53;13,81;0;0;
35071;-23,34;-31,89;-20,86;-16,35;3,39;7,01;3,16;15,38;0;0;
35089;-27,08;-39,5;-15,36;-6,42;3,5;6,7;2,23;14,46;0;0;
35109;-19,77;-25,94;-15,43;-9,2;3,27;6,53;1,88;12,07;0;0;
35128;-23,02;-39,26;-18,19;-5,6;2,48;4,97;1,87;11,47;1;0;
35144;-23,02;-39,26;-18,19;-5,6;2,58;5,39;1,81;7,8;1;0;
35163;-29,6;-43,79;-13,41;-6,7;2,57;5,52;1,97;3,18;1;0;
35181;-27,38;-39,76;-20,66;-6,94;2,58;4,8;2,13;2,85;1;0;
35197;-25,38;-42,06;-17,78;-8,76;2,48;4,89;2,16;2,79;1;0;
35215;-22,17;-40,04;-13,44;-2,44;2,14;4,09;2,15;2,66;1;0;
35233;-22,78;-35,55;-13,05;-9,07;1,79;4,3;2,2;2,56;1;0;
35252;-27,02;-38,45;-25,1;-4,06;1,64;4,53;2,52;2,05;1;0;
35269;-32,41;-43,26;21,1;-5,72;2,2;4,2;4,34;2,11;1;0;
35285;-32,41;-43,26;21,1;-5,72;2,85;4,35;6,17;2,25;1;0;
35301;-62,39;-48,34;26,54;-14,24;7,1;5;19;2,66;1;0;
35319;-15,58;-43,51;-29,34;-7,98;9,62;5,11;26,44;2,61;1;0;
35336;23,08;-35,52;-49,21;-14,86;12,76;5,17;44,66;2,86;1;0;
35352;57,41;-40,5;24,42;-2,4;21,74;5,33;57,81;3;1;0;
35369;57,41;-40,5;24,42;-2,4;30,16;5,45;69,93;3,09;1;0;
35386;-15,69;-37,64;-353,87;-3,97;35,25;4,96;88,13;3,32;1;0;
35403;-15,69;-37,64;-353,87;-3,97;40,32;4,06;99,12;3,27;1;0;
35420;-34,39;-40,01;-64,76;-4,61;43,16;3,76;105,74;3,3;1;0;
35438;38,44;-41,09;232,68;-1,17;42,78;4,28;97,9;3,52;0;0;
35458;9,76;-25,18;-42,35;-10,02;38,24;5,45;105,21;3,57;0;0;
35477;-69,24;-40,28;-118,59;-5,73;38,12;7,54;110,38;3,53;0;0;
35493;27,97;-42,17;-14,75;-8,9;33,65;8,2;126,1;3,3;0;0;
35513;-23,96;-44,04;353,34;-6,35;29,88;7,98;151,1;3,2;0;0;
35530;-104,58;-37,91;-8,91;-2,19;28,56;7,48;152,46;3,03;0;0;
35546;-19,96;-38,43;-356,93;-9,69;30,79;6,37;166,57;2,83;0;0;
35563;-19,96;-38,43;-356,93;-9,69;30,04;4,98;183,69;2,96;0;0;
35582;-67,01;-54,69;-62,19;-11,79;32,48;4;177,85;3,22;0;0;
35600;-39,77;-35,81;-12,92;8,56;39,1;4,65;130,94;3,94;0;0;
35620;-48,32;-38,75;-12,88;-144,81;41,94;5,1;92,16;8,91;0;0;
35637;-187,67;-50,59;-18,17;-2,77;54,96;5,16;74,6;10,61;0;0;
35654;-42,79;-39,55;-17,83;-12,81;61,53;5,47;39,09;11,14;0;0;
35670;-43,86;-47,35;-20,17;9,08;59,41;5,89;15,17;11,96;0;0;
35688;-25,18;-43,28;-17,1;7,8;56,8;5,31;3,44;14,03;0;0;
35706;17,48;-32,79;-16,17;-24,65;57,34;5,29;3,51;17,15;0;0;
35730;-24,1;-43,76;-14,63;-20,69;52,49;5,83;3,26;17,31;0;0;
35747;-35,79;-32,29;-19,31;-7,89;42,17;5,92;3,28;16,53;0;0;
35765;-35,79;-32,29;-19,31;-7,89;43,81;6,3;3,17;16,3;0;0;
35785;-119,6;-47,09;169,39;-13,76;43,04;6,09;19,49;15,58;0;0;
35802;-51,36;-41,03;-17,06;-8,12;45,94;5,76;20,91;10,31;0;0;
35820;-7,19;-30,76;-327,07;-3,46;40,23;5,34;31,17;5,87;0;0;
35838;-73,89;-35,26;-20,14;-8,62;44,3;5,1;41,57;3,38;0;0;
35855;83,64;-32,5;-6,2;-3,5;42,99;4,51;45,7;3,35;0;0;
35872;-51,38;-36,73;-16,35;-6,71;46,03;3,73;39,75;3,22;0;0;
35888;15,88;-48,86;-21,27;-8,52;36,76;4,05;27,62;2,73;0;0;
35904;15,88;-48,86;-21,27;-8,52;35,63;4,27;25,4;2,6;0;0;
35920;-127,43;-44,76;-14,73;1,17;34,09;4,48;10,93;4,99;0;0;
35937;-49,58;-42,89;-18,95;22,49;39,56;4,42;3,68;8,96;0;0;
35955;25,27;-28,47;-16,96;-4,92;33,67;4,87;2,97;12,44;0;0;
35973;-71,72;-40,95;-17,7;86,85;40,12;4,47;2,93;21,24;0;0;
35990;-99,15;-31,69;-12,67;-35,66;45,68;4,56;3,01;24,94;0;0;
36006;43,75;-44,99;-9,07;-33,66;48,81;5,1;3,26;26,82;0;0;
36023;43,75;-44,99;-9,07;-33,66;41,3;5,5;3,28;26,46;0;0;
36040;-36,72;-38,2;-15,07;-34,45;41,26;4,98;2,91;25,81;0;0;
36057;1,01;-44,75;-12,7;-7,66;44,31;4,91;2,46;20,48;0;0;
36075;-72,17;-42,27;-18,97;1,11;36,65;5,15;2,81;13,78;0;0;
36093;-26,65;-50,69;-14,14;-1,47;33,88;4,78;3,08;13,22;0;0;
36113;-113,43;-35,26;-20;-24,5;33,42;4,28;2,98;11,41;0;0;
36132;-2,52;-36,17;-17,74;-3,45;35,87;4,17;2,98;9,98;0;0;
36150;-23,61;-38,07;-12,52;-12,39;36,81;4,01;3,14;9,64;0;0;
36168;78,4;-27,39;-21,18;-14,47;42,3;4,44;2,69;9,98;0;0;
36185;78,4;-27,39;-21,18;-14,47;48,84;4,77;2,53;7,79;0;0;
36203;-25,02;-38,17;-21,21;-0,92;46,38;4,56;2,42;7,05;0;0;
36220;-95,74;-50,65;-11,07;9,67;43,44;4,72;2,21;8,75;0;0;
36237;-1,2;-33,05;-21,3;5,91;47,56;5,32;2,25;11,09;0;0;
36254;-31,38;-33,7;-19,05;-7,99;41,39;5,8;2,37;15,18;0;0;
36271;-22,09;-41,86;-11,1;-41,35;30,68;5,14;3,12;20,21;0;0;
36287;-22,09;-41,86;-11,1;-41,35;23,41;4,54;3,77;24,61;0;0;
36304;-22,09;-41,86;-11,1;-41,35;21,72;4,56;4,52;28,46;0;0;
36323;-34,09;-42,37;-23,27;40,16;12,34;3,7;4,8;29,63;0;1;
36339;-25,23;-47,21;-18,78;-62,67;8,86;3,08;6;32,44;0;1;
36356;5,82;-34,62;-18,6;-23,1;14,19;3,31;5,98;35,14;0;1;
36376;-42,78;-43,85;-12,68;8,81;22,7;3,66;5,52;40,37;0;1;
36394;-12,09;-43,36;-21,77;9,56;24,75;3,66;5,71;46,02;0;1;
36412;-71,58;-44,31;-15,7;21,91;26,61;3,89;6,08;51,32;0;1;
36429;-10,66;-34,87;-1,41;46,01;24,22;3,61;5,84;50,11;0;1;
36449;-18,42;-38,44;-20,42;-16,89;20,23;3,85;5,74;46,48;0;1;
36466;-19,62;-37,21;-13,69;-18,63;16,65;3,83;6,09;36,2;0;1;
36482;-19,62;-37,21;-13,69;-18,63;17,17;3,69;6,48;36,87;0;1;
36500;-38,21;-42,08;-14,98;-56,31;20,34;3,62;6,31;38,09;0;1;
36519;-29,15;-33,23;-21,18;19,65;15,99;3,62;6,36;39,09;0;1;
36535;-25,84;-35,06;-11,91;-42,7;14,04;3,48;5,79;37,8;0;1;
36551;9,53;-45,32;-17,88;-0,38;12,6;3,11;5,75;41,25;0;1;
36570;-29,86;-39,12;-14,92;20,29;12,86;3,05;5,2;45,44;0;1;
36585;-29,86;-39,12;-14,92;20,29;11,6;2,71;4,28;46,41;0;1;
36601;-27,2;-37,9;-17,84;-41,21;8,7;2,63;4,14;46,85;0;1;
36618;-22,93;-25,15;-14,37;-14,69;8,5;3,41;3,64;42,87;0;1;
36634;-24,32;-31,84;-14,53;-100,93;8,94;5,5;3,33;41,71;0;1;
36652;-21,76;-29,36;-19,51;-14,41;5,88;7,36;2,91;34,93;0;1;
36670;-22,47;-23,65;-10,15;11,42;3,3;10,42;3,15;26,92;0;0;
36688;-26,63;-48,12;-14,87;-17,02;3,61;12,09;3,36;25,53;0;0;
36706;-23,98;-37,37;-8,74;-126,23;3,88;13,31;3,72;27,05;0;0;
36725;-23,98;-37,37;-8,74;-126,23;4,09;12,74;4,22;31,95;0;0;
36744;-24,49;-43,82;-17,15;-46,82;4,25;10,87;4,11;30,3;0;0;
36765;-34,21;-56,04;-12,86;-7,77;4,72;9,66;4,19;32,26;0;0;
36786;-25,63;-41,69;-14,53;-20,89;5,03;8,41;3,81;28,76;0;0;
36803;-28,41;-42,09;-18,3;-11,25;4,77;6,92;3,61;29,13;0;0;
36822;-27,1;-44,19;-7,8;-22,94;4,76;6,8;4;32,24;0;0;
36838;-27,79;-27,72;-17,05;3,19;4,68;7,74;3,71;33,71;0;0;
36858;-32,29;-47,44;-18,32;-8,79;4,69;9,18;3,32;33,99;0;0;
36877;-16,15;-35,22;-19,19;48,95;4,13;9,06;3,31;35,86;0;0;
36895;-27,72;-33,86;-34,34;-23,07;4,14;9,57;5,01;38,84;0;0;
36909;-16,32;-35,92;23,13;4,24;4,09;9,41;9,86;34,53;0;0;
36926;-30,24;-22,09;-46,79;3,87;4,45;10,29;18,78;25,66;0;0;
36943;-30,24;-22,09;-46,79;3,87;4,61;9,59;28,28;18,43;0;0;
36958;-31,58;-54,17;-7,72;-6,58;4,59;9,72;29,71;17,4;0;0;
36976;-27,37;-78,67;-21,22;0,08;5,03;10,84;29,79;12,34;0;0;
36992;-29,74;-33,68;-21,2;-8,33;5,98;12,03;28,48;10,78;0;0;
37009;-21,04;-48,61;-16,51;2,18;5,43;13,06;21,76;9,87;0;0;
37027;-23,23;-33,07;-24,55;50,6;5,11;12,35;15,44;11,53;0;0;
37045;-23,23;-33,07;-24,55;50,6;5,2;11,73;11,41;12,43;0;0;
37060;-18,11;-38,9;-23,65;1,15;4,67;10,48;11;11,21;0;0;
37075;-22,67;-30,91;-31,13;-6,44;4,17;8,45;10,98;10,75;0;0;
37092;-22,17;-63,63;14,79;-8,51;4,12;8,23;17,02;9,99;0;0;
37107;-26,67;-33,84;-25,65;-6,43;4,16;7,72;21,83;9,06;0;0;
37124;-26,67;-33,84;-25,65;-6,43;4,2;7,89;24,62;6,67;0;0;
37140;-32,37;-27,94;179,77;-0,13;4,65;7,42;52,72;5,5;0;0;
37157;-31,98;-52,61;61,93;-6,43;4,63;8,64;64,28;4,31;0;0;
37175;-23,52;-66,14;-71,2;-3,76;4,58;8,56;66,84;3,85;0;0;
37192;-33,5;-29,93;-7,11;-4,85;4,2;8,24;59,4;4,1;0;0;
37210;-16,01;-39,36;-14,72;-8,88;4,6;8,63;59,64;4,21;0;0;
37230;-21,83;-35;-31,01;-8,04;4,72;9,37;47,57;3,48;0;0;
37246;-26,7;-45,91;-16,23;-23,73;4,17;8,46;19,19;4,75;0;0;
37268;-26,27;-31,03;-17,86;-1,91;4,47;8,82;14,1;6,86;0;0;
37285;-26,27;-31,03;-17,86;-1,91;4,82;8,39;10,25;8,74;0;0;
37301;-24,94;-36,9;-19,77;-10,36;4,54;8,09;8,19;9,15;0;0;
37320;-13,59;-47,27;-18,25;-7,71;4,4;7,63;2,71;9,17;0;0;
37340;-17,02;-44,17;-109,17;-2,29;4,51;7,38;5,23;10,2;0;0;
37359;-20,8;-34,4;-14,85;-4,57;4,32;6,59;8,34;7,4;0;0;
37380;-26,12;-43,46;-37,33;-15,49;3,71;5,96;8,53;5,7;0;0;
37397;-15,06;-57,11;-28,29;-7,89;3,42;6,18;16,24;5,81;0;0;
37417;-28,05;-35,5;-80,04;-7,43;3,3;6,58;19,59;5,98;0;0;
37432;-20,2;-41,65;-45,73;-6,46;3,04;6,23;34,72;5,08;0;0;
37450;-19,5;-38,21;10,34;-12,43;3,07;5,63;37,05;4,73;0;0;
37466;-25,54;-44,01;-17,85;-8,01;3,35;6,06;38,26;4,95;0;0;
37484;-25,54;-44,01;-17,85;-8,01;3,59;6,27;34,82;4,45;0;0;
37501;-19,02;-54,45;-21,92;-8,62;3,42;5,73;31,15;3,6;0;0;
37518;-24,65;-48,2;-116,77;-6,15;3,36;4,92;26,53;3,57;0;0;
37535;-21,07;-26,04;-92,36;-4,71;2,74;5,5;22,65;3,65;0;0;
37553;-27,91;-36,25;-114,86;-8,52;2,66;5,6;29,34;3,76;0;0;
37570;-27,91;-36,25;-114,86;-8,52;2,5;5,7;38,76;3,95;0;0;
37587;-25;-31,85;-109,49;-11,08;2,23;5,75;56,3;3,95;0;0;
37605;-25;-31,85;-109,49;-11,08;2,14;5,64;73,82;3,64;0;0;
37622;-22,7;-39,49;-50,53;-5,9;2,36;5,41;79,31;3,66;0;0;
37639;-24,9;-35,94;175,11;-16,11;2,14;4,79;104,09;3,93;0;0;
37656;-24,82;-41,23;-87,2;1,02;2,07;4,23;107,18;3,86;0;0;
37672;-22,52;-44,26;-63,71;-8,53;2,23;4,3;109,01;3,73;0;0;
37687;-27;-33,08;66,81;-9,61;2,3;4,82;103,33;3,46;0;0;
37705;-21,04;-35,71;-261,42;-8,87;2,46;4,62;97,69;3,47;0;0;
