Time;EMG1;EMG2;EMG3;EMG4;EMG1_F;EMG2_F;EMG3_F;EMG4_F;Note_R;Note_V;;Level 3;Joueur;Score;Notes hit;% Reussite R;Offset EMG1;Onset EMG1;% Reussite V;Offset EMG2;Onset EMG2
39;-18,07;-13,26;-18,07;-13,26;1,89;2,21;1,89;2,21;0;0;;;1;6900;69;34,34343;-16,36677;179,548;35,35353;-8,310203;30
77;-20,1;-20,72;-20,1;-20,72;2,02;2,88;2,02;2,88;0;0;;;2;5700;57;32,32323;-16,36677;179,5393;25,25253;-8,310203;43,3541
97;-16,77;-6,17;-16,77;-6,17;2,05;2,7;2,05;2,7;0;0;
117;-17,64;-7,86;-17,64;-7,86;2,03;2,59;2,03;2,59;0;0;
135;-15,21;-7,88;-15,21;-7,88;1,97;2,7;1,97;2,7;0;0;
154;-21,36;-11,52;-21,36;-11,52;1,94;2,83;1,94;2,83;0;0;
175;-14,51;-7,41;-14,51;-7,41;1,92;2,51;1,92;2,51;0;0;
195;-16,17;-8,57;-16,17;-8,57;2,02;2,14;2,02;2,14;0;0;
212;-18,29;-7,13;-18,29;-7,13;1,9;2,23;1,9;2,23;0;0;
230;-15,14;16,63;-15,14;16,63;2,1;3,65;2,1;3,65;0;0;
248;-16,76;-7,61;-16,76;-7,61;2,14;3,74;2,14;3,74;0;0;
267;-16,15;-2,96;-16,15;-2,96;1,94;3,73;1,94;3,73;0;0;
289;-21,17;-12,6;-21,17;-12,6;1,85;3,82;1,85;3,82;0;0;
309;-14,97;-7,5;-14,97;-7,5;1,9;3,96;1,9;3,96;0;0;
328;-19,3;-6,44;-19,3;-6,44;1,94;4,15;1,94;4,15;0;0;
346;-15,47;-6,92;-15,47;-6,92;1,62;2,57;1,62;2,57;0;0;
363;-22,11;-17,31;-22,11;-17,31;1,93;2,55;1,93;2,55;0;0;
379;-22,11;-17,31;-22,11;-17,31;2,32;2,44;2,32;2,44;0;0;
395;-16,05;-9,39;-16,05;-9,39;2,3;2,61;2,3;2,61;0;0;
413;-16,3;-15,93;-16,3;-15,93;2,18;2,49;2,18;2,49;0;0;
430;-12,66;-11,15;-12,66;-11,15;2,14;2,64;2,14;2,64;0;0;
449;-17,82;-9,97;-17,82;-9,97;2,27;2,78;2,27;2,78;0;0;
467;-17,52;-10,73;-17,52;-10,73;2,05;2,56;2,05;2,56;0;0;
482;-18,98;-16,68;-18,98;-16,68;1,89;3,8;1,89;3,8;0;0;
499;-18,98;-16,68;-18,98;-16,68;1,9;5,23;1,9;5,23;0;0;
516;-15,02;-5,95;-15,02;-5,95;2,05;4,95;2,05;4,95;0;0;
539;-17,19;-7,11;-17,19;-7,11;1,95;5,03;1,95;5,03;0;0;
556;-19,61;-9,15;-19,61;-9,15;1,98;5,12;1,98;5,12;0;0;
573;-15,19;-3,46;-15,19;-3,46;1,98;4,47;1,98;4,47;0;0;
592;-19,71;-2,37;-19,71;-2,37;1,96;3,09;1,96;3,09;0;0;
612;-12,1;-13,47;-12,1;-13,47;2,16;2,67;2,16;2,67;0;0;
630;-17,69;-10,34;-17,69;-10,34;1,95;3,26;1,95;3,26;0;0;
648;-12,9;-4,71;-12,9;-4,71;2,04;3,33;2,04;3,33;0;0;
665;-16,53;-5,7;-16,53;-5,7;1,95;3,32;1,95;3,32;0;0;
689;-13,92;-8,59;-13,92;-8,59;1,95;3,26;1,95;3,26;0;0;
708;-14,04;-12,32;-14,04;-12,32;1,74;3,04;1,74;3,04;0;0;
725;-13,33;-7,45;-13,33;-7,45;1,8;2,87;1,8;2,87;0;0;
744;-18,14;-12,76;-18,14;-12,76;2,03;2,43;2,03;2,43;0;0;
763;-19,74;-6,79;-19,74;-6,79;1,9;2,2;1,9;2,2;0;0;
780;-19,74;-6,79;-19,74;-6,79;1,92;2,17;1,92;2,17;0;0;
797;-15,32;-8,77;-15,32;-8,77;1,88;3,22;1,88;3,22;0;0;
818;-16,7;-13,36;-16,7;-13,36;1,99;3,67;1,99;3,67;0;0;
835;-18,41;2,72;-18,41;2,72;1,76;3,78;1,76;3,78;0;0;
854;-18,92;-9,37;-18,92;-9,37;1,83;4,2;1,83;4,2;0;0;
873;-11,89;-10,8;-11,89;-10,8;1,89;4,21;1,89;4,21;0;0;
892;-17,6;-6,42;-17,6;-6,42;1,95;3,51;1,95;3,51;0;0;
909;-15,02;-10,74;-15,02;-10,74;2,09;2,66;2,09;2,66;0;0;
928;-15,19;-10,42;-15,19;-10,42;2,13;2,25;2,13;2,25;0;0;
948;-17,59;-8,01;-17,59;-8,01;2,2;2,04;2,2;2,04;0;0;
967;-17,01;-10,2;-17,01;-10,2;2,29;2,02;2,29;2,02;0;0;
986;-15,41;-6,69;-15,41;-6,69;2,17;3,41;2,17;3,41;0;0;
1006;-20,66;-4,89;-20,66;-4,89;1,94;3,57;1,94;3,57;0;0;
1022;-16,74;-9,83;-16,74;-9,83;1,98;3,55;1,98;3,55;0;0;
1039;-16,74;-9,83;-16,74;-9,83;1,89;3,13;1,89;3,13;0;0;
1055;-18,69;3,84;-18,69;3,84;1,82;3,48;1,82;3,48;0;0;
1074;-17,32;-6,32;-17,32;-6,32;1,89;4,1;1,89;4,1;0;0;
1091;-17,5;-3,97;-17,5;-3,97;1,82;3,07;1,82;3,07;0;0;
1111;-17,95;-10,51;-17,95;-10,51;1,79;4,4;1,79;4,4;0;0;
1129;-15,27;-7,1;-15,27;-7,1;1,64;4,74;1,64;4,74;0;0;
1147;-21,82;-6,9;-21,82;-6,9;1,69;5,1;1,69;5,1;0;0;
1164;-10,69;5,28;-10,69;5,28;1,84;4,44;1,84;4,44;0;0;
1183;-22,69;-12,8;-22,69;-12,8;1,85;4,45;1,85;4,45;0;0;
1200;-22,69;-12,8;-22,69;-12,8;1,97;4,14;1,97;4,14;0;0;
1217;-17,43;-15,19;-17,43;-15,19;2,26;4,2;2,26;4,2;0;0;
1235;-14,68;-6,66;-14,68;-6,66;2,13;3,79;2,13;3,79;0;0;
1252;-19,81;11,56;-19,81;11,56;2,03;4,48;2,03;4,48;0;0;
1269;-18,47;-8,87;-18,47;-8,87;2,13;4,77;2,13;4,77;0;0;
1286;-16,89;-8,6;-16,89;-8,6;2,09;4,88;2,09;4,88;0;0;
1303;-14,71;-7,52;-14,71;-7,52;1,89;3,91;1,89;3,91;0;0;
1321;-14,71;-7,52;-14,71;-7,52;2,05;3,69;2,05;3,69;0;0;
1339;-15,19;-11,43;-15,19;-11,43;2,07;3,45;2,07;3,45;0;0;
1358;-20,03;-6,55;-20,03;-6,55;2,22;3,25;2,22;3,25;0;0;
1376;-15,29;-5,05;-15,29;-5,05;2,3;3,26;2,3;3,26;0;0;
1394;-17,68;-8,12;-17,68;-8,12;2,19;3,69;2,19;3,69;0;0;
1413;-18,65;-10,1;-18,65;-10,1;2,03;3,63;2,03;3,63;0;0;
1430;-17,59;-11,74;-17,59;-11,74;2,03;3,26;2,03;3,26;0;0;
1450;-18,08;-8,42;-18,08;-8,42;1,93;3,35;1,93;3,35;0;0;
1470;-15,05;-8,05;-15,05;-8,05;1,79;3,29;1,79;3,29;0;0;
1489;-11,99;-7,59;-11,99;-7,59;1,9;2,95;1,9;2,95;0;0;
1506;-17,47;-8,42;-17,47;-8,42;2,04;2,98;2,04;2,98;0;0;
1524;-21,61;-2,24;-21,61;-2,24;2,15;3,37;2,15;3,37;0;0;
1542;-12,14;-2,43;-12,14;-2,43;2,24;2,53;2,24;2,53;0;0;
1559;-12,14;-2,43;-12,14;-2,43;2,38;2,77;2,38;2,77;0;0;
1576;-19,1;-8,78;-19,1;-8,78;2,38;2,88;2,38;2,88;0;0;
1596;-20,09;-10,86;-20,09;-10,86;2,32;2,72;2,32;2,72;0;0;
1614;-16,69;-8,47;-16,69;-8,47;2,24;2,57;2,24;2,57;0;0;
1633;-20,6;-7,83;-20,6;-7,83;2,05;2,09;2,05;2,09;0;0;
1651;-14,8;-4,71;-14,8;-4,71;2,17;2,02;2,17;2,02;0;0;
1668;-15;-3,34;-15;-3,34;2,14;3,11;2,14;3,11;0;0;
1687;-16,04;-3,98;-16,04;-3,98;2,27;2,97;2,27;2,97;0;0;
1704;-19,31;-7,52;-19,31;-7,52;2,21;4,39;2,21;4,39;0;0;
1722;-15,34;-12,88;-15,34;-12,88;2,39;4,98;2,39;4,98;0;0;
1739;-15,34;-12,88;-15,34;-12,88;2,46;5,6;2,46;5,6;0;0;
1756;-13,21;-9,14;-13,21;-9,14;2,42;5,6;2,42;5,6;0;0;
1774;-18,41;-9,48;-18,41;-9,48;2,23;5,63;2,23;5,63;0;0;
1791;-15,28;-10,43;-15,28;-10,43;2,46;5,2;2,46;5,2;0;0;
1809;-15,28;-10,43;-15,28;-10,43;2,53;4,21;2,53;4,21;0;0;
1827;-16,48;-28,87;-16,48;-28,87;2,47;4,27;2,47;4,27;0;0;
1846;-17,07;-9,86;-17,07;-9,86;2,23;5,58;2,23;5,58;0;0;
1864;-20,05;-9,36;-20,05;-9,36;2,11;5,46;2,11;5,46;0;0;
1880;-20,05;-9,36;-20,05;-9,36;2,06;4,46;2,06;4,46;0;0;
1896;-20,17;-7,38;-20,17;-7,38;1,98;4,41;1,98;4,41;0;0;
1913;-16,24;-10,47;-16,24;-10,47;1,92;4,19;1,92;4,19;0;0;
1931;-14,49;-11,57;-14,49;-11,57;2,09;2,67;2,09;2,67;0;0;
1948;-17,66;-12,72;-17,66;-12,72;2,11;2,29;2,11;2,29;0;0;
1967;-16,14;-7,15;-16,14;-7,15;2,1;2,37;2,1;2,37;0;0;
1985;-13,09;-9,03;-13,09;-9,03;1,93;2,3;1,93;2,3;0;0;
2001;-13,09;-9,03;-13,09;-9,03;1,83;2,21;1,83;2,21;0;0;
2019;-18,02;-8,92;-18,02;-8,92;1,92;2,21;1,92;2,21;0;0;
2038;-21,56;-10,84;-21,56;-10,84;1,99;2,03;1,99;2,03;0;0;
2055;-16,22;-4,38;-16,22;-4,38;2,05;1,94;2,05;1,94;0;0;
2074;-15,67;-11,95;-15,67;-11,95;2,05;2,33;2,05;2,33;0;0;
2090;-18,61;-11,08;-18,61;-11,08;2,45;2,81;2,45;2,81;0;0;
2106;-13,43;-7,07;-13,43;-7,07;2,7;2,78;2,7;2,78;0;0;
2124;-16,72;-23,23;-16,72;-23,23;2,49;3,02;2,49;3,02;0;0;
2140;-16,72;-23,23;-16,72;-23,23;2,31;2,9;2,31;2,9;0;0;
2156;-15,39;-5,86;-15,39;-5,86;2,5;3,12;2,5;3,12;0;0;
2173;-15,17;-4,99;-15,17;-4,99;2,37;2,89;2,37;2,89;0;0;
2190;-18,51;-6,19;-18,51;-6,19;2,09;2,65;2,09;2,65;0;0;
2207;-14,05;-11;-14,05;-11;2,04;2,83;2,04;2,83;0;0;
2225;-18,35;10,47;-18,35;10,47;2,09;3,4;2,09;3,4;0;0;
2242;-17,43;-13,47;-17,43;-13,47;2;3,32;2;3,32;0;0;
2263;-16,74;-5,96;-16,74;-5,96;2,03;3,16;2,03;3,16;0;0;
2279;-16,74;-5,96;-16,74;-5,96;2,15;3,03;2,15;3,03;0;0;
2303;-19,19;-8,13;-19,19;-8,13;1,91;3,24;1,91;3,24;0;0;
2324;-16,94;-4,67;-16,94;-4,67;1,75;3,14;1,75;3,14;0;0;
2343;-14,98;-9,61;-14,98;-9,61;1,7;2,18;1,7;2,18;0;0;
2360;-14,98;-9,61;-14,98;-9,61;1,65;2,19;1,65;2,19;0;0;
2377;-13,14;-7,67;-13,14;-7,67;1,61;2,35;1,61;2,35;0;0;
2396;-14,79;-7,65;-14,79;-7,65;1,7;2,61;1,7;2,61;0;0;
2413;-12,08;-10,6;-12,08;-10,6;1,62;2,61;1,62;2,61;0;0;
2433;-16,93;-10,55;-16,93;-10,55;2,04;2,78;2,04;2,78;0;0;
2454;-16,57;-8,61;-16,57;-8,61;2;2,88;2;2,88;0;0;
2472;-22,85;-10,07;-22,85;-10,07;2,07;2,8;2,07;2,8;0;0;
2489;-15,86;-6,04;-15,86;-6,04;2,27;2,52;2,27;2,52;0;0;
2506;-18,69;-8,86;-18,69;-8,86;2,32;2,43;2,32;2,43;0;0;
2525;-16,37;-7,06;-16,37;-7,06;1,85;2,06;1,85;2,06;0;0;
2545;-15,11;-8,38;-15,11;-8,38;1,89;1,98;1,89;1,98;0;0;
2563;-18,33;-8,4;-18,33;-8,4;1,89;1,89;1,89;1,89;0;0;
2580;-18,33;-8,4;-18,33;-8,4;1,74;1,89;1,74;1,89;0;0;
2597;-15,47;-7,75;-15,47;-7,75;1,64;1,99;1,64;1,99;0;0;
2615;-21,36;-6,02;-21,36;-6,02;1,57;2,23;1,57;2,23;0;0;
2633;-19,33;-6,15;-19,33;-6,15;1,69;2,36;1,69;2,36;0;0;
2650;-16,01;-7,41;-16,01;-7,41;1,82;2,47;1,82;2,47;0;0;
2669;-15,61;0,4;-15,61;0,4;1,78;2,61;1,78;2,61;0;0;
2686;-19,65;-4,33;-19,65;-4,33;2,05;2,46;2,05;2,46;0;0;
2703;-18,5;-11,77;-18,5;-11,77;2,06;2,43;2,06;2,43;0;0;
2720;-18,5;-11,77;-18,5;-11,77;2,03;2,46;2,03;2,46;0;0;
2738;-14,36;-5,41;-14,36;-5,41;1,99;2,47;1,99;2,47;0;0;
2756;-14,36;-5,41;-14,36;-5,41;2,04;2,33;2,04;2,33;0;0;
2774;-19,63;-8,04;-19,63;-8,04;2,03;2,36;2,03;2,36;0;0;
2795;-15,56;-8,66;-15,56;-8,66;2,04;2,33;2,04;2,33;0;0;
2814;-17,87;-9,5;-17,87;-9,5;1,99;1,93;1,99;1,93;0;0;
2831;-13,2;-4,99;-13,2;-4,99;2,08;1,72;2,08;1,72;0;0;
2849;-17,09;-2;-17,09;-2;2,02;1,68;2,02;1,68;0;0;
2867;-17,34;-10,55;-17,34;-10,55;2,11;2,71;2,11;2,71;0;0;
2886;-18,62;-6,75;-18,62;-6,75;2,28;2,96;2,28;2,96;0;0;
2904;-10,71;-7,65;-10,71;-7,65;2,55;3,21;2,55;3,21;0;0;
2924;-14,04;-12,05;-14,04;-12,05;2,83;3,5;2,83;3,5;0;0;
2943;-17,1;-11,75;-17,1;-11,75;2,69;3,53;2,69;3,53;0;0;
2960;-17,1;-11,75;-17,1;-11,75;2,77;3,06;2,77;3,06;0;0;
2980;-13,12;-7,57;-13,12;-7,57;2,7;2,28;2,7;2,28;0;0;
2999;-14,45;-5,73;-14,45;-5,73;2,44;2,12;2,44;2,12;0;0;
3016;-17,31;-6,44;-17,31;-6,44;2,12;2,39;2,12;2,39;0;0;
3032;-17,78;-6,74;-17,78;-6,74;1,92;2,43;1,92;2,43;0;0;
3050;-23,18;-11,92;-23,18;-11,92;1,8;2,76;1,8;2,76;0;0;
3068;-16,24;-9,44;-16,24;-9,44;1,73;2,93;1,73;2,93;0;0;
3087;-19,21;-4,75;-19,21;-4,75;1,63;3,06;1,63;3,06;0;0;
3108;-15,59;-4,67;-15,59;-4,67;1,59;2,77;1,59;2,77;0;0;
3126;-17,5;-8,04;-17,5;-8,04;1,64;2,67;1,64;2,67;0;0;
3144;-15,77;-6,08;-15,77;-6,08;1,78;2,47;1,78;2,47;0;0;
3161;-15,77;-6,08;-15,77;-6,08;1,82;2,38;1,82;2,38;0;0;
3178;-14,33;-4,91;-14,33;-4,91;1,86;2,29;1,86;2,29;0;0;
3196;-16,83;-5,03;-16,83;-5,03;1,89;2,27;1,89;2,27;0;0;
3215;-12,67;-12;-12,67;-12;1,95;2,28;1,95;2,28;0;0;
3233;-12,67;-12;-12,67;-12;1,89;2,39;1,89;2,39;0;0;
3253;-19,71;-7,87;-19,71;-7,87;1,89;2,38;1,89;2,38;0;0;
3270;-21,09;-11,95;-21,09;-11,95;2,07;2,33;2,07;2,33;0;0;
3289;-13,97;-6,32;-13,97;-6,32;1,98;2,23;1,98;2,23;0;0;
3306;-12,71;-10,19;-12,71;-10,19;2,2;2,18;2,2;2,18;0;0;
3326;-14,28;-10,02;-14,28;-10,02;2,14;2,08;2,14;2,08;0;0;
3345;-24,28;-7,06;-24,28;-7,06;2,46;2,01;2,46;2,01;0;0;
3363;-18,44;-5,24;-18,44;-5,24;2,38;2,02;2,38;2,02;0;0;
3383;-19,48;-6,78;-19,48;-6,78;2,15;1,91;2,15;1,91;0;0;
3400;-19,48;-6,78;-19,48;-6,78;2,01;1,89;2,01;1,89;0;0;
3418;-17,69;-3,58;-17,69;-3,58;1,95;1,89;1,95;1,89;0;0;
3436;-13,46;-10,57;-13,46;-10,57;2,04;2,12;2,04;2,12;0;0;
3457;-15,65;-1,67;-15,65;-1,67;1,58;2,3;1,58;2,3;0;0;
3475;-16,02;-10,58;-16,02;-10,58;1,61;2,23;1,61;2,23;0;0;
3494;-18,43;-12,25;-18,43;-12,25;1,64;2,49;1,64;2,49;0;0;
3511;-18,67;-5,33;-18,67;-5,33;1,48;2,64;1,48;2,64;0;0;
3531;-18,06;-11,77;-18,06;-11,77;1,4;2,43;1,4;2,43;0;0;
3550;-15,78;-4,73;-15,78;-4,73;1,43;2,45;1,43;2,45;0;0;
3567;-17,07;-8,32;-17,07;-8,32;1,5;2,31;1,5;2,31;0;0;
3585;-13,74;-10,84;-13,74;-10,84;1,64;2,21;1,64;2,21;0;0;
3605;-15,42;-4,35;-15,42;-4,35;1,88;2,4;1,88;2,4;0;0;
3621;-15,42;-4,35;-15,42;-4,35;2,1;2,48;2,1;2,48;0;0;
3644;-18,82;-6,08;-18,82;-6,08;2,29;2,4;2,29;2,4;0;0;
3664;-15,05;-5,89;-15,05;-5,89;2,49;2,39;2,49;2,39;0;0;
3684;-20,25;-6,05;-20,25;-6,05;2,59;2,45;2,59;2,45;0;0;
3701;-20,25;-6,05;-20,25;-6,05;2,41;2,36;2,41;2,36;0;0;
3721;-17,66;-11,04;-17,66;-11,04;2,08;2,32;2,08;2,32;0;0;
3741;-18,97;-6,17;-18,97;-6,17;2,03;2,07;2,03;2,07;0;0;
3759;-20,67;-11,12;-20,67;-11,12;1,96;2,15;1,96;2,15;0;0;
3777;-19,64;-7,18;-19,64;-7,18;1,75;2,23;1,75;2,23;0;0;
3795;-15,93;-9,25;-15,93;-9,25;1,74;2,34;1,74;2,34;0;0;
3813;-15,42;-8,58;-15,42;-8,58;1,81;2,46;1,81;2,46;0;0;
3829;-20,91;-3,21;-20,91;-3,21;2,04;2,27;2,04;2,27;0;0;
3848;-17,07;-1,67;-17,07;-1,67;2,02;3,06;2,02;3,06;0;0;
3865;-16,24;-3,91;-16,24;-3,91;2,17;3,63;2,17;3,63;0;0;
3883;-18,18;-8,82;-18,18;-8,82;2,11;3,47;2,11;3,47;0;0;
3901;-18,18;-8,82;-18,18;-8,82;1,93;3,31;1,93;3,31;0;0;
3921;-17,16;-7,04;-17,16;-7,04;1,98;3,18;1,98;3,18;0;0;
3940;-18,94;-6,34;-18,94;-6,34;2,31;3,26;2,31;3,26;0;0;
3965;-20,55;-4,72;-20,55;-4,72;2,53;2,13;2,53;2,13;0;0;
3984;-16,62;-2,47;-16,62;-2,47;2,49;2,05;2,49;2,05;0;0;
4001;-16,62;-2,47;-16,62;-2,47;2,51;2,21;2,51;2,21;0;0;
4019;-20,22;-9,21;-20,22;-9,21;2,47;2,38;2,47;2,38;0;0;
4037;-18,18;0,92;-18,18;0,92;2,39;2,82;2,39;2,82;0;0;
4055;-20,31;-2,95;-20,31;-2,95;2,24;2,84;2,24;2,84;0;0;
4076;-17,13;-9,5;-17,13;-9,5;2,08;2,73;2,08;2,73;0;0;
4094;-14,18;-11,34;-14,18;-11,34;2,21;2,59;2,21;2,59;0;0;
4114;-18,47;-10,31;-18,47;-10,31;2,22;2,53;2,22;2,53;0;0;
4134;-17,92;-9,74;-17,92;-9,74;2,06;2,44;2,06;2,44;0;0;
4152;-18,17;-10,34;-18,17;-10,34;2;1,94;2;1,94;0;0;
4170;-19,19;-10,64;-19,19;-10,64;1,84;1,83;1,84;1,83;0;0;
4188;-16,53;-10,16;-16,53;-10,16;1,87;2,67;1,87;2,67;0;0;
4205;-16,95;-9,37;-16,95;-9,37;1,74;2,97;1,74;2,97;0;0;
4221;-16,95;-9,37;-16,95;-9,37;1,82;3,25;1,82;3,25;0;0;
4240;-17,67;-7,12;-17,67;-7,12;1,88;3,81;1,88;3,81;0;0;
4259;-18;-6,52;-18;-6,52;1,89;3,71;1,89;3,71;0;0;
4277;-16,54;-4,98;-16,54;-4,98;1,66;3,83;1,66;3,83;0;0;
4295;-20,34;-8,58;-20,34;-8,58;1,71;3,45;1,71;3,45;0;0;
4314;-15,78;-5,45;-15,78;-5,45;1,74;3,23;1,74;3,23;0;0;
4332;-16,85;-7,15;-16,85;-7,15;1,72;3,33;1,72;3,33;0;0;
4350;-18,9;-6,3;-18,9;-6,3;1,89;3,87;1,89;3,87;0;0;
4367;-17,47;-2,81;-17,47;-2,81;1,76;3,96;1,76;3,96;0;0;
4384;-19,33;-6,68;-19,33;-6,68;1,63;3,41;1,63;3,41;0;0;
4403;-16,19;-3,11;-16,19;-3,11;1,7;3,39;1,7;3,39;0;0;
4419;-16,19;-3,11;-16,19;-3,11;1,94;3,4;1,94;3,4;0;0;
4434;-17,35;-11,7;-17,35;-11,7;2;3,24;2;3,24;0;0;
4453;-18,12;-7,3;-18,12;-7,3;2,03;2,72;2,03;2,72;0;0;
4473;-18,12;-7,3;-18,12;-7,3;2,33;2,66;2,33;2,66;0;0;
4492;-18,88;-9,28;-18,88;-9,28;2,25;2,58;2,25;2,58;0;0;
4509;-23,94;-5,55;-23,94;-5,55;2,18;2,52;2,18;2,52;0;0;
4528;67,78;-10,53;67,78;-10,53;5,36;2,3;5,36;2,3;0;0;
4546;4,85;-9,21;4,85;-9,21;11,15;2,15;11,15;2,15;0;0;
4564;-17,81;-8,71;-17,81;-8,71;11,56;1,92;11,56;1,92;0;0;
4583;-22,17;-6,6;-22,17;-6,6;11,82;1,76;11,82;1,76;0;0;
4601;-22,17;-6,6;-22,17;-6,6;12,19;1,77;12,19;1,77;0;0;
4616;-18,35;-13,94;-18,35;-13,94;11,56;1,85;11,56;1,85;0;0;
4633;-17,24;-8,03;-17,24;-8,03;7,09;2,03;7,09;2,03;0;0;
4653;-18,57;-8,33;-18,57;-8,33;2,65;2,14;2,65;2,14;0;0;
4674;-15,2;-5,27;-15,2;-5,27;2,49;2,38;2,49;2,38;0;0;
4696;-20,18;-10,19;-20,18;-10,19;2,42;2,32;2,42;2,32;0;0;
4714;-22,19;-10,88;-22,19;-10,88;2,11;2,47;2,11;2,47;0;0;
4732;-19,88;-12,17;-19,88;-12,17;1,97;3,39;1,97;3,39;0;0;
4749;-20,48;-9,63;-20,48;-9,63;1,94;3,07;1,94;3,07;0;0;
4766;-15,4;-7,92;-15,4;-7,92;1,96;3,17;1,96;3,17;0;0;
4784;-13,16;-9,87;-13,16;-9,87;2,08;3,29;2,08;3,29;0;0;
4801;-13,16;-9,87;-13,16;-9,87;2,03;3,29;2,03;3,29;0;0;
4818;-22,76;-11,37;-22,76;-11,37;2,25;2,47;2,25;2,47;0;0;
4836;-16,51;1,83;-16,51;1,83;2,33;2,71;2,33;2,71;0;0;
4857;-14,01;-22,49;-14,01;-22,49;2,35;3,17;2,35;3,17;0;0;
4874;-15,59;-15,48;-15,59;-15,48;2,42;4,06;2,42;4,06;0;0;
4891;-22,23;1,99;-22,23;1,99;2,45;4,48;2,45;4,48;0;0;
4909;-14,1;-27,16;-14,1;-27,16;2,91;5,44;2,91;5,44;0;0;
4928;-13,6;-10,31;-13,6;-10,31;2,73;5,22;2,73;5,22;0;0;
4946;-13,6;-10,31;-13,6;-10,31;2,73;4,86;2,73;4,86;0;0;
4962;-14,74;-10,36;-14,74;-10,36;2,4;3,38;2,4;3,38;0;0;
4979;-14,74;-10,36;-14,74;-10,36;1,67;1,87;1,67;1,87;0;0;
4997;-14,55;-8,12;-14,55;-8,12;1,81;2,83;1,81;2,83;0;0;
5018;-14,55;-8,12;-14,55;-8,12;2,07;3,84;2,07;3,84;0;0;
5036;-14,44;14,86;-14,44;14,86;2,23;4,88;2,23;4,88;0;0;
5057;-19,65;6,97;-19,65;6,97;2,85;8,49;2,85;8,49;0;0;
5076;-6,34;11,33;-6,34;11,33;4,87;15,82;4,87;15,82;0;0;
5094;-37,27;-58,47;-37,27;-58,47;6,24;20,59;6,24;20,59;0;0;
5113;-7,29;1,18;-7,29;1,18;7,04;22,8;7,04;22,8;0;0;
5132;-1,85;-23,95;-1,85;-23,95;7,75;26,32;7,75;26,32;0;0;
5148;-25,58;-2,95;-25,58;-2,95;8,56;26,56;8,56;26,56;0;0;
5167;-27,92;-11,53;-27,92;-11,53;8,59;24,88;8,59;24,88;0;0;
5184;-4,81;72,42;-4,81;72,42;7,72;27,86;7,72;27,86;0;0;
5203;-22,67;-21,8;-22,67;-21,8;7,19;25,77;7,19;25,77;0;0;
5219;-22,67;-21,8;-22,67;-21,8;6,78;26,18;6,78;26,18;0;0;
5238;-6,18;-21,25;-6,18;-21,25;6,1;29,43;6,1;29,43;0;0;
5258;-8,99;60,32;-8,99;60,32;5,2;35,94;5,2;35,94;0;0;
5275;-23,32;8,06;-23,32;8,06;5,53;33,57;5,53;33,57;0;0;
5296;-10,97;3,55;-10,97;3,55;4,8;27,81;4,8;27,81;0;0;
5323;-15,09;-17,8;-15,09;-17,8;4,95;26,43;4,95;26,43;0;0;
5341;-9,99;4,43;-9,99;4,43;5,17;23,98;5,17;23,98;0;0;
5357;-13,34;35,73;-13,34;35,73;5,66;20,55;5,66;20,55;0;0;
5374;-20,56;-17,53;-20,56;-17,53;5,86;16,75;5,86;16,75;0;0;
5393;-15,03;-15,4;-15,03;-15,4;5,61;17,6;5,61;17,6;0;1;
5411;-12,27;-4,55;-12,27;-4,55;6,08;16,77;6,08;16,77;0;1;
5429;-16,28;-11,06;-16,28;-11,06;5,17;16,71;5,17;16,71;0;1;
5449;-9,92;-36,56;-9,92;-36,56;4,54;17,2;4,54;17,2;0;1;
5469;-9,45;-40,54;-9,45;-40,54;4,55;16,32;4,55;16,32;0;1;
5485;-24,09;-7,83;-24,09;-7,83;4,54;14,23;4,54;14,23;0;1;
5501;-24,09;-7,83;-24,09;-7,83;4,79;14,71;4,79;14,71;0;1;
5519;-21,38;-27,73;-21,38;-27,73;4,88;16,78;4,88;16,78;0;1;
5539;-20,4;-53,07;-20,4;-53,07;5;16,84;5;16,84;0;1;
5556;-7,17;52,07;-7,17;52,07;5,45;17,08;5,45;17,08;0;1;
5575;-21,54;14,56;-21,54;14,56;6,12;20,67;6,12;20,67;0;1;
5596;-17,03;91,94;-17,03;91,94;6,08;23,05;6,08;23,05;0;1;
5639;-14,11;-9,9;-14,11;-9,9;5,71;21,73;5,71;21,73;0;1;
5656;-15,96;-30,44;-15,96;-30,44;5,76;20,09;5,76;20,09;0;1;
5679;-23,35;-16,6;-23,35;-16,6;5,75;22,44;5,75;22,44;0;1;
5697;-10,42;-39,79;-10,42;-39,79;5,08;24,51;5,08;24,51;0;1;
5715;-16,6;-5,08;-16,6;-5,08;5,37;27,28;5,37;27,28;0;1;
5734;-10,65;-17,07;-10,65;-17,07;4,93;27,55;4,93;27,55;0;0;
5752;-20;28,39;-20;28,39;5,22;27,89;5,22;27,89;0;0;
5770;-27,95;-39,57;-27,95;-39,57;5,86;27,74;5,86;27,74;0;0;
5790;-17,34;77,22;-17,34;77,22;6,26;29,24;6,26;29,24;0;0;
5809;-10,84;-30,46;-10,84;-30,46;5,81;24,07;5,81;24,07;0;0;
5828;-23,12;-1,74;-23,12;-1,74;5,58;21,39;5,58;21,39;0;0;
5846;-24,11;-30,44;-24,11;-30,44;6,03;22,52;6,03;22,52;0;0;
5863;-14,97;-35,57;-14,97;-35,57;5,5;25,12;5,5;25,12;0;0;
5879;-14,97;-35,57;-14,97;-35,57;5,54;27,38;5,54;27,38;0;0;
5897;-9,04;-2,48;-9,04;-2,48;6,01;25,11;6,01;25,11;0;0;
5915;-19,03;4,25;-19,03;4,25;5,46;24,15;5,46;24,15;0;0;
5936;-22,89;45,79;-22,89;45,79;5,58;27,74;5,58;27,74;0;0;
5956;-8,09;-4,33;-8,09;-4,33;5,35;23,24;5,35;23,24;0;0;
5975;-18,13;-53,22;-18,13;-53,22;5,15;22,22;5,15;22,22;0;0;
5993;-4,67;-22,95;-4,67;-22,95;5,08;19,87;5,08;19,87;0;0;
6012;-6,35;53,01;-6,35;53,01;5,36;19,68;5,36;19,68;0;0;
6027;-18,92;15,26;-18,92;15,26;5,7;20,56;5,7;20,56;0;0;
6045;-20,03;-27,8;-20,03;-27,8;5,65;17,8;5,65;17,8;0;0;
6064;-18,86;-4,16;-18,86;-4,16;5,38;19,29;5,38;19,29;0;0;
6084;-14,16;-4,4;-14,16;-4,4;5,57;22,18;5,57;22,18;0;0;
6100;-14,16;-4,4;-14,16;-4,4;5,64;26,22;5,64;26,22;0;0;
6118;-18,48;-4,41;-18,48;-4,41;4,98;23,75;4,98;23,75;0;0;
6136;-27,61;44,55;-27,61;44,55;5,34;29,57;5,34;29,57;0;0;
6153;-13,97;-53,56;-13,97;-53,56;5,68;31,38;5,68;31,38;0;0;
6170;-26,88;2,86;-26,88;2,86;5,78;28,89;5,78;28,89;0;0;
6191;-17,21;-18,41;-17,21;-18,41;5,29;28,01;5,29;28,01;0;0;
6208;-12,87;-9,26;-12,87;-9,26;4,62;25,03;4,62;25,03;0;0;
6229;-249,55;-4;-249,55;-4;12,27;21,17;12,27;21,17;0;0;
6249;8,72;-17,46;8,72;-17,46;15,52;13,04;15,52;13,04;0;0;
6266;-33;-15,98;-33;-15,98;15,78;10,48;15,78;10,48;0;0;
6285;-58,05;-22,76;-58,05;-22,76;17,9;10,1;17,9;10,1;0;0;
6302;-58,05;-22,76;-58,05;-22,76;20,63;13,89;20,63;13,89;0;0;
6319;-15,88;76,9;-15,88;76,9;20,22;20,46;20,22;20,46;0;0;
6339;-20,45;-7,91;-20,45;-7,91;11,18;21,83;11,18;21,83;0;0;
6359;3,28;-8,82;3,28;-8,82;10,56;21,05;10,56;21,05;0;0;
6377;-255,11;3,33;-255,11;3,33;20,26;19,23;20,26;19,23;0;0;
6395;34,03;-7,98;34,03;-7,98;29,09;14,49;29,09;14,49;0;0;
6411;289,52;1,16;289,52;1,16;52,62;9,7;52,62;9,7;0;0;
6428;41,38;-7,74;41,38;-7,74;62,42;4,77;62,42;4,77;0;0;
6448;3,4;-10,15;3,4;-10,15;64,32;4,03;64,32;4,03;0;0;
6465;-16,38;-5,04;-16,38;-5,04;60,57;5,41;60,57;5,41;0;0;
6483;17,61;4,69;17,61;4,69;47,15;9,35;47,15;9,35;0;0;
6501;17,61;4,69;17,61;4,69;38,04;13,61;38,04;13,61;0;0;
6523;-11,08;-16,44;-11,08;-16,44;16,15;15,1;16,15;15,1;0;0;
6541;-11,08;-16,44;-11,08;-16,44;7,49;16,67;7,49;16,67;0;0;
6558;-11,81;-6,65;-11,81;-6,65;7,89;16;7,89;16;0;0;
6575;-18,74;-9,08;-18,74;-9,08;8,99;14,04;8,99;14,04;0;0;
6593;-12,66;-6,91;-12,66;-6,91;7,76;9,36;7,76;9,36;0;0;
6611;-20,97;-7,68;-20,97;-7,68;6,84;4,91;6,84;4,91;0;0;
6628;-39,2;-9,61;-39,2;-9,61;9,28;3,21;9,28;3,21;0;0;
6646;-10;-4,33;-10;-4,33;9,2;2,29;9,2;2,29;0;0;
6663;-17,19;-8,67;-17,19;-8,67;8,2;2,56;8,2;2,56;0;0;
6681;-17,19;-8,67;-17,19;-8,67;8,12;2,82;8,12;2,82;0;0;
6697;-80,04;-0,78;-80,04;-0,78;10,06;2,65;10,06;2,65;0;0;
6716;77,46;-15,59;77,46;-15,59;52,33;3,34;52,33;3,34;0;0;
6736;23,07;-4,34;23,07;-4,34;63,16;3,38;63,16;3,38;0;0;
6753;17,68;-2,63;17,68;-2,63;63,88;3,22;63,88;3,22;0;0;
6772;-7,75;-6,63;-7,75;-6,63;66,62;3,09;66,62;3,09;0;0;
6790;-17,82;-4,69;-17,82;-4,69;67,6;3,14;67,6;3,14;0;0;
6809;-12,68;-11,45;-12,68;-11,45;42,16;2,97;42,16;2,97;0;0;
6827;-11,36;-7,13;-11,36;-7,13;14,36;2,48;14,36;2,48;0;0;
6844;-23,94;-9,39;-23,94;-9,39;8,21;2,29;8,21;2,29;0;0;
6863;-18,1;-9,37;-18,1;-9,37;5;2,5;5;2,5;0;0;
6880;-18,1;-9,37;-18,1;-9,37;4,03;2,85;4,03;2,85;0;0;
6898;-12,52;-4,35;-12,52;-4,35;4;2,83;4;2,83;0;0;
6916;-23,82;-9,71;-23,82;-9,71;3,6;2,91;3,6;2,91;0;0;
6934;-13,22;-8,24;-13,22;-8,24;3,55;3,02;3,55;3,02;0;0;
6953;-19,08;-10,53;-19,08;-10,53;3,17;2,87;3,17;2,87;0;0;
6970;-12,46;-8,13;-12,46;-8,13;2,93;2,55;2,93;2,55;0;0;
6989;-12,38;-9,45;-12,38;-9,45;2,89;2,41;2,89;2,41;0;0;
7010;-4,6;-7,95;-4,6;-7,95;3,45;2,16;3,45;2,16;0;0;
7026;-13,51;-8,03;-13,51;-8,03;3,9;1,84;3,9;1,84;0;0;
7044;-13,3;-6,03;-13,3;-6,03;3,94;1,82;3,94;1,82;0;0;
7062;-18,84;-9,08;-18,84;-9,08;4,21;1,78;4,21;1,78;0;0;
7080;-18,84;-9,08;-18,84;-9,08;4,2;1,72;4,2;1,72;0;0;
7097;-8,19;-4,73;-8,19;-4,73;4,02;1,94;4,02;1,94;0;0;
7115;-16,99;-5,64;-16,99;-5,64;3,15;2,13;3,15;2,13;0;0;
7133;-19,56;-6,88;-19,56;-6,88;2,78;2,24;2,78;2,24;0;0;
7150;-16,53;-9,07;-16,53;-9,07;2,77;2,35;2,77;2,35;0;0;
7167;-16,71;-9,99;-16,71;-9,99;2,6;2,2;2,6;2,2;0;0;
7186;-3,55;-5,34;-3,55;-5,34;3,19;1,97;3,19;1,97;0;0;
7203;-14,88;-7,54;-14,88;-7,54;3,52;1,74;3,52;1,74;0;0;
7220;-14,88;-7,54;-14,88;-7,54;3,94;1,49;3,94;1,49;0;0;
7242;-22,12;-3,91;-22,12;-3,91;4,26;2;4,26;2;0;0;
7260;-15,74;-4,35;-15,74;-4,35;4,19;2,09;4,19;2,09;0;0;
7277;-17,21;-9,12;-17,21;-9,12;4,04;2,32;4,04;2,32;0;0;
7294;-15,72;-7,78;-15,72;-7,78;3,31;2,26;3,31;2,26;0;0;
7310;-14,2;-8,91;-14,2;-8,91;2,96;2,3;2,96;2,3;0;0;
7330;-18,01;-6,88;-18,01;-6,88;2,64;2,07;2,64;2,07;0;0;
7348;-18,08;-10,7;-18,08;-10,7;2,36;1,97;2,36;1,97;0;0;
7364;-17,32;-7,36;-17,32;-7,36;2,29;1,92;2,29;1,92;0;0;
7382;-21,85;-9,09;-21,85;-9,09;2,39;1,92;2,39;1,92;0;0;
7400;-21,85;-9,09;-21,85;-9,09;2,54;1,97;2,54;1,97;0;0;
7416;-16,4;-9,99;-16,4;-9,99;2,52;2,05;2,52;2,05;0;0;
7435;-20,68;-9,97;-20,68;-9,97;2,52;2,03;2,52;2,03;0;0;
7453;-15,96;-10,55;-15,96;-10,55;2,62;1,88;2,62;1,88;0;0;
7471;-19,67;-5,16;-19,67;-5,16;2,82;1,75;2,82;1,75;0;0;
7489;-19,83;-5,09;-19,83;-5,09;2,87;1,91;2,87;1,91;0;0;
7509;14,2;51,32;14,2;51,32;5,34;8,44;5,34;8,44;0;0;
7528;-21,92;37,41;-21,92;37,41;5,84;14,35;5,84;14,35;0;0;
7546;-7,72;6,76;-7,72;6,76;7,27;17,7;7,27;17,7;0;0;
7564;-22,79;-28,63;-22,79;-28,63;7,67;20,8;7,67;20,8;0;0;
7582;-26,18;-30,8;-26,18;-30,8;8,43;25,09;8,43;25,09;0;0;
7600;-26,18;-30,8;-26,18;-30,8;8,96;28,03;8,96;28,03;0;0;
7616;-14,3;65,8;-14,3;65,8;6,81;29,32;6,81;29,32;0;0;
7634;-23,02;-73,64;-23,02;-73,64;6,95;28,05;6,95;28,05;0;0;
7652;9,32;5,29;9,32;5,29;8,73;41,05;8,73;41,05;0;0;
7670;9,32;5,29;9,32;5,29;11,34;52,81;11,34;52,81;0;0;
7688;-16,77;-79,28;-16,77;-79,28;11,49;59,07;11,49;59,07;0;0;
7708;-15,35;-80,52;-15,35;-80,52;11,68;55,91;11,68;55,91;0;0;
7727;-18,31;72,75;-18,31;72,75;11,41;54,34;11,41;54,34;0;0;
7747;-17,66;33,04;-17,66;33,04;11,07;51,06;11,07;51,06;0;0;
7764;-0,85;-18,61;-0,85;-18,61;8,9;41,9;8,9;41,9;0;0;
7781;-0,85;-18,61;-0,85;-18,61;6,95;35,9;6,95;35,9;0;0;
7798;-19,9;-14,8;-19,9;-14,8;6,36;30,68;6,36;30,68;0;0;
7815;-14,01;49,39;-14,01;49,39;6,55;30,87;6,55;30,87;0;1;
7833;-16,55;-50,02;-16,55;-50,02;6,06;27,94;6,06;27,94;0;1;
7853;-8,52;-19,32;-8,52;-19,32;6,07;29,93;6,07;29,93;0;1;
7870;-16,94;-10,7;-16,94;-10,7;5,87;26,04;5,87;26,04;0;1;
7891;-19,83;-55,39;-19,83;-55,39;5,98;21,43;5,98;21,43;0;1;
7910;-5,38;-15,97;-5,38;-15,97;6,72;22,45;6,72;22,45;0;1;
7929;-5,38;-15,97;-5,38;-15,97;7,45;20,74;7,45;20,74;0;1;
7948;-11,24;-11,67;-11,24;-11,67;7,7;22,05;7,7;22,05;0;1;
7968;-13,94;-5,55;-13,94;-5,55;7,49;20,56;7,49;20,56;0;1;
7987;-31,87;-24,16;-31,87;-24,16;7,91;23,03;7,91;23,03;0;1;
8005;-14,02;22,06;-14,02;22,06;7,84;28,52;7,84;28,52;0;1;
8023;-19,58;0,19;-19,58;0,19;6,93;31,43;6,93;31,43;0;1;
8041;-19,58;0,19;-19,58;0,19;6,25;33,57;6,25;33,57;0;1;
8060;-29,4;-47,85;-29,4;-47,85;6,01;34,08;6,01;34,08;0;1;
8078;-16,73;116;-16,73;116;6,54;38,43;6,54;38,43;0;1;
8095;-16,67;-48,19;-16,67;-48,19;5,83;40,77;5,83;40,77;0;1;
8114;-10,04;-10,69;-10,04;-10,69;5,81;39,69;5,81;39,69;0;1;
8132;-14,25;46,81;-14,25;46,81;5,77;40,73;5,77;40,73;0;1;
8150;-20;10,26;-20;10,26;6,29;41,74;6,29;41,74;0;0;
8168;-9,96;98,41;-9,96;98,41;5,67;41,89;5,67;41,89;0;0;
8189;-24,7;-57,4;-24,7;-57,4;6,08;41,91;6,08;41,91;0;0;
8208;-10,59;11,86;-10,59;11,86;6,27;42,84;6,27;42,84;0;0;
8227;-17,45;-12,28;-17,45;-12,28;5,48;36,34;5,48;36,34;0;0;
8248;78,55;-7,2;78,55;-7,2;16,14;29,34;16,14;29,34;0;0;
8266;-27,85;-7,43;-27,85;-7,43;34,96;23,33;34,96;23,33;0;0;
8284;4,85;-6,88;4,85;-6,88;41,61;14,81;41,61;14,81;0;0;
8301;4,85;-6,88;4,85;-6,88;47,99;8,28;47,99;8,28;0;0;
8319;-34,64;2,23;-34,64;2,23;48,95;3,71;48,95;3,71;0;0;
8340;-7,48;-110,73;-7,48;-110,73;45,12;11,41;45,12;11,41;0;0;
8362;-18,09;-55,8;-18,09;-55,8;31,32;14,04;31,32;14,04;0;0;
8383;8,43;-8,5;8,43;-8,5;18,45;14,72;18,45;14,72;0;0;
8399;8,43;-8,5;8,43;-8,5;13,65;15,6;13,65;15,6;0;0;
8416;-45,68;-0,82;-45,68;-0,82;10,49;15,64;10,49;15,64;0;0;
8433;-15,56;-6,19;-15,56;-6,19;9,63;12;9,63;12;0;0;
8451;-5,86;-10,04;-5,86;-10,04;10,28;5,68;10,28;5,68;0;0;
8469;10,5;-13,44;10,5;-13,44;12,29;3,38;12,29;3,38;0;0;
8485;-3,67;-3,59;-3,67;-3,59;14,05;2,54;14,05;2,54;0;0;
8502;-280,81;-10,13;-280,81;-10,13;33,3;2,43;33,3;2,43;0;0;
8521;-280,81;-10,13;-280,81;-10,13;52,82;2,3;52,82;2,3;0;0;
8538;-447,96;-1;-447,96;-1;80,54;3,64;80,54;3,64;0;0;
8558;-74,83;-9,36;-74,83;-9,36;134,58;4,02;134,58;4,02;1;0;
8575;33,63;-14,76;33,63;-14,76;160,77;4,49;160,77;4,49;1;0;
8595;-3,23;-12,24;-3,23;-12,24;165,04;4,74;165,04;4,74;1;0;
8615;100,7;-9,02;100,7;-9,02;181,61;5,26;181,61;5,26;1;0;
8650;-129,98;-13,1;-129,98;-13,1;210,11;4,9;210,11;4,9;0;0;
8703;591,72;-1,22;591,72;-1,22;215,16;4,23;215,16;4,23;0;0;
8790;19,32;-4,56;19,32;-4,56;188,95;4,02;188,95;4,02;0;0;
8848;-167,17;-9,05;-167,17;-9,05;191,69;3,46;191,69;3,46;0;0;
8899;119,88;-8,39;119,88;-8,39;207,27;3,05;207,27;3,05;0;0;
8938;277,01;-4,99;277,01;-4,99;197,43;2,75;197,43;2,75;0;0;
8965;208,2;-7,92;208,2;-7,92;167,32;2,77;167,32;2,77;0;0;
9014;82,13;-5,43;82,13;-5,43;140,9;2,63;140,9;2,63;0;0;
9053;-5,55;-5,72;-5,55;-5,72;149,1;2,67;149,1;2,67;0;0;
9082;63,59;-8,68;63,59;-8,68;144,35;2,51;144,35;2,51;0;0;
9141;-350,7;-9,81;-350,7;-9,81;147,44;2,88;147,44;2,88;0;0;
9186;40,4;-9,37;40,4;-9,37;152,99;3,11;152,99;3,11;0;0;
9253;-12,28;-17,4;-12,28;-17,4;127,83;9,27;127,83;9,27;0;0;
9298;34,37;-10,15;34,37;-10,15;104,1;11,87;104,1;11,87;0;0;
9324;-105,63;-8,91;-105,63;-8,91;120,02;11,91;120,02;11,91;0;0;
9377;-16,64;-9,47;-16,64;-9,47;109,41;11,7;109,41;11,7;0;0;
9429;493,91;-4,02;493,91;-4,02;78,46;11,62;78,46;11,62;0;0;
9473;12,63;-5,67;12,63;-5,67;92,97;9,44;92,97;9,44;0;0;
9494;-104,31;-10,64;-104,31;-10,64;123,29;3,62;123,29;3,62;0;0;
9528;683,32;0,7;683,32;0,7;135,77;2,59;135,77;2,59;0;0;
9546;-32,63;-13,51;-32,63;-13,51;146,77;2,79;146,77;2,79;0;0;
9600;-85,43;-14,3;-85,43;-14,3;150,97;2,93;150,97;2,93;0;0;
9620;179,98;-9,03;179,98;-9,03;130,56;2,59;130,56;2,59;0;0;
9648;-13,73;-11,42;-13,73;-11,42;117,89;2,6;117,89;2,6;0;0;
9697;-20,14;-4,15;-20,14;-4,15;97,79;6,12;97,79;6,12;0;0;
9735;-20,05;-2,33;-20,05;-2,33;58,25;6,98;58,25;6,98;1;0;
9753;-7,65;99,79;-7,65;99,79;37,2;13,31;37,2;13,31;1;0;
9773;-14,35;-18,41;-14,35;-18,41;28,21;18,42;28,21;18,42;1;0;
9801;-70,88;4,04;-70,88;4,04;14,5;22,83;14,5;22,83;1;0;
9838;-18,86;-26,66;-18,86;-26,66;6,83;24,08;6,83;24,08;1;0;
9855;-10,27;32,84;-10,27;32,84;7,13;24,74;7,13;24,74;1;0;
9882;-18,09;-10,6;-18,09;-10,6;7,17;24,8;7,17;24,8;1;0;
9910;-17,03;-11,74;-17,03;-11,74;6,83;17,53;6,83;17,53;1;0;
9932;-15,38;-2,52;-15,38;-2,52;6,4;17,66;6,4;17,66;1;0;
9958;-1,41;47,38;-1,41;47,38;4,24;19,68;4,24;19,68;1;0;
9976;-17,68;-7,5;-17,68;-7,5;3,66;18,09;3,66;18,09;1;0;
9994;-20,6;-28,22;-20,6;-28,22;3,62;17,43;3,62;17,43;1;0;
10018;-19,19;-12,4;-19,19;-12,4;3,57;17,41;3,57;17,41;1;0;
10048;-17,08;-16,3;-17,08;-16,3;4;20,87;4;20,87;1;0;
10072;-22,43;-47,89;-22,43;-47,89;4,67;21,29;4,67;21,29;0;0;
10089;-17,18;18,31;-17,18;18,31;3,82;20,25;3,82;20,25;0;0;
10121;-16,66;0,92;-16,66;0,92;3,85;20,28;3,85;20,28;0;0;
10141;-13,59;-5,5;-13,59;-5,5;4,16;18,4;4,16;18,4;0;0;
10163;-18,46;-9,01;-18,46;-9,01;3,93;17,23;3,93;17,23;0;0;
10185;-15,67;-4,8;-15,67;-4,8;3,17;13,87;3,17;13,87;0;0;
10204;-13,98;-10,47;-13,98;-10,47;2,48;9,36;2,48;9,36;0;0;
10229;-14,16;-6,7;-14,16;-6,7;2,37;5,23;2,37;5,23;0;0;
10250;-53,78;-14,91;-53,78;-14,91;4,79;4,63;4,79;4,63;0;0;
10286;-9,92;43,89;-9,92;43,89;4,91;8,64;4,91;8,64;0;0;
10304;-18,87;-16,68;-18,87;-16,68;4,91;9,95;4,91;9,95;0;0;
10323;-16,82;-8,45;-16,82;-8,45;6,26;11,01;6,26;11,01;0;0;
10340;-16,82;-8,45;-16,82;-8,45;7,58;12,17;7,58;12,17;0;0;
10357;-11,6;-10,37;-11,6;-10,37;13,93;12,36;13,93;12,36;0;0;
10374;-12,07;-12,03;-12,07;-12,03;11,76;10,47;11,76;10,47;0;0;
10393;-22,35;-6,83;-22,35;-6,83;12,1;6,3;12,1;6,3;0;0;
10410;-60,17;-7,37;-60,17;-7,37;28,27;4,75;28,27;4,75;0;0;
10429;-1,06;-4,06;-1,06;-4,06;45,65;3,87;45,65;3,87;0;0;
10446;-110,24;-9,77;-110,24;-9,77;45,16;3,16;45,16;3,16;0;0;
10464;43,28;-3,22;43,28;-3,22;64,17;3,29;64,17;3,29;0;0;
10480;43,28;-3,22;43,28;-3,22;83,72;2,95;83,72;2,95;0;0;
10498;-5,75;-2,24;-5,75;-2,24;84,23;2,41;84,23;2,41;0;0;
10517;-39,48;-7,12;-39,48;-7,12;63,49;2,6;63,49;2,6;0;0;
10535;-352,57;-6,03;-352,57;-6,03;110,32;3,26;110,32;3,26;0;0;
10553;-331,02;-6,25;-331,02;-6,25;122,78;4,28;122,78;4,28;0;0;
10573;-37,41;-13,08;-37,41;-13,08;127,26;4,89;127,26;4,89;0;0;
10593;-210,4;-18,22;-210,4;-18,22;151,42;5,39;151,42;5,39;0;0;
10612;190,31;-4,56;190,31;-4,56;192,78;5,3;192,78;5,3;0;0;
10629;-131,77;-0,94;-131,77;-0,94;194,04;5,56;194,04;5,56;0;0;
10647;16,99;-6,32;16,99;-6,32;182,07;4,65;182,07;4,65;0;0;
10667;-42,69;-3,69;-42,69;-3,69;193,3;3,97;193,3;3,97;0;0;
10687;109,84;-3,57;109,84;-3,57;191,24;3,8;191,24;3,8;0;0;
10705;-224,25;-7,27;-224,25;-7,27;184,65;3,61;184,65;3,61;0;0;
10723;-181,95;-3,47;-181,95;-3,47;164,14;3,71;164,14;3,71;0;0;
10744;180,88;-3,75;180,88;-3,75;169,61;3,64;169,61;3,64;0;0;
10759;180,88;-3,75;180,88;-3,75;161,56;3,49;161,56;3,49;0;0;
10778;127,99;-14,93;127,99;-14,93;155,69;3,62;155,69;3,62;0;0;
10796;-141,76;-20,83;-141,76;-20,83;195,38;4,08;195,38;4,08;0;0;
10813;-162,99;3,82;-162,99;3,82;206,27;4;206,27;4;0;0;
10830;64,1;-7,05;64,1;-7,05;201,05;4,09;201,05;4,09;0;0;
10848;177,75;-8,04;177,75;-8,04;220,35;3,84;220,35;3,84;0;0;
10867;297,27;-11,57;297,27;-11,57;230,73;4,03;230,73;4,03;0;0;
10885;151,64;1,72;151,64;1,72;234,05;3,71;234,05;3,71;0;0;
10902;228,68;-5,36;228,68;-5,36;209,95;3,37;209,95;3,37;0;0;
10921;228,68;-5,36;228,68;-5,36;218,75;3,33;218,75;3,33;0;0;
10938;-34,02;-10,22;-34,02;-10,22;230,45;3,88;230,45;3,88;0;0;
10955;-135,54;-2,75;-135,54;-2,75;209,66;3,88;209,66;3,88;0;0;
10973;-16,54;-10,38;-16,54;-10,38;177,78;3,59;177,78;3,59;0;0;
10991;-432,09;-18,57;-432,09;-18,57;178,43;3,71;178,43;3,71;0;0;
11009;11,65;-2,94;11,65;-2,94;151,61;3,77;151,61;3,77;0;0;
11027;-56,11;-6,76;-56,11;-6,76;124,98;3,58;124,98;3,58;0;0;
11045;57,11;-9,72;57,11;-9,72;99,12;3,17;99,12;3,17;0;0;
11062;-23,76;-1,03;-23,76;-1,03;85,55;3,05;85,55;3,05;0;0;
11079;-23,76;-1,03;-23,76;-1,03;83,39;2,82;83,39;2,82;0;0;
11100;155,34;-0,99;155,34;-0,99;75,89;2,5;75,89;2,5;0;0;
11120;263,9;-4,97;263,9;-4,97;105,52;2,4;105,52;2,4;0;0;
11137;12,51;-6,99;12,51;-6,99;103,44;2,47;103,44;2,47;0;0;
11156;-22,82;-11,15;-22,82;-11,15;98,05;2,56;98,05;2,56;0;0;
11175;-41,41;-6,07;-41,41;-6,07;96,94;2,71;96,94;2,71;0;0;
11200;-634,71;-2,21;-634,71;-2,21;90,17;2,99;90,17;2,99;0;0;
11217;-10,78;-6,08;-10,78;-6,08;81,31;2,84;81,31;2,84;0;0;
11234;-56,19;-15,59;-56,19;-15,59;59,86;2,78;59,86;2,78;0;0;
11254;-71,94;-2,67;-71,94;-2,67;81,16;3,16;81,16;3,16;0;0;
11274;-3,23;-5,83;-3,23;-5,83;80,37;3,08;80,37;3,08;0;0;
11293;-14,72;-10,26;-14,72;-10,26;71,01;3,05;71,01;3,05;0;0;
11312;-4,62;-8,39;-4,62;-8,39;53,18;2,62;53,18;2,62;0;0;
11331;-469,23;-7,57;-469,23;-7,57;63,83;3,27;63,83;3,27;0;0;
11349;-116,54;-6,38;-116,54;-6,38;62,42;3,05;62,42;3,05;0;0;
11367;24,05;-10,19;24,05;-10,19;57;2,82;57;2,82;0;0;
11384;-28,81;-10,51;-28,81;-10,51;57,51;2,87;57,51;2,87;0;0;
11401;-12,83;-10,36;-12,83;-10,36;62,66;2,9;62,66;2,9;0;0;
11419;-12,83;-10,36;-12,83;-10,36;59,23;2,58;59,23;2,58;0;0;
11435;29,77;-14,06;29,77;-14,06;55,62;2,54;55,62;2,54;0;0;
11453;-257,06;-4,21;-257,06;-4,21;71,93;2,51;71,93;2,51;0;0;
11470;53,58;-16,09;53,58;-16,09;92,65;3,05;92,65;3,05;0;0;
11488;-6,68;-7,07;-6,68;-7,07;92,29;3,01;92,29;3,01;0;0;
11507;3,69;-1,71;3,69;-1,71;88,98;3,42;88,98;3,42;0;0;
11526;-9,46;-70,74;-9,46;-70,74;77,37;6,44;77,37;6,44;0;0;
11546;-15,79;-4,76;-15,79;-4,76;55,52;10,32;55,52;10,32;0;0;
11563;-17,65;-10,01;-17,65;-10,01;22,9;10,82;22,9;10,82;0;0;
11580;-17,65;-10,01;-17,65;-10,01;7,16;11,22;7,16;11,22;0;0;
11601;-137,68;1,13;-137,68;1,13;52,81;11,8;52,81;11,8;1;0;
11618;189,61;-9,56;189,61;-9,56;89,41;11,28;89,41;11,28;1;0;
11635;-14,31;-7,79;-14,31;-7,79;104,27;8,32;104,27;8,32;1;0;
11652;-21,88;-2,04;-21,88;-2,04;104,68;4,34;104,68;4,34;1;0;
11669;-11,2;-5,85;-11,2;-5,85;107,62;3,82;107,62;3,82;1;0;
11687;-28,81;-1,71;-28,81;-1,71;84,48;3,3;84,48;3,3;1;0;
11704;-14,43;-1,75;-14,43;-1,75;42,6;6,44;42,6;6,44;1;0;
11723;-20,38;-13,44;-20,38;-13,44;10,84;8,06;10,84;8,06;1;0;
11742;-20,46;-9,21;-20,46;-9,21;9,2;7,91;9,2;7,91;1;0;
11759;-20,46;-9,21;-20,46;-9,21;7,58;7,96;7,58;7,96;1;0;
11775;-11,83;-18,53;-11,83;-18,53;5,82;10,86;5,82;10,86;1;0;
11792;-9,53;-13,75;-9,53;-13,75;4,54;10,25;4,54;10,25;1;0;
11811;-22,65;-9,72;-22,65;-9,72;4,61;8,57;4,61;8,57;1;0;
11830;-17,94;-7,76;-17,94;-7,76;4,54;7,59;4,54;7,59;1;0;
11849;-10,22;-6,08;-10,22;-6,08;4,65;7,61;4,65;7,61;1;0;
11871;-32,1;-6,79;-32,1;-6,79;7,11;3,02;7,11;3,02;1;0;
11889;-13,32;-1,7;-13,32;-1,7;6,99;2,47;6,99;2,47;1;0;
11908;-18,12;-9,78;-18,12;-9,78;6,93;2,38;6,93;2,38;1;0;
11928;-31,01;-11,6;-31,01;-11,6;7,36;2,68;7,36;2,68;1;0;
11946;-584,51;-0,65;-584,51;-0,65;27,5;2,72;27,5;2,72;0;0;
11964;-394,77;-15,48;-394,77;-15,48;84,94;3,17;84,94;3,17;0;0;
11981;-394,77;-15,48;-394,77;-15,48;140,66;3,82;140,66;3,82;0;0;
12000;12,94;-7,37;12,94;-7,37;177,16;3,93;177,16;3,93;0;0;
12017;243,57;-9,98;243,57;-9,98;216,87;4,03;216,87;4,03;0;0;
12036;749,71;-1,75;749,71;-1,75;266,83;4,4;266,83;4,4;0;0;
12057;383,59;-12,3;383,59;-12,3;260,7;5,23;260,7;5,23;0;0;
12074;383,59;-12,3;383,59;-12,3;243,67;5,87;243,67;5,87;0;0;
12091;-90,36;-3,13;-90,36;-3,13;256,28;6,36;256,28;6,36;0;0;
12108;190,34;-9,94;190,34;-9,94;267,75;7,06;267,75;7,06;0;0;
12127;-66,55;-9,85;-66,55;-9,85;292,34;7,26;292,34;7,26;0;0;
12145;-73,49;-7,87;-73,49;-7,87;266;6,41;266;6,41;0;0;
12164;-134,43;-13,86;-134,43;-13,86;262,79;5,7;262,79;5,7;0;0;
12183;-153,57;-19,75;-153,57;-19,75;246,45;5,43;246,45;5,43;0;0;
12205;-47,46;-8,76;-47,46;-8,76;247,36;4,62;247,36;4,62;0;0;
12223;-234,43;-8,08;-234,43;-8,08;243,2;4,86;243,2;4,86;0;0;
12240;-234,43;-8,08;-234,43;-8,08;248,08;5,02;248,08;5,02;0;0;
12258;-121,13;3,33;-121,13;3,33;227,07;4,79;227,07;4,79;0;0;
12274;83,72;-7,82;83,72;-7,82;222,9;5,43;222,9;5,43;0;0;
12292;33,04;-11,54;33,04;-11,54;193,94;5,37;193,94;5,37;0;0;
12309;86,74;-6,49;86,74;-6,49;191,67;6,02;191,67;6,02;0;0;
12328;-243,37;-1,34;-243,37;-1,34;170,61;5,78;170,61;5,78;0;0;
12345;-39,9;-9,62;-39,9;-9,62;170,7;5,55;170,7;5,55;0;0;
12363;369,88;-9,32;369,88;-9,32;198,34;5,08;198,34;5,08;0;0;
12381;369,88;-9,32;369,88;-9,32;219,03;4,72;219,03;4,72;0;0;
12399;30,89;-4,01;30,89;-4,01;222,48;4,16;222,48;4,16;0;0;
12417;-86,77;-6,14;-86,77;-6,14;227,13;4,44;227,13;4,44;0;0;
12436;30,04;-6,98;30,04;-6,98;203,56;4,48;203,56;4,48;0;0;
12455;282,82;-2,53;282,82;-2,53;212,11;4,08;212,11;4,08;0;0;
12473;17,81;-4,87;17,81;-4,87;186,28;3,95;186,28;3,95;0;0;
12490;-381,39;-7,86;-381,39;-7,86;165,38;3,87;165,38;3,87;0;0;
12507;-54,89;-5,96;-54,89;-5,96;170,11;3,71;170,11;3,71;0;0;
12526;-547,07;-2,08;-547,07;-2,08;137,13;3,24;137,13;3,24;0;0;
12544;-292,11;-3,08;-292,11;-3,08;162,25;3,39;162,25;3,39;0;0;
12563;-244,65;1,46;-244,65;1,46;179,94;3,38;179,94;3,38;0;0;
12580;-244,65;1,46;-244,65;1,46;172,11;3,5;172,11;3,5;0;0;
12598;-247,15;-9,47;-247,15;-9,47;180,53;3,6;180,53;3,6;0;0;
12617;98,69;-6,67;98,69;-6,67;176,49;3,54;176,49;3,54;0;0;
12634;-39,74;-4,83;-39,74;-4,83;168,01;3,65;168,01;3,65;0;0;
12652;71,02;-6,2;71,02;-6,2;176,6;3,6;176,6;3,6;0;0;
12669;44,43;-13,84;44,43;-13,84;182;4,05;182;4,05;0;0;
12686;-104,89;-8,12;-104,89;-8,12;175,72;4,26;175,72;4,26;0;0;
12702;42,64;-9,19;42,64;-9,19;137,01;4;137,01;4;0;0;
12720;42,64;-9,19;42,64;-9,19;125,07;3,74;125,07;3,74;0;0;
12738;-26,2;-8,12;-26,2;-8,12;129,66;3,56;129,66;3,56;0;0;
12756;51,84;-4,16;51,84;-4,16;131,63;3,67;131,63;3,67;0;0;
12774;-224,95;-11,34;-224,95;-11,34;130,12;3,21;130,12;3,21;0;0;
12791;-48,81;-7,67;-48,81;-7,67;134,75;3,18;134,75;3,18;0;0;
12808;-48,52;-7,45;-48,52;-7,45;151,94;3,05;151,94;3,05;0;0;
12831;164,19;-2,41;164,19;-2,41;152,02;2,88;152,02;2,88;0;0;
12849;133,08;-6,62;133,08;-6,62;121,5;2,81;121,5;2,81;0;0;
12870;219,1;-10,83;219,1;-10,83;107,99;2,91;107,99;2,91;0;0;
12888;-2,11;-2,14;-2,11;-2,14;110,71;2,62;110,71;2,62;0;0;
12905;-143,91;-7,05;-143,91;-7,05;108,83;2,91;108,83;2,91;0;0;
12922;-46,13;1,16;-46,13;1,16;131,57;3,2;131,57;3,2;0;0;
12938;-46,13;1,16;-46,13;1,16;165,77;3,33;165,77;3,33;0;0;
12955;-678,51;-7,82;-678,51;-7,82;182,72;3,1;182,72;3,1;0;0;
12975;25,29;-7,63;25,29;-7,63;156,53;3,04;156,53;3,04;0;0;
12993;119,95;-9,46;119,95;-9,46;152,88;2,87;152,88;2,87;0;0;
13011;-10,82;-5,34;-10,82;-5,34;134,95;2,75;134,95;2,75;0;0;
13029;83,48;-10,25;83,48;-10,25;124,07;2,63;124,07;2,63;0;0;
13047;-27,48;-8,91;-27,48;-8,91;123,06;2,51;123,06;2,51;0;0;
13066;-229,62;-7,23;-229,62;-7,23;131,53;2,39;131,53;2,39;0;0;
13084;130,78;-1,31;130,78;-1,31;134,48;2,7;134,48;2,7;0;0;
13101;130,78;-1,31;130,78;-1,31;129,27;3,11;129,27;3,11;0;0;
13119;-126,01;-16,74;-126,01;-16,74;134,68;3,32;134,68;3,32;0;0;
13138;-45,68;-10,7;-45,68;-10,7;129,8;3,23;129,8;3,23;0;0;
13155;-101,06;-7,11;-101,06;-7,11;135,99;3,1;135,99;3,1;0;0;
13172;74,72;-9,67;74,72;-9,67;113,41;2,98;113,41;2,98;0;0;
13189;-41,31;-10,5;-41,31;-10,5;115,49;2,76;115,49;2,76;0;0;
13209;-49,88;-8,63;-49,88;-8,63;111,77;2,71;111,77;2,71;0;0;
13225;320,19;-6,23;320,19;-6,23;95,47;2,97;95,47;2,97;0;0;
13246;-53,71;-7,11;-53,71;-7,11;93,45;2,96;93,45;2,96;0;0;
13265;-48,37;-7,85;-48,37;-7,85;95,26;3,39;95,26;3,39;0;0;
13282;-5,57;-8,83;-5,57;-8,83;97,7;3,5;97,7;3,5;0;0;
13299;-5,57;-8,83;-5,57;-8,83;111,71;3,62;111,71;3,62;0;0;
13316;-5,97;-2,44;-5,97;-2,44;119,08;3,61;119,08;3,61;0;0;
13333;7,08;-13,53;7,08;-13,53;98,44;3,34;98,44;3,34;0;0;
13351;749,63;-11,71;749,63;-11,71;111,71;3,35;111,71;3,35;0;0;
13369;-81,53;-13,21;-81,53;-13,21;97,15;3,11;97,15;3,11;0;0;
13385;124,98;-9,15;124,98;-9,15;81,44;2,89;81,44;2,89;0;0;
13405;-5,16;-11,3;-5,16;-11,3;94,09;2,81;94,09;2,81;0;0;
13421;152,45;-9,08;152,45;-9,08;92,58;2,8;92,58;2,8;0;0;
13439;152,45;-9,08;152,45;-9,08;97,85;2,94;97,85;2,94;0;0;
13457;37,63;-3,01;37,63;-3,01;80,95;3,11;80,95;3,11;0;0;
13475;-47,65;-9,11;-47,65;-9,11;109,21;3,22;109,21;3,22;0;0;
13495;-58,32;-8,12;-58,32;-8,12;104,1;2,89;104,1;2,89;1;0;
13514;26,92;-10,18;26,92;-10,18;106,97;2,87;106,97;2,87;1;0;
13532;-207,41;-6,35;-207,41;-6,35;100,99;2,72;100,99;2,72;1;0;
13548;-15,44;-11,19;-15,44;-11,19;107,59;2,7;107,59;2,7;1;0;
13564;71,84;-7,1;71,84;-7,1;104,8;2,69;104,8;2,69;1;0;
13585;71,84;-7,1;71,84;-7,1;100,52;2,75;100,52;2,75;1;0;
13603;-206,77;-10,81;-206,77;-10,81;133,01;2,89;133,01;2,89;1;0;
13620;-206,77;-10,81;-206,77;-10,81;161,82;2,88;161,82;2,88;1;0;
13638;-6,11;-5,77;-6,11;-5,77;150,64;3,1;150,64;3,1;1;0;
13657;-35,81;-7,62;-35,81;-7,62;173,91;3,28;173,91;3,28;1;0;
13675;-86,86;-7,39;-86,86;-7,39;162,87;3,08;162,87;3,08;1;0;
13691;261,45;-12,06;261,45;-12,06;159,54;2,82;159,54;2,82;1;0;
13710;-6,82;-5,6;-6,82;-5,6;140,72;2,7;140,72;2,7;1;0;
13730;-29,95;-7,08;-29,95;-7,08;112,65;2,44;112,65;2,44;1;0;
13747;10,49;-4,21;10,49;-4,21;111,1;2,32;111,1;2,32;1;0;
13764;-114,9;-4,45;-114,9;-4,45;108,39;2,4;108,39;2,4;1;0;
13784;123,96;-10,1;123,96;-10,1;125,95;2,48;125,95;2,48;1;0;
13800;123,96;-10,1;123,96;-10,1;142,53;2,43;142,53;2,43;1;0;
13816;-197,5;-5,16;-197,5;-5,16;129,84;2,56;129,84;2,56;1;0;
13835;-48,19;-9,61;-48,19;-9,61;120,28;2,78;120,28;2,78;1;0;
13854;-96,3;-9,08;-96,3;-9,08;121,07;2,95;121,07;2,95;0;0;
13870;77,84;-11,96;77,84;-11,96;112,85;3,05;112,85;3,05;0;0;
13889;470,62;-3,44;470,62;-3,44;95,8;3,15;95,8;3,15;0;0;
13907;52,24;-3,11;52,24;-3,11;103,62;3,42;103,62;3,42;0;0;
13929;-142,07;-4,28;-142,07;-4,28;113,22;3,6;113,22;3,6;0;0;
13947;-309,44;-2,85;-309,44;-2,85;117,62;3,35;117,62;3,35;0;0;
13969;-162,72;-4,22;-162,72;-4,22;129,7;3,43;129,7;3,43;0;0;
13991;-141,08;-9,78;-141,08;-9,78;137,39;3,33;137,39;3,33;0;0;
14009;-110,97;-11,93;-110,97;-11,93;140,86;3,21;140,86;3,21;0;0;
14025;22,93;-8,43;22,93;-8,43;126,75;2,74;126,75;2,74;0;0;
14042;42,02;-3,86;42,02;-3,86;119,87;2,7;119,87;2,7;0;0;
14060;42,02;-3,86;42,02;-3,86;110,62;2,72;110,62;2,72;0;0;
14078;5,63;-13,06;5,63;-13,06;98,91;2,94;98,91;2,94;0;0;
14094;-343,17;0,38;-343,17;0,38;94,76;2,98;94,76;2,98;0;0;
14111;116,62;-11,52;116,62;-11,52;105,92;3,29;105,92;3,29;0;0;
14131;-314,98;-9,89;-314,98;-9,89;112,94;3,43;112,94;3,43;0;0;
14148;-314,98;-9,89;-314,98;-9,89;117,04;3,23;117,04;3,23;0;0;
14168;-63,3;-5,09;-63,3;-5,09;138,46;3,02;138,46;3,02;0;0;
14186;-49,88;-9,05;-49,88;-9,05;136,46;2,85;136,46;2,85;0;0;
14206;-45,4;-4,94;-45,4;-4,94;120,28;2,87;120,28;2,87;0;0;
14224;183,31;-10,84;183,31;-10,84;136,31;2,72;136,31;2,72;0;0;
14241;183,31;-10,84;183,31;-10,84;149,64;2,9;149,64;2,9;0;0;
14259;-87,89;-4,82;-87,89;-4,82;143,18;3,16;143,18;3,16;0;0;
14279;-49,89;-7,03;-49,89;-7,03;139,59;2,85;139,59;2,85;0;0;
14295;-14,87;-16,75;-14,87;-16,75;155,37;2,96;155,37;2,96;0;0;
14311;-434,21;3,61;-434,21;3,61;143,89;3,26;143,89;3,26;0;0;
14330;122,8;-6,06;122,8;-6,06;134,69;3,29;134,69;3,29;0;0;
14350;65,73;-8,71;65,73;-8,71;134,07;2,98;134,07;2,98;0;0;
14367;-15,09;-7,03;-15,09;-7,03;146,43;2,85;146,43;2,85;0;0;
14385;-9,74;-7,82;-9,74;-7,82;145,65;3,25;145,65;3,25;0;0;
14403;-38,04;-5,54;-38,04;-5,54;127,64;3,07;127,64;3,07;0;0;
14420;-38,04;-5,54;-38,04;-5,54;112,78;2,98;112,78;2,98;0;0;
14444;-15,04;-6,88;-15,04;-6,88;110,38;3,53;110,38;3,53;1;0;
14463;152,06;-6,57;152,06;-6,57;92,51;3,85;92,51;3,85;1;0;
14479;152,06;-6,57;152,06;-6,57;82,37;4,19;82,37;4,19;1;0;
14497;-104,28;-5,42;-104,28;-5,42;81,3;4;81,3;4;1;0;
14515;-126,92;-9,1;-126,92;-9,1;93,2;3,66;93,2;3,66;1;0;
14536;-173,5;-5,59;-173,5;-5,59;87,82;3,31;87,82;3,31;1;0;
14554;1,59;-9,11;1,59;-9,11;92,1;3,18;92,1;3,18;1;0;
14575;130,98;-3,88;130,98;-3,88;113,12;2,9;113,12;2,9;1;0;
14592;-141,34;-9,09;-141,34;-9,09;106,1;2,45;106,1;2,45;1;0;
14611;-45,54;-8,4;-45,54;-8,4;106,9;2,48;106,9;2,48;1;0;
14629;-52,52;-10,74;-52,52;-10,74;92,82;2,32;92,82;2,32;1;0;
14649;-76,96;-6,36;-76,96;-6,36;111,7;2,24;111,7;2,24;1;0;
14668;54,5;-5,53;54,5;-5,53;112,62;2,41;112,62;2,41;1;0;
14685;-223,43;-6,72;-223,43;-6,72;95,59;2,39;95,59;2,39;1;0;
14702;-223,43;-6,72;-223,43;-6,72;97,44;2,5;97,44;2,5;1;0;
14721;222,79;-0,29;222,79;-0,29;97;2,51;97;2,51;1;0;
14739;-42,21;-7,83;-42,21;-7,83;78,24;2,52;78,24;2,52;1;0;
14757;20,2;-11,34;20,2;-11,34;90,82;2,4;90,82;2,4;1;0;
14775;-43,17;-8,58;-43,17;-8,58;96,9;2,12;96,9;2,12;1;0;
14792;-264,03;-4,86;-264,03;-4,86;92,83;2,11;92,83;2,11;0;0;
14809;63,73;-5,59;63,73;-5,59;97,67;2,11;97,67;2,11;0;0;
14825;76,5;-8,3;76,5;-8,3;100,08;2,07;100,08;2,07;0;0;
14843;-112,75;-10,9;-112,75;-10,9;111,37;2,56;111,37;2,56;0;0;
14861;-112,75;-10,9;-112,75;-10,9;101,48;2,78;101,48;2,78;0;0;
14881;33,22;-7,6;33,22;-7,6;111,66;3;111,66;3;0;0;
14897;-333,8;-5,08;-333,8;-5,08;117,28;3,28;117,28;3,28;0;0;
14913;98,85;-3,74;98,85;-3,74;130,31;3,27;130,31;3,27;0;0;
14931;-314,49;-5,91;-314,49;-5,91;121,46;3,42;121,46;3,42;0;0;
14950;70,95;-4,66;70,95;-4,66;132,63;3,16;132,63;3,16;0;0;
14970;36,47;-8,51;36,47;-8,51;125,68;2,66;125,68;2,66;0;0;
14987;102,72;-16,22;102,72;-16,22;118,3;2,79;118,3;2,79;0;0;
15004;-96,23;-8,74;-96,23;-8,74;124,21;2,94;124,21;2,94;0;0;
15020;-96,23;-8,74;-96,23;-8,74;125;3,07;125;3,07;0;0;
15038;117,69;-6,93;117,69;-6,93;138,52;3,03;138,52;3,03;0;0;
15058;-196,84;-10,46;-196,84;-10,46;141,46;3,09;141,46;3,09;0;0;
15074;78,05;-17,17;78,05;-17,17;147,43;3,27;147,43;3,27;0;0;
15094;-79,42;-8,22;-79,42;-8,22;141,46;2,97;141,46;2,97;0;0;
15112;-69,55;-5,95;-69,55;-5,95;147,02;2,83;147,02;2,83;0;0;
15131;-63,89;-4,1;-63,89;-4,1;114,64;2,5;114,64;2,5;0;0;
15149;4,7;-7,43;4,7;-7,43;116,81;2,67;116,81;2,67;0;0;
15168;589,44;-6,12;589,44;-6,12;127,05;2,28;127,05;2,28;0;0;
15185;19,47;-12,1;19,47;-12,1;130,03;2,35;130,03;2,35;0;0;
15204;-164,73;-12,76;-164,73;-12,76;124,62;2,5;124,62;2,5;0;0;
15219;-164,73;-12,76;-164,73;-12,76;123,52;2,69;123,52;2,69;0;0;
15236;-16,29;-6,7;-16,29;-6,7;109,65;3,01;109,65;3,01;0;0;
15256;-185,95;-9,75;-185,95;-9,75;106,57;2,91;106,57;2,91;0;0;
15274;-243,93;-9,12;-243,93;-9,12;108,67;2,72;108,67;2,72;0;0;
15292;46,39;-7,21;46,39;-7,21;118,5;2,57;118,5;2,57;0;0;
15309;-153,82;-16,2;-153,82;-16,2;104,35;2,48;104,35;2,48;0;0;
15327;-609,85;-5,73;-609,85;-5,73;117;2,94;117;2,94;0;0;
15345;96,18;-3,08;96,18;-3,08;115,37;3,16;115,37;3,16;0;0;
15362;-327,43;-12,47;-327,43;-12,47;100,69;3,51;100,69;3,51;0;0;
15379;-327,43;-12,47;-327,43;-12,47;95,12;3,6;95,12;3,6;0;0;
15396;27,23;-9,75;27,23;-9,75;117,82;3,5;117,82;3,5;0;0;
15412;-63,73;-10,25;-63,73;-10,25;106,93;2,9;106,93;2,9;0;0;
15428;6,24;-11,82;6,24;-11,82;88,63;3,03;88,63;3,03;1;0;
15446;17,91;-3,71;17,91;-3,71;105,81;2,99;105,81;2,99;1;0;
15465;-6,02;-7,78;-6,02;-7,78;120,44;2,92;120,44;2,92;1;0;
15484;-34,42;-16,92;-34,42;-16,92;104,5;3,02;104,5;3,02;1;0;
15503;-12,62;-14,29;-12,62;-14,29;113,1;3,49;113,1;3,49;1;0;
15521;-12,62;-14,29;-12,62;-14,29;129,34;3,93;129,34;3,93;1;0;
15539;0,08;-4,55;0,08;-4,55;120,67;4,02;120,67;4,02;1;0;
15556;-74,03;-7,55;-74,03;-7,55;110,44;3,65;110,44;3,65;1;0;
15574;474,38;-7,59;474,38;-7,59;131,23;3,58;131,23;3,58;1;0;
15594;38,99;-3,77;38,99;-3,77;128,82;3,46;128,82;3,46;1;0;
15613;-101,1;-8,21;-101,1;-8,21;118,32;3,25;118,32;3,25;1;0;
15629;-248,23;-11,56;-248,23;-11,56;101,38;2,93;101,38;2,93;1;0;
15647;-83,99;-8,74;-83,99;-8,74;117,41;3,11;117,41;3,11;1;0;
15664;-65,99;-5,36;-65,99;-5,36;108,52;2,99;108,52;2,99;1;0;
15683;-93,9;-9,75;-93,9;-9,75;101,5;2,83;101,5;2,83;1;0;
15700;-93,9;-9,75;-93,9;-9,75;125,79;2,54;125,79;2,54;1;0;
15717;-50,2;-7,37;-50,2;-7,37;123,6;2,43;123,6;2,43;1;0;
15736;194,1;-9,33;194,1;-9,33;120,21;2,21;120,21;2,21;1;0;
15755;-35,72;-13,43;-35,72;-13,43;126,6;2,66;126,6;2,66;1;0;
15772;29,25;-14,04;29,25;-14,04;140,79;2,76;140,79;2,76;1;0;
15789;-247,2;-5,99;-247,2;-5,99;125,02;2,87;125,02;2,87;0;0;
15807;-0,24;-11,78;-0,24;-11,78;114,56;2,83;114,56;2,83;0;0;
15824;-0,24;-11,78;-0,24;-11,78;121,15;2,91;121,15;2,91;0;0;
15843;392,8;-6,53;392,8;-6,53;124,52;3,03;124,52;3,03;0;0;
15863;-132,97;-5,15;-132,97;-5,15;132,51;2,8;132,51;2,8;0;0;
15882;167,97;-11,34;167,97;-11,34;117,11;2,62;117,11;2,62;0;0;
15899;167,97;-11,34;167,97;-11,34;105,29;2,53;105,29;2,53;0;0;
15918;5,61;-8,87;5,61;-8,87;97,1;2,42;97,1;2,42;0;0;
15939;-250,05;-0,47;-250,05;-0,47;83,66;2,34;83,66;2,34;0;0;
15958;10,55;-7,82;10,55;-7,82;70,13;2,07;70,13;2,07;0;0;
15975;-23,27;-30,88;-23,27;-30,88;54,91;2,87;54,91;2,87;0;0;
15991;-16,47;-17,18;-16,47;-17,18;48,44;8,72;48,44;8,72;0;0;
16009;-16,33;-25,5;-16,33;-25,5;38,31;11,92;38,31;11,92;0;0;
16024;-16,33;-25,5;-16,33;-25,5;30,02;15,06;30,02;15,06;0;0;
16046;172,57;1,52;172,57;1,52;22,48;15,89;22,48;15,89;0;0;
16066;-7,13;-7,45;-7,13;-7,45;35,84;15,78;35,84;15,78;0;0;
16085;-246,87;-7,83;-246,87;-7,83;57,79;12,7;57,79;12,7;0;0;
16102;48,04;-12,75;48,04;-12,75;90,36;8,71;90,36;8,71;0;0;
16121;48,04;-12,75;48,04;-12,75;123,17;5,97;123,17;5,97;0;0;
16137;136,94;-9,63;136,94;-9,63;159,19;4,1;159,19;4,1;0;0;
16154;-7,53;-11,08;-7,53;-11,08;158,4;3,43;158,4;3,43;0;0;
16173;-13,86;-8,86;-13,86;-8,86;141,63;3,3;141,63;3,3;0;0;
16191;186,99;-9,77;186,99;-9,77;125,38;2,95;125,38;2,95;0;0;
16208;-108,75;-12,65;-108,75;-12,65;123,64;2,57;123,64;2,57;0;0;
16225;-20,27;-4,65;-20,27;-4,65;94,19;2,41;94,19;2,41;0;0;
16245;-15,22;28,52;-15,22;28,52;59,48;4,19;59,48;4,19;0;0;
16267;-13,32;3,62;-13,32;3,62;50,28;12,3;50,28;12,3;0;0;
16285;-7,95;-6,58;-7,95;-6,58;38,69;15,38;38,69;15,38;0;0;
16303;-17,47;-20,36;-17,47;-20,36;13,73;17,18;13,73;17,18;0;0;
16321;-17,47;-20,36;-17,47;-20,36;4,22;19,1;4,22;19,1;0;0;
16339;-15,14;-2,98;-15,14;-2,98;3,89;18,95;3,89;18,95;0;0;
16355;-16,79;-7,84;-16,79;-7,84;4,07;12,69;4,07;12,69;0;0;
16371;48,35;-9,73;48,35;-9,73;7,47;7,6;7,47;7,6;0;0;
16390;136,39;-16,64;136,39;-16,64;45,72;6,6;45,72;6,6;0;0;
16407;-108,8;-6,66;-108,8;-6,66;74,46;5,43;74,46;5,43;0;0;
16425;-121,85;-17,55;-121,85;-17,55;118,55;5,08;118,55;5,08;0;0;
16443;342,5;-7,52;342,5;-7,52;127,72;5,8;127,72;5,8;0;0;
16459;342,5;-7,52;342,5;-7,52;136,92;6,74;136,92;6,74;0;0;
16479;616,91;-14,24;616,91;-14,24;171,84;6,82;171,84;6,82;0;0;
16495;-0,57;5,38;-0,57;5,38;157,72;5,97;157,72;5,97;0;0;
16512;-12,47;-9,6;-12,47;-9,6;158,27;5,73;158,27;5,73;0;0;
16534;15,31;-3,59;15,31;-3,59;139,76;5,34;139,76;5,34;0;0;
16552;192,64;-8,52;192,64;-8,52;158,56;4,53;158,56;4,53;0;0;
16570;-368,99;0,3;-368,99;0,3;168,3;3,89;168,3;3,89;0;0;
16587;-371,43;-10,24;-371,43;-10,24;166,24;3,5;166,24;3,5;0;0;
16605;-186,85;-12,54;-186,85;-12,54;197,46;4,37;197,46;4,37;0;0;
16623;10,75;-6,38;10,75;-6,38;228,16;5,04;228,16;5,04;0;0;
16639;10,75;-6,38;10,75;-6,38;272,01;5,3;272,01;5,3;0;0;
16657;320,13;6,68;320,13;6,68;289,97;5,87;289,97;5,87;0;0;
16675;-286,58;-9,5;-286,58;-9,5;252,79;5,96;252,79;5,96;0;0;
16696;-129,75;-9,75;-129,75;-9,75;271,32;5,79;271,32;5,79;0;0;
16715;-101,22;-7,01;-101,22;-7,01;261,78;4,92;261,78;4,92;0;0;
16734;-13,68;-11,14;-13,68;-11,14;255;4,78;255;4,78;0;0;
16751;-61,51;-12,22;-61,51;-12,22;242,07;4,73;242,07;4,73;0;0;
16771;438,56;-12,39;438,56;-12,39;246,84;5,01;246,84;5,01;0;0;
16788;133,33;-11,11;133,33;-11,11;225,45;4,66;225,45;4,66;0;0;
16805;-13,06;-8,52;-13,06;-8,52;194;4,34;194;4,34;0;0;
16822;-62,36;-18,09;-62,36;-18,09;230,53;4,21;230,53;4,21;0;0;
16843;52,6;-10,06;52,6;-10,06;174,97;4,38;174,97;4,38;0;0;
16860;52,6;-10,06;52,6;-10,06;136,22;4,19;136,22;4,19;0;0;
16879;514,54;0,66;514,54;0,66;139,99;4,12;139,99;4,12;0;0;
16897;24,2;-5,15;24,2;-5,15;139,88;4,02;139,88;4,02;0;0;
16914;-45,66;-4,19;-45,66;-4,19;159,24;4,09;159,24;4,09;0;0;
16934;-46,23;-16,22;-46,23;-16,22;129,51;3,92;129,51;3,92;0;0;
16951;-224,36;-12,15;-224,36;-12,15;149,08;3,61;149,08;3,61;0;0;
16968;-80,78;-13,62;-80,78;-13,62;167,69;3,78;167,69;3,78;0;0;
16986;-14,26;-0,49;-14,26;-0,49;135,41;3,97;135,41;3,97;0;0;
17004;-10,66;-81,79;-10,66;-81,79;106,75;8,31;106,75;8,31;0;0;
17020;-10,66;-81,79;-10,66;-81,79;79,76;12,81;79,76;12,81;0;0;
17038;-339,99;-14,57;-339,99;-14,57;80,73;12,39;80,73;12,39;0;0;
17058;-402,03;0,6;-402,03;0,6;94,28;12,56;94,28;12,56;0;0;
17075;-898,47;-0,06;-898,47;-0,06;133,41;13,13;133,41;13,13;0;0;
17092;2,23;-6,9;2,23;-6,9;146,16;12,2;146,16;12,2;0;0;
17111;39,87;0,15;39,87;0,15;152,22;7,75;152,22;7,75;0;0;
17128;142,62;-13,92;142,62;-13,92;179,5;4,27;179,5;4,27;0;0;
17147;-25,29;-6,79;-25,29;-6,79;140,14;4,22;140,14;4,22;0;0;
17164;-70,47;0,19;-70,47;0,19;109,7;3,76;109,7;3,76;0;0;
17181;-70,47;0,19;-70,47;0,19;102,06;3,44;102,06;3,44;0;0;
17197;626,61;-3,86;626,61;-3,86;122,09;3,94;122,09;3,94;0;0;
17214;-51,74;-7,78;-51,74;-7,78;120,44;3,82;120,44;3,82;0;0;
17232;-2,69;-10,52;-2,69;-10,52;104,26;3,56;104,26;3,56;0;0;
17253;23,05;-10,63;23,05;-10,63;132,34;3,62;132,34;3,62;0;0;
17274;-88,59;-15,41;-88,59;-15,41;112,47;3,68;112,47;3,68;0;0;
17291;23,74;-3,01;23,74;-3,01;108,74;3,65;108,74;3,65;0;0;
17309;6,73;1,14;6,73;1,14;105,72;3,88;105,72;3,88;1;0;
17328;-34,51;-13,03;-34,51;-13,03;105,98;4,08;105,98;4,08;1;0;
17345;-13,89;-7,47;-13,89;-7,47;97;3,91;97;3,91;1;0;
17363;-108,7;-7,83;-108,7;-7,83;102,47;4,14;102,47;4,14;1;0;
17381;-108,7;-7,83;-108,7;-7,83;105,39;4,14;105,39;4,14;1;0;
17401;-196,78;-0,52;-196,78;-0,52;80,76;3,53;80,76;3,53;1;0;
17420;-21,22;-10,75;-21,22;-10,75;98,28;3,27;98,28;3,27;1;0;
17436;7,33;-17,33;7,33;-17,33;97,61;3,44;97,61;3,44;1;0;
17457;-57,5;-7,04;-57,5;-7,04;92,03;3,46;92,03;3,46;1;0;
17474;-88,81;-7,66;-88,81;-7,66;92,48;2,87;92,48;2,87;1;0;
17495;230,98;-4,23;230,98;-4,23;105,29;3,01;105,29;3,01;1;0;
17512;7,97;-7,97;7,97;-7,97;86,79;2,83;86,79;2,83;1;0;
17531;-17,8;-5,69;-17,8;-5,69;63,8;2,97;63,8;2,97;1;0;
17547;89,12;-7,03;89,12;-7,03;54,93;2,57;54,93;2,57;1;0;
17565;-64,71;-10,37;-64,71;-10,37;61,76;2,73;61,76;2,73;1;0;
17585;-34,8;-5,72;-34,8;-5,72;50,97;2,88;50,97;2,88;1;0;
17602;-2,81;-6,71;-2,81;-6,71;41,82;2,87;41,82;2,87;1;0;
17619;-2,81;-6,71;-2,81;-6,71;42,46;2,91;42,46;2,91;1;0;
17636;-16,39;-15,56;-16,39;-15,56;40,88;6,5;40,88;6,5;1;0;
17655;-12,27;-5,43;-12,27;-5,43;26,33;8,54;26,33;8,54;1;0;
17676;-15,51;-17,88;-15,51;-17,88;10,27;11,27;10,27;11,27;0;0;
17693;-19,96;-15,57;-19,96;-15,57;6,27;13,1;6,27;13,1;0;0;
17710;-20,06;-8,88;-20,06;-8,88;4,2;12,86;4,2;12,86;0;0;
17730;-18,31;-12,47;-18,31;-12,47;3,59;11,81;3,59;11,81;0;0;
17750;-18,03;-6,43;-18,03;-6,43;2,97;8,21;2,97;8,21;0;0;
17767;-21,1;-7,4;-21,1;-7,4;2,42;5,95;2,42;5,95;0;0;
17785;-17,27;-0,55;-17,27;-0,55;2,83;3,95;2,83;3,95;0;0;
17804;-21,51;-8,99;-21,51;-8,99;2,69;3,27;2,69;3,27;0;0;
17820;-21,51;-8,99;-21,51;-8,99;2,53;3,5;2,53;3,5;0;0;
17841;-16,85;-7,18;-16,85;-7,18;2,64;3,91;2,64;3,91;0;0;
17861;-23,35;-3,74;-23,35;-3,74;2,96;3,64;2,96;3,64;0;0;
17880;-14,92;-8,69;-14,92;-8,69;2,82;3,78;2,82;3,78;0;0;
17901;-14,9;-12,1;-14,9;-12,1;2,26;3,17;2,26;3,17;0;0;
17919;-18,02;-9,61;-18,02;-9,61;2,15;2,63;2,15;2,63;0;0;
17937;-17,12;-7,28;-17,12;-7,28;1,85;2,54;1,85;2,54;0;0;
17955;-19,37;-12,9;-19,37;-12,9;1,75;2,29;1,75;2,29;0;0;
17975;-15,63;-7,91;-15,63;-7,91;1,81;2,12;1,81;2,12;0;0;
17994;-17,89;-4,37;-17,89;-4,37;1,94;2,08;1,94;2,08;0;0;
18011;-15,36;-3,74;-15,36;-3,74;2,18;2,27;2,18;2,27;0;0;
18028;-20,63;-10,95;-20,63;-10,95;2,31;2,43;2,31;2,43;0;0;
18047;-16,2;-8,39;-16,2;-8,39;2,26;2,39;2,26;2,39;0;0;
18065;-19,47;-7,79;-19,47;-7,79;2,39;2,15;2,39;2,15;0;0;
18083;-16,98;-10,85;-16,98;-10,85;2,14;2,27;2,14;2,27;0;0;
18099;-16,98;-10,85;-16,98;-10,85;1,98;2,2;1,98;2,2;0;0;
18118;-18,52;-5,83;-18,52;-5,83;1,84;2,19;1,84;2,19;0;0;
18135;-7,36;97,33;-7,36;97,33;2,18;8,76;2,18;8,76;0;0;
18151;-15,33;47,13;-15,33;47,13;3,3;14,5;3,3;14,5;0;0;
18172;-20,46;-23,66;-20,46;-23,66;3,23;17,42;3,23;17,42;0;0;
18189;-55,37;-5,78;-55,37;-5,78;9,67;18,1;9,67;18,1;0;0;
18206;-38,96;-12,05;-38,96;-12,05;47,41;18,19;47,41;18,19;0;0;
18224;-111,07;-6,88;-111,07;-6,88;66,28;17,29;66,28;17,29;0;0;
18241;-111,07;-6,88;-111,07;-6,88;84,52;8,09;84,52;8,09;0;0;
18257;-26,65;-4,96;-26,65;-4,96;84,85;4,01;84,85;4,01;0;0;
18274;-16,91;-12,81;-16,91;-12,81;81,37;2,3;81,37;2,3;0;0;
18291;-15,02;-4,24;-15,02;-4,24;56,77;2,1;56,77;2,1;0;0;
18310;-5,01;13,18;-5,01;13,18;31,03;7,24;31,03;7,24;0;0;
18328;-27,76;-92,79;-27,76;-92,79;12,69;16,14;12,69;16,14;0;0;
18344;0,08;-79,74;0,08;-79,74;4,62;20,99;4,62;20,99;0;0;
18362;-30,53;61,66;-30,53;61,66;4,7;26,84;4,7;26,84;0;0;
18378;-30,53;61,66;-30,53;61,66;5,59;32,65;5,59;32,65;0;0;
18395;-15,98;-90,24;-15,98;-90,24;6,4;44,9;6,4;44,9;0;0;
18414;-19,25;-25,18;-19,25;-25,18;6,63;38,27;6,63;38,27;0;0;
18431;-19,25;-25,18;-19,25;-25,18;7,14;38,13;7,14;38,13;0;0;
18449;-27,9;-27,49;-27,9;-27,49;6,65;38,53;6,65;38,53;0;0;
18465;-19,06;-28,25;-19,06;-28,25;5,87;36,45;5,87;36,45;0;0;
18484;-27,87;-28,35;-27,87;-28,35;6,17;30,57;6,17;30,57;0;0;
18499;-27,87;-28,35;-27,87;-28,35;6,52;24;6,52;24;0;0;
18518;-13,64;22,9;-13,64;22,9;6,31;27,41;6,31;27,41;0;0;
18535;-21,69;41,52;-21,69;41,52;6,01;28,33;6,01;28,33;0;0;
18553;-16,76;4,4;-16,76;4,4;6,24;25,09;6,24;25,09;0;0;
18572;-21,78;98,38;-21,78;98,38;6,02;29,31;6,02;29,31;0;0;
18589;-4,59;-100,33;-4,59;-100,33;5,32;30,74;5,32;30,74;0;0;
18607;-38,35;-26;-38,35;-26;6,19;28,83;6,19;28,83;0;0;
18624;-9,62;-56,83;-9,62;-56,83;6,4;29,89;6,4;29,89;0;0;
18642;-19,92;46,79;-19,92;46,79;6,12;30,5;6,12;30,5;0;0;
18660;-19,92;46,79;-19,92;46,79;5,99;29,52;5,99;29,52;0;0;
18677;-1,59;31,41;-1,59;31,41;6,85;27,7;6,85;27,7;0;0;
18696;-8,28;-18,71;-8,28;-18,71;7,16;26,74;7,16;26,74;0;0;
18714;-13,67;-61,34;-13,67;-61,34;5,98;26,62;5,98;26,62;0;0;
18732;-18,02;-21,06;-18,02;-21,06;6,13;30,81;6,13;30,81;0;0;
18749;-18,33;-12,62;-18,33;-12,62;6,02;29,97;6,02;29,97;0;0;
18767;-4,81;11,88;-4,81;11,88;6,18;28,75;6,18;28,75;0;0;
18787;-14,56;5,79;-14,56;5,79;5,78;27,68;5,78;27,68;0;0;
18804;-22,18;-9,38;-22,18;-9,38;5,16;25,92;5,16;25,92;0;0;
18821;-22,18;-9,38;-22,18;-9,38;5,28;18,13;5,28;18,13;0;0;
18837;-17,6;17,5;-17,6;17,5;5,12;20,81;5,12;20,81;0;0;
18854;-21,21;6,56;-21,21;6,56;4,94;23,95;4,94;23,95;0;0;
18872;-11,78;-5,48;-11,78;-5,48;4,57;24,38;4,57;24,38;0;0;
18891;-13,81;-27,77;-13,81;-27,77;4,84;24,12;4,84;24,12;0;0;
18910;-19,8;14,32;-19,8;14,32;5,33;27,14;5,33;27,14;0;0;
18929;-31,53;-11,9;-31,53;-11,9;5,75;26,62;5,75;26,62;0;0;
18950;-10,09;-16,61;-10,09;-16,61;6,02;24,34;6,02;24,34;0;0;
18968;-14,86;4,7;-14,86;4,7;6,23;21;6,23;21;0;0;
18986;-14,86;4,7;-14,86;4,7;6,18;19,26;6,18;19,26;0;0;
19004;-20,04;101,16;-20,04;101,16;6,05;24,4;6,05;24,4;0;0;
19023;-13,28;7,11;-13,28;7,11;5,65;26,26;5,65;26,26;0;0;
19043;-16,78;13,35;-16,78;13,35;5,37;25,73;5,37;25,73;0;0;
19061;-12,82;-19,1;-12,82;-19,1;5,47;25,41;5,47;25,41;0;0;
19077;-12,82;-19,1;-12,82;-19,1;5,32;26,97;5,32;26,97;0;0;
19094;-12,07;12,15;-12,07;12,15;5,26;27,77;5,26;27,77;0;0;
19112;-18,91;10,12;-18,91;10,12;5,57;20,04;5,57;20,04;0;0;
19131;-18,2;-9,23;-18,2;-9,23;4,77;25,1;4,77;25,1;0;0;
19148;-19,39;-5,62;-19,39;-5,62;4,88;23,18;4,88;23,18;0;0;
19164;-26,67;31,43;-26,67;31,43;5,13;26,43;5,13;26,43;0;0;
19184;-17,6;20,02;-17,6;20,02;5,4;37,61;5,4;37,61;0;0;
19203;-15,82;-27,84;-15,82;-27,84;4,68;36,74;4,68;36,74;0;1;
19219;-15,82;-27,84;-15,82;-27,84;4,79;31,7;4,79;31,7;0;1;
19237;-13,34;14,15;-13,34;14,15;5,26;31,94;5,26;31,94;0;1;
19256;-26,49;42,37;-26,49;42,37;5,2;32,83;5,2;32,83;0;1;
19274;-27,24;4,04;-27,24;4,04;4,88;26,09;4,88;26,09;0;1;
19298;-26,37;-7,22;-26,37;-7,22;4,87;19,77;4,87;19,77;0;1;
19319;-12,39;12,67;-12,39;12,67;5,24;21,16;5,24;21,16;0;1;
19337;61,18;-12,18;61,18;-12,18;6,3;17,95;6,3;17,95;0;1;
19353;-231,86;0,35;-231,86;0,35;48,36;15,75;48,36;15,75;0;1;
19372;78,75;-9,05;78,75;-9,05;82,58;11,23;82,58;11,23;0;1;
19390;-19,73;-14,14;-19,73;-14,14;88,32;9,59;88,32;9,59;0;1;
19410;-6,57;-12,52;-6,57;-12,52;91,06;6,95;91,06;6,95;0;1;
19426;-20,01;-50,03;-20,01;-50,03;91,29;7;91,29;7;0;1;
19443;-21,26;-8,21;-21,26;-8,21;73,03;11,92;73,03;11,92;0;1;
19460;-21,26;-8,21;-21,26;-8,21;31,9;16,14;31,9;16,14;0;1;
19477;-8,37;-3,58;-8,37;-3,58;10,37;15,86;10,37;15,86;0;1;
19493;-19,5;-4,42;-19,5;-4,42;6,83;15,86;6,83;15,86;0;1;
19510;46,69;-10,97;46,69;-10,97;8,19;15,6;8,19;15,6;0;1;
19530;13,46;-10,65;13,46;-10,65;16,19;10,81;16,19;10,81;0;1;
19546;-20,23;-2,95;-20,23;-2,95;37,17;6,1;37,17;6,1;0;0;
19566;8,57;-12,51;8,57;-12,51;48,22;3,53;48,22;3,53;0;0;
19584;-103,01;-8,62;-103,01;-8,62;62,34;3,54;62,34;3,54;0;0;
19601;-103,01;-8,62;-103,01;-8,62;77,06;3,49;77,06;3,49;0;0;
19619;-9,28;-34,71;-9,28;-34,71;71,63;5,77;71,63;5,77;0;0;
19639;-23,48;-23,68;-23,48;-23,68;57,08;8,36;57,08;8,36;0;0;
19658;-9,71;-0,28;-9,71;-0,28;43,17;9,16;43,17;9,16;0;0;
19676;-17,8;4,36;-17,8;4,36;32,26;9,64;32,26;9,64;0;0;
19693;-49,9;-21,94;-49,9;-21,94;59,01;10,74;59,01;10,74;0;0;
19713;67,33;-18,54;67,33;-18,54;81,86;11,32;81,86;11,32;0;0;
19730;-24,02;-0,8;-24,02;-0,8;105,79;9,18;105,79;9,18;0;0;
19748;-473,57;-2,77;-473,57;-2,77;124,64;7,7;124,64;7,7;0;0;
19767;57,03;-2,77;57,03;-2,77;124,92;7,41;124,92;7,41;0;0;
19785;27,5;-3,57;27,5;-3,57;119,12;6,41;119,12;6,41;0;0;
19805;-125,09;-6,77;-125,09;-6,77;97,16;5,9;97,16;5,9;0;0;
19824;-476,39;-17,38;-476,39;-17,38;97,31;4,56;97,31;4,56;0;0;
19842;-278,45;-7;-278,45;-7;111,7;4,69;111,7;4,69;0;0;
19860;-278,45;-7;-278,45;-7;126,63;4,7;126,63;4,7;0;0;
19877;172,03;3,64;172,03;3,64;147,31;4,83;147,31;4,83;0;0;
19895;-279,96;-2,59;-279,96;-2,59;171,79;5,17;171,79;5,17;0;0;
19912;290,45;-0,69;290,45;-0,69;202,78;5,67;202,78;5,67;0;0;
19931;-284,7;-7,88;-284,7;-7,88;211,01;5,04;211,01;5,04;0;0;
19951;-535,03;8,5;-535,03;8,5;212;4,8;212;4,8;0;0;
19970;-80,3;-4,94;-80,3;-4,94;214,61;5,75;214,61;5,75;0;0;
19989;-170,37;-11,78;-170,37;-11,78;216,12;5,63;216,12;5,63;0;0;
20006;230,52;-12,64;230,52;-12,64;230,01;6;230,01;6;0;0;
20022;356,37;-0,51;356,37;-0,51;214,37;5,71;214,37;5,71;0;0;
20039;356,37;-0,51;356,37;-0,51;222,03;6,15;222,03;6,15;0;0;
20057;214,46;-4,12;214,46;-4,12;216,48;6,1;216,48;6,1;0;0;
20075;-399,44;-13,49;-399,44;-13,49;249,6;5,69;249,6;5,69;0;0;
20094;-373,29;0,36;-373,29;0,36;233,66;5,26;233,66;5,26;0;0;
20124;5,55;-10,27;5,55;-10,27;225,68;4,97;225,68;4,97;0;0;
20144;335,26;-10,33;335,26;-10,33;232,17;5,13;232,17;5,13;0;0;
20162;-97,51;-4,81;-97,51;-4,81;230,69;5,1;230,69;5,1;0;0;
20179;-97,51;-4,81;-97,51;-4,81;217,25;4,84;217,25;4,84;0;0;
20226;52,99;-13,99;52,99;-13,99;218,01;5,2;218,01;5,2;0;0;
20252;57,38;-6,28;57,38;-6,28;210,14;5,35;210,14;5,35;0;0;
20270;112,4;-5,55;112,4;-5,55;213,91;5,64;213,91;5,64;0;0;
20289;890,3;-6,01;890,3;-6,01;202,79;5,16;202,79;5,16;0;0;
20309;-50,66;-15,32;-50,66;-15,32;206,37;4,91;206,37;4,91;0;0;
20328;100,02;-4,26;100,02;-4,26;184,62;4,58;184,62;4,58;0;0;
20346;294,94;-8,14;294,94;-8,14;177,9;4,55;177,9;4,55;0;0;
20365;-194,07;2,68;-194,07;2,68;182,58;4,27;182,58;4,27;0;0;
20383;127,57;-0,78;127,57;-0,78;174,31;4,45;174,31;4,45;0;0;
20398;127,57;-0,78;127,57;-0,78;134,86;4,55;134,86;4,55;0;0;
20415;41,24;-9,36;41,24;-9,36;126,96;4,48;126,96;4,48;0;0;
20432;-56,09;-7,28;-56,09;-7,28;119,03;4,19;119,03;4,19;0;0;
20451;-469,48;-5,29;-469,48;-5,29;120,37;3,86;120,37;3,86;0;0;
20470;98,45;1,58;98,45;1,58;126,48;3,64;126,48;3,64;0;0;
20488;-9,86;2,24;-9,86;2,24;133,56;3,43;133,56;3,43;0;0;
20505;-4,79;-9,64;-4,79;-9,64;121,92;3,22;121,92;3,22;0;0;
20523;170,37;-4,12;170,37;-4,12;116,36;3,35;116,36;3,35;0;0;
20542;115,41;-16,69;115,41;-16,69;142,17;4,4;142,17;4,4;0;0;
20558;115,41;-16,69;115,41;-16,69;165,7;5,63;165,7;5,63;0;0;
20577;-355,38;-12,78;-355,38;-12,78;185,96;5,42;185,96;5,42;0;0;
20593;89,3;-0,89;89,3;-0,89;201,72;5,32;201,72;5,32;0;0;
20612;102,36;-16,27;102,36;-16,27;220,89;5,28;220,89;5,28;0;0;
20628;102,36;-16,27;102,36;-16,27;213,7;4,79;213,7;4,79;0;0;
20645;29,79;3,65;29,79;3,65;171,42;3,64;171,42;3,64;0;0;
20662;-84,14;-11,71;-84,14;-11,71;159,06;3,32;159,06;3,32;0;0;
20678;-84,14;-11,71;-84,14;-11,71;138,39;3,48;138,39;3,48;0;0;
20694;-116,33;-8,16;-116,33;-8,16;161,98;3,49;161,98;3,49;0;0;
20711;113,07;-10,3;113,07;-10,3;154,82;3,09;154,82;3,09;0;0;
20729;15,72;-12,64;15,72;-12,64;136,25;3,21;136,25;3,21;0;0;
20748;-151,58;-14,44;-151,58;-14,44;136,66;3,22;136,66;3,22;0;0;
20766;-239,28;-7,39;-239,28;-7,39;112,54;2,85;112,54;2,85;0;0;
20783;-73,67;-10,06;-73,67;-10,06;107,95;2,51;107,95;2,51;0;0;
20800;-73,67;-10,06;-73,67;-10,06;90,77;2,5;90,77;2,5;0;0;
20816;79,06;-9,24;79,06;-9,24;101,26;2,54;101,26;2,54;0;0;
20832;-7,5;-8,57;-7,5;-8,57;107,27;2,4;107,27;2,4;0;0;
20852;-16,02;-8,84;-16,02;-8,84;90,82;2,35;90,82;2,35;0;0;
20871;-13,59;5,81;-13,59;5,81;69,61;3,17;69,61;3,17;0;0;
20888;-278,32;-13,59;-278,32;-13,59;57,52;3,45;57,52;3,45;0;0;
20904;-23,06;-10,74;-23,06;-10,74;55,62;3,61;55,62;3,61;0;0;
20927;-13,24;-4,85;-13,24;-4,85;34,98;3,61;34,98;3,61;0;0;
20944;-19,34;-24,6;-19,34;-24,6;30,34;3,7;30,34;3,7;0;0;
20960;-19,34;-24,6;-19,34;-24,6;30,96;3,61;30,96;3,61;0;0;
20977;-28,06;-16,99;-28,06;-16,99;31,28;7,51;31,28;7,51;0;0;
20995;-4,42;-31,74;-4,42;-31,74;10,64;9,75;10,64;9,75;0;0;
21011;-29,7;-7,22;-29,7;-7,22;5,78;10,27;5,78;10,27;0;0;
21028;-23,35;-5,08;-23,35;-5,08;6,11;10,48;6,11;10,48;0;0;
21046;-17,66;-6,13;-17,66;-6,13;5,21;10,09;5,21;10,09;0;0;
21064;-16,12;-10,55;-16,12;-10,55;4,82;7,22;4,82;7,22;0;0;
21082;-59,37;-3,44;-59,37;-3,44;6,54;4,99;6,54;4,99;0;0;
21101;-59,37;-3,44;-59,37;-3,44;8,16;4,09;8,16;4,09;0;0;
21119;-17,83;-9,37;-17,83;-9,37;6,71;3,89;6,71;3,89;1;0;
21136;-14,39;-11,25;-14,39;-11,25;6,44;3,64;6,44;3,64;1;0;
21154;-25,67;-2,01;-25,67;-2,01;10,73;3,59;10,73;3,59;1;0;
21172;-49,53;-13,16;-49,53;-13,16;18,95;3,35;18,95;3,35;1;0;
21189;-66,24;-7,5;-66,24;-7,5;27,23;2,6;27,23;2,6;1;0;
21208;-26;-8,96;-26;-8,96;29,64;2,24;29,64;2,24;1;0;
21227;-44,77;-9,06;-44,77;-9,06;31,43;2,14;31,43;2,14;1;0;
21245;-11,69;-7,16;-11,69;-7,16;38,69;2,15;38,69;2,15;1;0;
21263;116,82;-7,43;116,82;-7,43;53,63;2,36;53,63;2,36;1;0;
21282;453,41;-6,49;453,41;-6,49;90,57;3,3;90,57;3,3;1;0;
21301;453,41;-6,49;453,41;-6,49;122,57;4,33;122,57;4,33;1;0;
21319;346,95;-13,59;346,95;-13,59;165,36;5,43;165,36;5,43;1;0;
21338;-21,63;-1,29;-21,63;-1,29;203,48;6,02;203,48;6,02;1;0;
21357;248,3;-13,44;248,3;-13,44;228,94;6,52;228,94;6,52;0;0;
21377;-262,28;-7,53;-262,28;-7,53;238,69;6,54;238,69;6,54;0;0;
21397;245,39;-5,52;245,39;-5,52;233,39;5,87;233,39;5,87;0;0;
21419;-6,54;-12,76;-6,54;-12,76;241,98;4,86;241,98;4,86;0;0;
21439;-266,67;-1,24;-266,67;-1,24;236,12;4,93;236,12;4,93;0;0;
21456;-134,43;-0,06;-134,43;-0,06;224,33;4,73;224,33;4,73;0;0;
21473;93,62;-4,35;93,62;-4,35;250,29;4,85;250,29;4,85;0;0;
21491;-13,01;-2,5;-13,01;-2,5;260,8;4,89;260,8;4,89;0;0;
21511;-1005,41;-11,53;-1005,41;-11,53;244,19;4,77;244,19;4,77;0;0;
21529;-76,72;-13,54;-76,72;-13,54;250,9;4,61;250,9;4,61;0;0;
21548;13,78;-5,8;13,78;-5,8;245,06;4,87;245,06;4,87;0;0;
21566;-182,99;-1,13;-182,99;-1,13;215,47;4,59;215,47;4,59;0;0;
21584;-129,63;-10,89;-129,63;-10,89;181;4,52;181;4,52;0;0;
21604;-324,77;-15,99;-324,77;-15,99;185,82;4,28;185,82;4,28;0;0;
21622;-44,67;-10,34;-44,67;-10,34;148,76;4,17;148,76;4,17;0;0;
21640;-44,67;-10,34;-44,67;-10,34;133,33;3,85;133,33;3,85;0;0;
21661;215,19;-4,65;215,19;-4,65;142,74;3,44;142,74;3,44;0;0;
21680;-241,51;-9,47;-241,51;-9,47;152,32;3,19;152,32;3,19;0;0;
21696;443,93;-5;443,93;-5;183,82;3,29;183,82;3,29;0;0;
21715;-43,39;-13,91;-43,39;-13,91;182,99;3,37;182,99;3,37;0;0;
21734;-237,54;-2,86;-237,54;-2,86;178,43;3,3;178,43;3,3;0;0;
21750;-237,54;-2,86;-237,54;-2,86;183,01;3,5;183,01;3,5;0;0;
21769;80,07;-12,78;80,07;-12,78;174,51;3,61;174,51;3,61;0;0;
21786;-206,4;0,05;-206,4;0,05;155,98;3,91;155,98;3,91;0;0;
21804;49,2;-6,45;49,2;-6,45;111,93;3,84;111,93;3,84;0;0;
21820;49,2;-6,45;49,2;-6,45;117,42;4,12;117,42;4,12;0;0;
21837;132,62;-12,56;132,62;-12,56;126,07;4,04;126,07;4,04;0;0;
21854;3,98;-9,73;3,98;-9,73;127,72;4,29;127,72;4,29;0;0;
21871;-71,11;-9,45;-71,11;-9,45;138,81;3,92;138,81;3,92;0;0;
21890;32,83;-10,12;32,83;-10,12;132,9;3,35;132,9;3,35;0;0;
21920;-101,76;-11,19;-101,76;-11,19;134,87;3,22;134,87;3,22;0;0;
21938;-157,2;-7,83;-157,2;-7,83;154,57;3,42;154,57;3,42;0;0;
21956;-214,79;-8,05;-214,79;-8,05;144,17;3;144,17;3;0;0;
21976;-83,53;-2,36;-83,53;-2,36;132,9;2,87;132,9;2,87;0;0;
21995;-61,56;-5,96;-61,56;-5,96;128,54;3,41;128,54;3,41;0;0;
22012;-30,99;-9,65;-30,99;-9,65;136,71;3,48;136,71;3,48;0;0;
22031;1,11;-13,48;1,11;-13,48;157,7;3,3;157,7;3,3;0;0;
22050;-49,53;-11,87;-49,53;-11,87;167,79;3,56;167,79;3,56;0;0;
22070;9,93;-8,49;9,93;-8,49;196,73;3,77;196,73;3,77;0;0;
22089;-48,5;-12,06;-48,5;-12,06;202,85;3,52;202,85;3,52;0;0;
22107;57,43;-1,31;57,43;-1,31;183,78;3,23;183,78;3,23;0;0;
22125;-449,79;-17,39;-449,79;-17,39;194,3;3,21;194,3;3,21;0;0;
22141;-449,79;-17,39;-449,79;-17,39;201,33;3,01;201,33;3,01;0;0;
22159;-241,85;-14,16;-241,85;-14,16;175,07;3,06;175,07;3,06;0;0;
22178;49,46;-8,84;49,46;-8,84;132,98;2,99;132,98;2,99;0;0;
22198;-13,95;-6,24;-13,95;-6,24;133,79;2,88;133,79;2,88;0;0;
22216;-6,39;-5,96;-6,39;-5,96;110;2,98;110;2,98;0;0;
22232;-13,62;-12,31;-13,62;-12,31;68,72;2,75;68,72;2,75;0;0;
22249;-15,06;-8,72;-15,06;-8,72;42,96;3,51;42,96;3,51;0;0;
22266;-30,17;-9,67;-30,17;-9,67;30,41;3,6;30,41;3,6;0;0;
22286;-8,42;-6,6;-8,42;-6,6;10,62;3,56;10,62;3,56;0;0;
22304;-18,13;-4,22;-18,13;-4,22;6,13;3,53;6,13;3,53;0;0;
22322;-18,13;-4,22;-18,13;-4,22;4,29;3,64;4,29;3,64;0;0;
22339;-20,28;-10,38;-20,28;-10,38;4,29;3,21;4,29;3,21;0;0;
22357;-11,64;-7,99;-11,64;-7,99;6,78;2,52;6,78;2,52;0;0;
22376;-16,54;35;-16,54;35;6,48;6,94;6,48;6,94;0;0;
22393;-23,86;0,2;-23,86;0,2;6,47;10,62;6,47;10,62;0;0;
22411;-24,66;-26,15;-24,66;-26,15;7,01;15,04;7,01;15,04;0;0;
22429;-15,86;-66,95;-15,86;-66,95;7,18;19,34;7,18;19,34;0;0;
22447;-11,98;4;-11,98;4;5,87;23,55;5,87;23,55;0;0;
22465;-26,3;60,64;-26,3;60,64;5,12;27,79;5,12;27,79;0;0;
22483;-25,58;-23,36;-25,58;-23,36;4,76;36,88;4,76;36,88;0;0;
22499;-25,58;-23,36;-25,58;-23,36;4,43;43,85;4,43;43,85;0;0;
22518;-24,35;57,4;-24,35;57,4;5,19;55,36;5,19;55,36;0;0;
22537;-15,9;-15,17;-15,9;-15,17;5,76;57,59;5,76;57,59;0;0;
22555;-19,94;33,27;-19,94;33,27;7,31;61,58;7,31;61,58;0;0;
22581;-18,39;-23,49;-18,39;-23,49;7,56;56,76;7,56;56,76;0;0;
22599;-14,37;-6,3;-14,37;-6,3;7,95;46,82;7,95;46,82;0;0;
22619;-17,2;38,39;-17,2;38,39;7,94;43,13;7,94;43,13;0;0;
22637;2,99;-28,62;2,99;-28,62;8,18;34,7;8,18;34,7;0;0;
22656;-6,8;-97,14;-6,8;-97,14;7,74;33,22;7,74;33,22;0;0;
22673;-13,84;-104,6;-13,84;-104,6;6,9;44,89;6,9;44,89;0;0;
22690;-10,31;46,37;-10,31;46,37;7,34;51,66;7,34;51,66;0;0;
22707;-29,13;-29,08;-29,13;-29,08;6,76;49,31;6,76;49,31;0;0;
22728;-14,09;26,96;-14,09;26,96;7,15;45,61;7,15;45,61;0;0;
22745;-10,08;-34,55;-10,08;-34,55;6,16;45,91;6,16;45,91;0;0;
22763;-16,95;9,53;-16,95;9,53;6,54;39,78;6,54;39,78;0;0;
22781;-16,95;9,53;-16,95;9,53;6,91;33,86;6,91;33,86;0;0;
22798;-14,9;1,15;-14,9;1,15;6,49;29,49;6,49;29,49;0;0;
22814;-15,86;-34,03;-15,86;-34,03;6,05;30,39;6,05;30,39;0;0;
22831;-11,56;-59,69;-11,56;-59,69;6,17;34,74;6,17;34,74;0;0;
22851;-13,12;-29,4;-13,12;-29,4;5,94;32,44;5,94;32,44;0;0;
22868;-34,93;-2,66;-34,93;-2,66;5,7;32,6;5,7;32,6;0;0;
22885;-17,86;32,63;-17,86;32,63;5,74;31,14;5,74;31,14;0;0;
22903;-9,96;16,71;-9,96;16,71;5,65;33,33;5,65;33,33;0;0;
22921;-9,96;16,71;-9,96;16,71;5,23;32,51;5,23;32,51;0;0;
22942;-22,05;-63,32;-22,05;-63,32;5,1;34,65;5,1;34,65;0;0;
22960;-22,05;-63,32;-22,05;-63,32;4,62;33,41;4,62;33,41;0;0;
22980;-20,03;22,89;-20,03;22,89;4,31;37,52;4,31;37,52;0;0;
22998;-24,71;-1,29;-24,71;-1,29;4,03;37,39;4,03;37,39;0;0;
23015;-9,65;-7,55;-9,65;-7,55;4,34;31,26;4,34;31,26;0;1;
23032;-19,86;-73,53;-19,86;-73,53;4,59;27,68;4,59;27,68;0;1;
23052;-22,93;-20,61;-22,93;-20,61;4,36;27,9;4,36;27,9;0;1;
23068;-16,27;17,41;-16,27;17,41;4,3;25,79;4,3;25,79;0;1;
23087;6,91;-6,6;6,91;-6,6;4,55;19,33;4,55;19,33;0;1;
23104;-17,24;-8,93;-17,24;-8,93;16,92;16,62;16,92;16,62;0;1;
23122;230,18;-5,88;230,18;-5,88;37,9;14,8;37,9;14,8;0;1;
23141;230,18;-5,88;230,18;-5,88;59,07;9,08;59,07;9,08;0;1;
23159;-25,05;-9,41;-25,05;-9,41;59,85;7,79;59,85;7,79;0;1;
23179;-9,87;-4,95;-9,87;-4,95;59,88;6,64;59,88;6,64;0;1;
23196;-152,35;-2,17;-152,35;-2,17;67,68;7,58;67,68;7,58;0;1;
23216;-77,8;-10,34;-77,8;-10,34;85,84;7,83;85,84;7,83;0;1;
23235;-8,16;-7,77;-8,16;-7,77;68,99;7,52;68,99;7,52;0;1;
23253;-21,59;-3,63;-21,59;-3,63;54,11;7,14;54,11;7,14;0;1;
23269;-28,68;-5,68;-28,68;-5,68;54,03;5,7;54,03;5,7;0;1;
23286;-22,44;-28,17;-22,44;-28,17;52,89;6,08;52,89;6,08;0;1;
23303;-17,63;11,88;-17,63;11,88;23,86;9,45;23,86;9,45;0;1;
23319;-17,63;11,88;-17,63;11,88;9,25;13,43;9,25;13,43;0;1;
23339;-1,23;-7,41;-1,23;-7,41;9,43;16,1;9,43;16,1;0;1;
23357;17,36;-2,64;17,36;-2,64;11,59;15,66;11,59;15,66;0;0;
23375;-340;-19,46;-340;-19,46;30,84;15,64;30,84;15,64;0;0;
23395;-261,71;-18,82;-261,71;-18,82;48,42;15,62;48,42;15,62;0;0;
23413;-19,02;-3,52;-19,02;-3,52;82,78;12,4;82,78;12,4;0;0;
23432;154,44;-3,16;154,44;-3,16;100,47;8,08;100,47;8,08;0;0;
23454;188,81;-2,72;188,81;-2,72;136,32;7,88;136,32;7,88;0;0;
23472;-128,24;-10,32;-128,24;-10,32;152,1;7,12;152,1;7,12;0;0;
23492;-34,4;-16,46;-34,4;-16,46;157,42;6,07;157,42;6,07;0;0;
23513;-17,71;-21,54;-17,71;-21,54;158,7;5,1;158,7;5,1;0;0;
23530;-160,76;1,82;-160,76;1,82;154,59;4,66;154,59;4,66;0;0;
23548;-45,68;-15,01;-45,68;-15,01;153,6;4,44;153,6;4,44;0;0;
23566;20,05;-9,81;20,05;-9,81;127,96;4,28;127,96;4,28;0;0;
23584;-117,29;1,71;-117,29;1,71;142,77;4,19;142,77;4,19;0;0;
23603;-48,63;-6,66;-48,63;-6,66;141,36;3,88;141,36;3,88;0;0;
23622;-97,97;-7,5;-97,97;-7,5;170,52;3,71;170,52;3,71;0;0;
23639;-97,97;-7,5;-97,97;-7,5;182,45;3,82;182,45;3,82;0;0;
23656;-649,2;-5,27;-649,2;-5,27;204,83;3,68;204,83;3,68;0;0;
23674;-226,32;-0,44;-226,32;-0,44;207,16;3,89;207,16;3,89;0;0;
23692;86,61;-3,75;86,61;-3,75;216,29;3,97;216,29;3,97;0;0;
23709;24,41;4,14;24,41;4,14;218,61;4,45;218,61;4,45;0;0;
23726;-5,7;-11,22;-5,7;-11,22;185,13;4,44;185,13;4,44;1;0;
23743;-45,47;-12,7;-45,47;-12,7;185,56;4,68;185,56;4,68;1;0;
23760;-45,47;-12,7;-45,47;-12,7;187,77;5,37;187,77;5,37;1;0;
23781;-153,7;-2,92;-153,7;-2,92;168,79;5,32;168,79;5,32;1;0;
23799;97,65;-10,46;97,65;-10,46;191,74;5,19;191,74;5,19;1;0;
23817;-76,46;-9,54;-76,46;-9,54;199,49;4,66;199,49;4,66;1;0;
23836;566,54;-3,06;566,54;-3,06;212,79;4,6;212,79;4,6;1;0;
23856;-383,01;1,25;-383,01;1,25;213,07;4,32;213,07;4,32;1;0;
23875;-51,54;-11,59;-51,54;-11,59;202,52;4,69;202,52;4,69;1;0;
23893;-1,13;5,36;-1,13;5,36;172,91;4,6;172,91;4,6;1;0;
23911;35,33;-3,32;35,33;-3,32;159,78;4,9;159,78;4,9;1;0;
23929;-30,03;-9,78;-30,03;-9,78;170,83;5,34;170,83;5,34;1;0;
23949;-29,78;-18,11;-29,78;-18,11;140,33;5,09;140,33;5,09;1;0;
23966;125,54;-10,28;125,54;-10,28;137,97;4,6;137,97;4,6;1;0;
23986;-300,72;-5,25;-300,72;-5,25;172,16;4,51;172,16;4,51;1;0;
24003;936,77;-6,42;936,77;-6,42;185,61;4,15;185,61;4,15;1;0;
24019;936,77;-6,42;936,77;-6,42;197,67;3,84;197,67;3,84;1;0;
24039;-589,92;-0,53;-589,92;-0,53;189,51;3,87;189,51;3,87;1;0;
24058;-46,94;-9,71;-46,94;-9,71;193,85;3,79;193,85;3,79;1;0;
24077;-388,78;-0,04;-388,78;-0,04;187,12;3,85;187,12;3,85;0;0;
24095;43,58;-9,48;43,58;-9,48;159,8;3,68;159,8;3,68;0;0;
24112;-16,41;-8,74;-16,41;-8,74;145,15;3,62;145,15;3,62;0;0;
24130;-24,37;-6,42;-24,37;-6,42;137,21;3,97;137,21;3,97;0;0;
24147;-405,77;-6,05;-405,77;-6,05;139,04;3,55;139,04;3,55;0;0;
24166;-1,93;-4,88;-1,93;-4,88;139,62;3,07;139,62;3,07;0;0;
24187;-127,49;-15,31;-127,49;-15,31;156,76;2,83;156,76;2,83;0;0;
24205;72,92;-13,06;72,92;-13,06;164,56;3,02;164,56;3,02;0;0;
24227;-102,67;-4,19;-102,67;-4,19;174,36;3,02;174,36;3,02;0;0;
24245;-554,72;-16,66;-554,72;-16,66;163,75;2,94;163,75;2,94;0;0;
24264;60,59;-4,5;60,59;-4,5;178,2;3,3;178,2;3,3;0;0;
24284;16,1;-7,76;16,1;-7,76;160,12;3,51;160,12;3,51;0;0;
24303;-16,03;-9,12;-16,03;-9,12;127,51;3,3;127,51;3,3;0;0;
24321;-207,92;-13,43;-207,92;-13,43;112,21;3,32;112,21;3,32;0;0;
24337;-207,92;-13,43;-207,92;-13,43;115,67;3,23;115,67;3,23;0;0;
24354;125,05;-4,08;125,05;-4,08;96,88;3,19;96,88;3,19;0;0;
24374;-112,52;-9,47;-112,52;-9,47;98,1;3;98,1;3;0;0;
24394;-5,25;-7,88;-5,25;-7,88;101,67;3,24;101,67;3,24;0;0;
24410;16,65;-6,17;16,65;-6,17;111,82;3,58;111,82;3,58;0;0;
24427;-259,42;-12,39;-259,42;-12,39;100,92;3,4;100,92;3,4;0;0;
24445;-29,98;-13,19;-29,98;-13,19;98,31;3,51;98,31;3,51;0;0;
24462;-24,67;-6,64;-24,67;-6,64;80,87;2,9;80,87;2,9;0;0;
24479;-24,67;-6,64;-24,67;-6,64;70,73;2,84;70,73;2,84;0;0;
24497;-107,56;-6,68;-107,56;-6,68;84,13;2,74;84,13;2,74;0;0;
24514;-40,97;-12,45;-40,97;-12,45;79,84;2,67;79,84;2,67;0;0;
24532;-11,77;-8,57;-11,77;-8,57;52,07;2,23;52,07;2,23;0;0;
24549;-20,62;-15,64;-20,62;-15,64;44,68;2,34;44,68;2,34;0;0;
24566;-22,85;-7,72;-22,85;-7,72;43,69;3,72;43,69;3,72;0;0;
24584;-9,45;-2,51;-9,45;-2,51;55,62;4,08;55,62;4,08;0;0;
24601;-9,45;-2,51;-9,45;-2,51;33,63;4,2;33,63;4,2;0;0;
24618;-16,03;-7,4;-16,03;-7,4;34,79;4,33;34,79;4,33;0;0;
24634;17,06;-6,69;17,06;-6,69;36,62;4,27;36,62;4,27;0;0;
24653;-402,92;-10,92;-402,92;-10,92;54,89;3,75;54,89;3,75;0;0;
24670;-480,68;-2,42;-480,68;-2,42;97,58;3,36;97,58;3,36;0;0;
24687;50,78;-3,5;50,78;-3,5;109,24;3,38;109,24;3,38;0;0;
24704;-15,12;-5,28;-15,12;-5,28;99,21;3,39;99,21;3,39;0;0;
24724;72,3;-11,57;72,3;-11,57;122,91;3,71;122,91;3,71;0;0;
24743;-246,08;-16,24;-246,08;-16,24;134,44;4,2;134,44;4,2;0;0;
24762;39,9;-6,9;39,9;-6,9;113,32;4,38;113,32;4,38;0;0;
24780;39,9;-6,9;39,9;-6,9;92,52;4,35;92,52;4,35;0;0;
24797;39,16;-5,42;39,16;-5,42;94,2;4,17;94,2;4,17;0;0;
24813;-217,83;-2,22;-217,83;-2,22;98,81;3,99;98,81;3,99;0;0;
24830;-23,53;-10,48;-23,53;-10,48;92,03;3,71;92,03;3,71;0;0;
24848;48,72;-4,49;48,72;-4,49;82,86;2,9;82,86;2,9;0;0;
24866;-88,48;-8,88;-88,48;-8,88;85,41;2,52;85,41;2,52;0;0;
24884;246,74;1,91;246,74;1,91;93,87;2,55;93,87;2,55;0;0;
24905;-75,82;-9,27;-75,82;-9,27;105,06;2,45;105,06;2,45;1;0;
24924;-134,16;-3,87;-134,16;-3,87;121,04;2,63;121,04;2,63;1;0;
24943;-30,8;-10,69;-30,8;-10,69;158,72;3,3;158,72;3,3;1;0;
24961;-30,8;-10,69;-30,8;-10,69;186,75;3,85;186,75;3,85;1;0;
24978;65,42;-4,95;65,42;-4,95;175,62;4,05;175,62;4,05;1;0;
24996;155,98;-18,49;155,98;-18,49;193,89;4,69;193,89;4,69;1;0;
25015;7,56;-2,03;7,56;-2,03;195,68;5,19;195,68;5,19;1;0;
25031;3,26;-7,65;3,26;-7,65;138,35;4,7;138,35;4,7;1;0;
25050;553,78;6,14;553,78;6,14;107,74;4,48;107,74;4,48;1;0;
25068;-19,6;-6,5;-19,6;-6,5;107,3;4,02;107,3;4,02;1;0;
25085;-20,61;-4,32;-20,61;-4,32;95,87;3,63;95,87;3,63;1;0;
25103;-49,48;-2,47;-49,48;-2,47;69,29;3,02;69,29;3,02;1;0;
25119;-49,48;-2,47;-49,48;-2,47;57,83;3,22;57,83;3,22;1;0;
25136;538,77;-4,89;538,77;-4,89;76,86;3,94;76,86;3,94;1;0;
25153;91,69;-5,62;91,69;-5,62;93,58;4,15;93,58;4,15;1;0;
25171;-270,44;-4,69;-270,44;-4,69;102,53;4,24;102,53;4,24;1;0;
25191;48,89;-12,26;48,89;-12,26;124,06;4,62;124,06;4,62;1;0;
25208;130,91;-4,83;130,91;-4,83;123,94;4,35;123,94;4,35;1;0;
25226;-15,69;-16,47;-15,69;-16,47;127,88;4,07;127,88;4,07;1;0;
25243;-45,45;-5,96;-45,45;-5,96;130,25;4,11;130,25;4,11;0;0;
25261;-45,45;-5,96;-45,45;-5,96;129,04;4,53;129,04;4,53;0;0;
25278;-213,26;-3,42;-213,26;-3,42;138,39;4,17;138,39;4,17;0;0;
25295;-12,56;-9,73;-12,56;-9,73;155,97;4,08;155,97;4,08;0;0;
25312;3,28;-9,63;3,28;-9,63;123,59;3,57;123,59;3,57;0;0;
25329;262,04;-1,05;262,04;-1,05;125;3,18;125;3,18;0;0;
25349;-63,46;-13,86;-63,46;-13,86;121,82;3,85;121,82;3,85;0;0;
25366;-29,32;-7,64;-29,32;-7,64;104,17;3,76;104,17;3,76;0;0;
25384;-62,49;-7,93;-62,49;-7,93;85,36;3,69;85,36;3,69;0;0;
25402;28,25;-11,56;28,25;-11,56;84,98;3,78;84,98;3,78;0;0;
25419;28,25;-11,56;28,25;-11,56;93,92;3,99;93,92;3,99;0;0;
25436;25,53;-7,23;25,53;-7,23;57,06;3,35;57,06;3,35;0;0;
25453;-224,89;0,86;-224,89;0,86;61,87;2,72;61,87;2,72;0;0;
25470;15,42;-10;15,42;-10;91,13;2,96;91,13;2,96;0;0;
25488;7,18;-4,97;7,18;-4,97;94,72;2,8;94,72;2,8;0;0;
25506;7,18;-4,97;7,18;-4,97;102,4;2,57;102,4;2,57;0;0;
25525;4,72;-8,83;4,72;-8,83;97,14;2,31;97,14;2,31;0;0;
25544;-14,19;-11,7;-14,19;-11,7;90,64;3,11;90,64;3,11;0;0;
25563;-17,79;-8,87;-17,79;-8,87;61,67;3,02;61,67;3,02;0;0;
25581;-17,79;-8,87;-17,79;-8,87;32,98;3,15;32,98;3,15;0;0;
25598;-25,52;-12,48;-25,52;-12,48;14,36;3,36;14,36;3,36;0;0;
25617;23,1;-7,41;23,1;-7,41;6,77;3,39;6,77;3,39;0;0;
25633;138,58;-5,56;138,58;-5,56;18,07;3,24;18,07;3,24;0;0;
25650;-57,39;-6,41;-57,39;-6,41;31,18;2,61;31,18;2,61;0;0;
25667;18,32;-8,74;18,32;-8,74;38;2,16;38;2,16;0;0;
25685;-13,68;-5,14;-13,68;-5,14;38,9;1,92;38,9;1,92;0;0;
25704;-20,65;-10,48;-20,65;-10,48;38,52;1,73;38,52;1,73;0;0;
25720;-20,65;-10,48;-20,65;-10,48;33,46;1,67;33,46;1,67;0;0;
25738;-24,37;-5,93;-24,37;-5,93;21,77;1,58;21,77;1,58;0;0;
25754;-21,01;-9,61;-21,01;-9,61;11,83;1,51;11,83;1,51;0;0;
25773;-16,52;-44,82;-16,52;-44,82;7,27;7,27;7,27;7,27;0;0;
25789;-15,37;-4,59;-15,37;-4,59;7,12;9,09;7,12;9,09;0;0;
25815;-16,13;-8,47;-16,13;-8,47;6,88;9,12;6,88;9,12;0;0;
25831;-14,39;-8,87;-14,39;-8,87;5,87;9,16;5,87;9,16;0;0;
25849;-11,8;-9,32;-11,8;-9,32;2,62;9,08;2,62;9,08;0;0;
25866;-20,85;-7,42;-20,85;-7,42;2,63;6,74;2,63;6,74;0;0;
25887;-17,24;-6,06;-17,24;-6,06;2,63;2,13;2,63;2,13;0;0;
25904;-19,62;-3,98;-19,62;-3,98;2,52;2,26;2,52;2,26;0;0;
25920;-19,62;-3,98;-19,62;-3,98;2,42;2,62;2,42;2,62;0;0;
25938;-23;-5,7;-23;-5,7;2,46;2,53;2,46;2,53;0;0;
25953;-14,88;-7,19;-14,88;-7,19;2,76;2,44;2,76;2,44;0;0;
25971;-15,53;-2,95;-15,53;-2,95;2,36;2,59;2,36;2,59;0;0;
25990;-19,51;-7,39;-19,51;-7,39;2,55;2,57;2,55;2,57;0;0;
26008;-19,54;-10,37;-19,54;-10,37;2,6;2,46;2,6;2,46;0;0;
26027;-14,23;9,39;-14,23;9,39;2,96;5,37;2,96;5,37;0;0;
26045;-13,3;10,73;-13,3;10,73;2,71;8,88;2,71;8,88;0;0;
26064;-15,68;-16,72;-15,68;-16,72;2,48;11,44;2,48;11,44;0;0;
26082;-21,25;-2,53;-21,25;-2,53;2,51;11,78;2,51;11,78;0;0;
26097;-21,25;-2,53;-21,25;-2,53;2,57;12,13;2,57;12,13;0;0;
26115;117,31;-15,39;117,31;-15,39;44,11;11,53;44,11;11,53;0;0;
26134;-346,18;-11,08;-346,18;-11,08;69,39;7,86;69,39;7,86;0;0;
26149;-28,03;-4,96;-28,03;-4,96;71,35;4,82;71,35;4,82;0;0;
26169;-17,59;-3,48;-17,59;-3,48;72,99;3,99;72,99;3,99;0;0;
26191;-13,58;-5,23;-13,58;-5,23;73,04;3,52;73,04;3,52;0;0;
26209;-15,81;-9,07;-15,81;-9,07;55,95;2,87;55,95;2,87;0;0;
26227;-14,85;-6,4;-14,85;-6,4;19,96;2,53;19,96;2,53;0;0;
26249;-17,49;-7,9;-17,49;-7,9;4,09;2,6;4,09;2,6;0;0;
26265;-12,97;-4;-12,97;-4;2,93;2,42;2,93;2,42;0;0;
26283;-21,26;-10,91;-21,26;-10,91;2,75;2,5;2,75;2,5;0;0;
26299;-21,26;-10,91;-21,26;-10,91;3,12;2,63;3,12;2,63;0;0;
26317;-13,44;-6,82;-13,44;-6,82;3,21;2,62;3,21;2,62;0;0;
26335;44,14;-7,17;44,14;-7,17;5,8;2,79;5,8;2,79;0;0;
26352;-27,74;-11,08;-27,74;-11,08;25,55;3,04;25,55;3,04;0;0;
26370;110,3;-17,04;110,3;-17,04;67,06;3,91;67,06;3,91;0;0;
26390;-17,41;-5,69;-17,41;-5,69;74,53;3,91;74,53;3,91;0;0;
26411;-35,19;-10,12;-35,19;-10,12;79,73;3,7;79,73;3,7;0;0;
26430;-5,08;-7,88;-5,08;-7,88;84,38;3,93;84,38;3,93;0;0;
26447;-6,95;-7,48;-6,95;-7,48;75,14;3,57;75,14;3,57;0;0;
26468;-23,1;-11,99;-23,1;-11,99;53,69;3,47;53,69;3,47;0;0;
26485;-2,19;-10,7;-2,19;-10,7;37,58;3,09;37,58;3,09;0;0;
26501;-2,19;-10,7;-2,19;-10,7;46,47;3,53;46,47;3,53;0;0;
26519;-20,66;-5,34;-20,66;-5,34;39,26;3,52;39,26;3,52;0;0;
26539;-16,11;2,36;-16,11;2,36;38,09;4,29;38,09;4,29;0;0;
26556;-12,97;-6,46;-12,97;-6,46;34,3;4,34;34,3;4,34;0;0;
26575;-391,43;-2,59;-391,43;-2,59;38,39;4,25;38,39;4,25;0;0;
26592;-839,08;13,83;-839,08;13,83;89,13;5,98;89,13;5,98;0;0;
26610;-191,62;-1,59;-191,62;-1,59;139,02;6,86;139,02;6,86;0;0;
26627;-138,87;-6,6;-138,87;-6,6;164,75;6,56;164,75;6,56;0;0;
26647;185,54;-16,14;185,54;-16,14;207,34;7,08;207,34;7,08;0;0;
26666;-703,78;-8,18;-703,78;-8,18;253,81;7,76;253,81;7,76;0;0;
26684;634,35;-2,84;634,35;-2,84;252,59;7,18;252,59;7,18;0;0;
26702;-25,3;-11,17;-25,3;-11,17;232,8;6,95;232,8;6,95;0;0;
26722;340,67;-4,6;340,67;-4,6;223,37;6,42;223,37;6,42;0;0;
26740;340,67;-4,6;340,67;-4,6;213,7;6,16;213,7;6,16;0;0;
26756;-156,01;0,44;-156,01;0,44;181,11;6,11;181,11;6,11;0;0;
26773;-360,82;5,09;-360,82;5,09;180,39;6,39;180,39;6,39;0;0;
26792;163,42;-13,15;163,42;-13,15;155,66;5,52;155,66;5,52;0;0;
26814;27,89;-11,43;27,89;-11,43;155,19;5,04;155,19;5,04;0;0;
26832;-55,49;-6,8;-55,49;-6,8;167,44;5,29;167,44;5,29;1;0;
26852;-71,64;-7,16;-71,64;-7,16;186,57;5,16;186,57;5,16;1;0;
26871;642,68;0,87;642,68;0,87;188,54;4,31;188,54;4,31;1;0;
26889;-77,87;-14,69;-77,87;-14,69;202,17;4,17;202,17;4,17;1;0;
26908;-158,46;-5,4;-158,46;-5,4;223,31;3,76;223,31;3,76;1;0;
26929;220,94;0,43;220,94;0,43;227;3,2;227;3,2;1;0;
26947;112,88;-8,09;112,88;-8,09;215,8;3,22;215,8;3,22;1;0;
26964;-50,12;-13,61;-50,12;-13,61;218,87;3,48;218,87;3,48;1;0;
26982;-446;-10,28;-446;-10,28;190,66;3,27;190,66;3,27;1;0;
26999;-446;-10,28;-446;-10,28;169,87;3,24;169,87;3,24;1;0;
27018;13,94;-9,89;13,94;-9,89;175,48;3,43;175,48;3,43;1;0;
27036;614,35;-4,46;614,35;-4,46;161,55;3,73;161,55;3,73;1;0;
27053;247,98;-9,82;247,98;-9,82;151,65;3,75;151,65;3,75;1;0;
27069;8,78;-1,98;8,78;-1,98;141,02;3,58;141,02;3,58;1;0;
27088;-98,29;-5,71;-98,29;-5,71;164,24;4,11;164,24;4,11;1;0;
27107;69,33;-10,41;69,33;-10,41;139,04;4,26;139,04;4,26;1;0;
27127;-33,04;-8,98;-33,04;-8,98;165,65;4,77;165,65;4,77;1;0;
27144;127,49;-2,01;127,49;-2,01;165,99;4,77;165,99;4,77;1;0;
27161;127,49;-2,01;127,49;-2,01;166,68;4,74;166,68;4,74;1;0;
27179;135;-10,77;135;-10,77;163,86;4,74;163,86;4,74;1;0;
27197;-395,38;-6,76;-395,38;-6,76;157,77;4,74;157,77;4,74;0;0;
27215;282,56;-9,98;282,56;-9,98;182,28;4,59;182,28;4,59;0;0;
27231;-19,65;-7,05;-19,65;-7,05;141,96;3,82;141,96;3,82;0;0;
27250;-19,92;-8,7;-19,92;-8,7;97,33;2,82;97,33;2,82;0;0;
27269;-18,57;-20,35;-18,57;-20,35;79,03;2,87;79,03;2,87;0;0;
27292;-18,83;19,09;-18,83;19,09;63,39;5,4;63,39;5,4;0;0;
27314;-14,68;-28,4;-14,68;-28,4;24,43;6,57;24,43;6,57;0;0;
27333;-24,06;-4,33;-24,06;-4,33;4,87;7,25;4,87;7,25;0;0;
27351;340,68;-10,84;340,68;-10,84;28,37;7,82;28,37;7,82;0;0;
27372;-200,23;-11,95;-200,23;-11,95;49,7;8,54;49,7;8,54;0;0;
27397;-0,7;-10,56;-0,7;-10,56;59,33;6,37;59,33;6,37;0;0;
27414;-40,93;-9,12;-40,93;-9,12;62,3;4,99;62,3;4,99;0;0;
27432;43,31;-18,13;43,31;-18,13;71,65;3,97;71,65;3,97;0;0;
27450;-13,68;-4,67;-13,68;-4,67;42,32;3,71;42,32;3,71;0;0;
27469;-12,47;7,58;-12,47;7,58;23,37;3,67;23,37;3,67;0;0;
27487;-23,06;-13,04;-23,06;-13,04;19,42;4,04;19,42;4,04;0;0;
27504;-7,57;4,62;-7,57;4,62;16,1;5,22;16,1;5,22;1;0;
27525;-16,97;-8,23;-16,97;-8,23;5,71;5,53;5,71;5,53;1;0;
27544;-17,3;41,83;-17,3;41,83;3,92;9,64;3,92;9,64;1;0;
27560;-17,3;41,83;-17,3;41,83;3,35;13,98;3,35;13,98;1;0;
27577;-10,22;-1,51;-10,22;-1,51;3,48;13,76;3,48;13,76;1;0;
27596;-20,18;-10,67;-20,18;-10,67;3,08;13,69;3,08;13,69;1;0;
27618;-21,41;-14,96;-21,41;-14,96;2,87;12,04;2,87;12,04;1;0;
27638;-18,75;-7,78;-18,75;-7,78;3,06;10,42;3,06;10,42;1;0;
27658;-17,23;-3,04;-17,23;-3,04;3,63;6,09;3,63;6,09;1;0;
27677;-17,23;-3,04;-17,23;-3,04;4,33;2,71;4,33;2,71;1;0;
27694;-16,01;-2,68;-16,01;-2,68;3,9;2,57;3,9;2,57;1;0;
27714;-17,26;-8,11;-17,26;-8,11;3,79;2,51;3,79;2,51;1;0;
27733;-15,41;-4,07;-15,41;-4,07;3,48;2,41;3,48;2,41;1;0;
27751;-19,3;-4,6;-19,3;-4,6;3,43;2,28;3,43;2,28;1;0;
27771;-15,29;-4,65;-15,29;-4,65;2,91;2,31;2,91;2,31;1;0;
27789;-17,63;-9,55;-17,63;-9,55;2,74;2,09;2,74;2,09;1;0;
27805;-11,81;-8,66;-11,81;-8,66;6,57;1,94;6,57;1,94;1;0;
27823;-18,7;-5,34;-18,7;-5,34;8,14;1,87;8,14;1,87;1;0;
27840;-18,7;-5,34;-18,7;-5,34;9,86;1,95;9,86;1,95;1;0;
27857;-22,08;-6,05;-22,08;-6,05;9,71;2,09;9,71;2,09;1;0;
27874;-196,6;-0,07;-196,6;-0,07;42,49;2,91;42,49;2,91;0;0;
27891;-376,51;-13,67;-376,51;-13,67;102,48;4,37;102,48;4,37;0;0;
27909;295,27;-1,44;295,27;-1,44;145,81;4,57;145,81;4,57;0;0;
27929;125,7;-10,89;125,7;-10,89;201,61;5,52;201,61;5,52;0;0;
27950;-11,99;4,4;-11,99;4,4;233,86;5,83;233,86;5,83;0;0;
27974;-210,7;-10,37;-210,7;-10,37;253,54;6,3;253,54;6,3;0;0;
27995;-145,87;-18,72;-145,87;-18,72;240,64;6,11;240,64;6,11;0;0;
28014;115,44;-4,95;115,44;-4,95;201,97;6,01;201,97;6,01;0;0;
28033;-270,41;-11,75;-270,41;-11,75;193,84;6,16;193,84;6,16;0;0;
28051;221,15;-17,91;221,15;-17,91;171,37;6,13;171,37;6,13;0;0;
28069;11,01;-9,93;11,01;-9,93;167,01;5,7;167,01;5,7;0;0;
28086;-3,06;1,04;-3,06;1,04;156;5,5;156;5,5;0;0;
28104;-19,44;-7,48;-19,44;-7,48;126,4;4,76;126,4;4,76;0;0;
28125;-5,25;-16,73;-5,25;-16,73;102,74;5,26;102,74;5,26;0;0;
28141;-5,25;-16,73;-5,25;-16,73;64,88;6,27;64,88;6,27;0;0;
28157;13,78;-13,93;13,78;-13,93;71,97;6,54;71,97;6,54;0;0;
28176;13,78;-13,93;13,78;-13,93;90,79;7,39;90,79;7,39;0;0;
28196;-15,92;-0,8;-15,92;-0,8;83,74;7,5;83,74;7,5;0;0;
28214;-10,58;-10,5;-10,58;-10,5;83,65;7,14;83,65;7,14;0;0;
28230;-24,62;-11,1;-24,62;-11,1;82,83;5,5;82,83;5,5;0;0;
28250;-13,71;-6,34;-13,71;-6,34;74;4,09;74;4,09;0;0;
28267;-16,34;-5,53;-16,34;-5,53;38,04;3,13;38,04;3,13;0;0;
28285;-9,57;-12,54;-9,57;-12,54;8,86;2,36;8,86;2,36;0;0;
28302;-12,52;-11,15;-12,52;-11,15;6,49;2,27;6,49;2,27;0;0;
28318;-12,52;-11,15;-12,52;-11,15;5,16;2,38;5,16;2,38;0;0;
28336;-18,06;-5,83;-18,06;-5,83;4,7;2,5;4,7;2,5;0;0;
28354;-15,91;-2,87;-15,91;-2,87;4,71;2,81;4,71;2,81;0;0;
28371;-12,6;-10,72;-12,6;-10,72;3,39;2,9;3,39;2,9;0;0;
28389;-18,7;-11,98;-18,7;-11,98;3,28;2,77;3,28;2,77;0;0;
28406;-20,55;-5,37;-20,55;-5,37;3,06;3,94;3,06;3,94;0;0;
28426;-15,28;6,19;-15,28;6,19;3,22;4,36;3,22;4,36;0;0;
28444;-18,76;-4,23;-18,76;-4,23;3,27;4,28;3,27;4,28;0;0;
28462;-12,98;-9,62;-12,98;-9,62;3,2;4,07;3,2;4,07;0;0;
28479;-12,98;-9,62;-12,98;-9,62;2,67;4,24;2,67;4,24;0;0;
28495;-20,53;-12,49;-20,53;-12,49;2,58;4,08;2,58;4,08;0;0;
28512;-15,01;-6,02;-15,01;-6,02;2,36;3,15;2,36;3,15;0;0;
28529;-18,14;-6,45;-18,14;-6,45;2,13;2,89;2,13;2,89;0;0;
28546;-13,28;-12,57;-13,28;-12,57;2,06;2,8;2,06;2,8;0;0;
28563;-22,3;-6,78;-22,3;-6,78;2;2,66;2;2,66;0;0;
28581;-22,3;-6,78;-22,3;-6,78;2,02;2,5;2,02;2,5;0;0;
28600;-12,83;-8,13;-12,83;-8,13;2,04;2,38;2,04;2,38;0;0;
28617;-17,25;-5,15;-17,25;-5,15;2,12;2,2;2,12;2,2;0;0;
28633;228,03;-10,1;228,03;-10,1;14,87;2,02;14,87;2,02;0;0;
28653;15,62;-18,32;15,62;-18,32;56,32;3,26;56,32;3,26;0;0;
28670;-212,8;-11,05;-212,8;-11,05;86,24;3,84;86,24;3,84;0;0;
28688;-117,75;-19,43;-117,75;-19,43;126,3;4,43;126,3;4,43;0;0;
28706;-209,66;-13,26;-209,66;-13,26;165,04;5,25;165,04;5,25;0;0;
28724;-689,52;-14,33;-689,52;-14,33;203,18;6,02;203,18;6,02;0;0;
28744;343,8;-2,14;343,8;-2,14;221,55;5,94;221,55;5,94;0;0;
28763;148,08;4,2;148,08;4,2;203,98;5,76;203,98;5,76;0;0;
28783;-7,31;-16,08;-7,31;-16,08;210,46;5,92;210,46;5,92;0;0;
28801;-7,31;-16,08;-7,31;-16,08;218,16;5,9;218,16;5,9;0;0;
28817;-93,95;-8,37;-93,95;-8,37;217,02;5,29;217,02;5,29;0;0;
28833;-356,03;-17,52;-356,03;-17,52;189,75;4,9;189,75;4,9;0;0;
28852;7,62;-8,05;7,62;-8,05;163,59;4,67;163,59;4,67;0;0;
28869;129,47;-9,18;129,47;-9,18;156,59;4,37;156,59;4,37;0;0;
28887;-45,28;-8,26;-45,28;-8,26;128,05;3,74;128,05;3,74;0;0;
28905;-20,51;-10,17;-20,51;-10,17;90,16;2,94;90,16;2,94;0;0;
28927;-13,84;-8,02;-13,84;-8,02;70,39;2,74;70,39;2,74;0;0;
28948;-16,1;-10,88;-16,1;-10,88;40,32;3,46;40,32;3,46;0;0;
28968;-20,04;-15,12;-20,04;-15,12;30,45;3,8;30,45;3,8;0;0;
28989;-17,33;-4,7;-17,33;-4,7;4,82;3,92;4,82;3,92;0;0;
29007;-21,78;-1,58;-21,78;-1,58;3,16;4,16;3,16;4,16;0;0;
29027;-18,48;-4,1;-18,48;-4,1;3,12;5,36;3,12;5,36;0;0;
29045;-13,03;-3,17;-13,03;-3,17;3,07;5,51;3,07;5,51;0;0;
29062;-15,62;-6,63;-15,62;-6,63;3,06;5,2;3,06;5,2;0;0;
29080;-15,62;-6,63;-15,62;-6,63;2,88;4,88;2,88;4,88;0;0;
29097;-16,7;-1,64;-16,7;-1,64;2,75;4,69;2,75;4,69;0;0;
29116;-12,85;-13,4;-12,85;-13,4;2,43;4,17;2,43;4,17;0;0;
29134;-20,04;-3,05;-20,04;-3,05;2,63;4,05;2,63;4,05;0;0;
29151;-14,98;-15,57;-14,98;-15,57;2,79;3,8;2,79;3,8;0;0;
29170;-17,66;-10,74;-17,66;-10,74;2,87;3,55;2,87;3,55;0;0;
29190;-16,83;-6,43;-16,83;-6,43;2,83;3,46;2,83;3,46;0;0;
29208;-17,13;-9,55;-17,13;-9,55;2,59;3,12;2,59;3,12;0;0;
29225;-23,87;-7,11;-23,87;-7,11;2,32;2,81;2,32;2,81;0;0;
29247;-19,1;-9,01;-19,1;-9,01;2,11;2;2,11;2;0;0;
29266;-13,15;-8,99;-13,15;-8,99;1,83;1,72;1,83;1,72;0;0;
29283;-11,22;-10,44;-11,22;-10,44;1,83;1,76;1,83;1,76;0;0;
29300;-11,22;-10,44;-11,22;-10,44;1,99;1,92;1,99;1,92;0;0;
29321;-16,61;-9,12;-16,61;-9,12;2,26;1,69;2,26;1,69;0;0;
29340;-18,46;-11,29;-18,46;-11,29;2,34;1,84;2,34;1,84;0;0;
29359;-13,33;-5,22;-13,33;-5,22;2,42;1,94;2,42;1,94;0;0;
29376;-20,15;-10,1;-20,15;-10,1;2,52;2,04;2,52;2,04;0;0;
29394;-21,12;-2,03;-21,12;-2,03;2,52;1,95;2,52;1,95;0;0;
29411;-15,42;-8,01;-15,42;-8,01;2,48;2,22;2,48;2,22;0;0;
29428;-16,95;-5,42;-16,95;-5,42;2,34;2,46;2,34;2,46;0;0;
29445;-17,16;-8,05;-17,16;-8,05;2,26;2,53;2,26;2,53;0;0;
29465;-16,67;-5,85;-16,67;-5,85;1,95;2,13;1,95;2,13;0;0;
29481;-16,67;-5,85;-16,67;-5,85;1,9;2,06;1,9;2,06;0;0;
29497;-20,02;-3,36;-20,02;-3,36;1,67;1,9;1,67;1,9;0;0;
29514;-15,41;-0,87;-15,41;-0,87;1,64;2,05;1,64;2,05;0;0;
29533;-16,54;-10,89;-16,54;-10,89;1,46;1,83;1,46;1,83;0;0;
29551;-15,2;-6,88;-15,2;-6,88;1,51;1,92;1,51;1,92;0;0;
29569;-16,89;-5,37;-16,89;-5,37;1,49;2,06;1,49;2,06;0;0;
29586;-14,44;-0,77;-14,44;-0,77;1,65;2,33;1,65;2,33;0;0;
29604;-15,16;-8,78;-15,16;-8,78;1,62;2,44;1,62;2,44;0;0;
29621;-15,16;-8,78;-15,16;-8,78;1,65;2,4;1,65;2,4;0;0;
29638;-17,34;-9,13;-17,34;-9,13;1,65;2,5;1,65;2,5;0;0;
29657;-11,58;-12,8;-11,58;-12,8;1,82;2,42;1,82;2,42;0;0;
29676;-14,95;-2,72;-14,95;-2,72;1,9;2,68;1,9;2,68;0;0;
29695;-13,87;-8,5;-13,87;-8,5;1,74;2,41;1,74;2,41;0;0;
29712;-18,67;-13,17;-18,67;-13,17;1,86;2,2;1,86;2,2;0;0;
29732;-16,99;-6,86;-16,99;-6,86;1,87;2,18;1,87;2,18;0;0;
29749;-18,04;-6,16;-18,04;-6,16;1,98;2,28;1,98;2,28;0;0;
29765;-16,72;-7,77;-16,72;-7,77;1,98;2,18;1,98;2,18;0;0;
29782;-13,64;-9,45;-13,64;-9,45;1,99;2,27;1,99;2,27;0;0;
29801;-13,64;-9,45;-13,64;-9,45;2,1;2,44;2,1;2,44;0;0;
29818;-363,94;-10,86;-363,94;-10,86;24,21;2,8;24,21;2,8;0;0;
29834;-363,94;-10,86;-363,94;-10,86;46,34;3,4;46,34;3,4;0;0;
29851;-122,09;-2,86;-122,09;-2,86;76,57;3,85;76,57;3,85;0;0;
29869;-6,09;-8,8;-6,09;-8,8;85,42;3,75;85,42;3,75;0;0;
29888;-25,56;-3,08;-25,56;-3,08;90,14;3,66;90,14;3,66;0;0;
29906;-26,39;-15,44;-26,39;-15,44;83,25;3,38;83,25;3,38;0;0;
29924;-21,69;-12,39;-21,69;-12,39;61,55;3,16;61,55;3,16;0;0;
29940;-21,69;-12,39;-21,69;-12,39;37,42;3,24;37,42;3,24;0;0;
29958;-19,67;-8,66;-19,67;-8,66;13,41;3;13,41;3;0;0;
29974;-50,36;-1,65;-50,36;-1,65;6,58;3,22;6,58;3,22;0;0;
29993;-7,53;-7,17;-7,53;-7,17;9,65;3,35;9,65;3,35;0;0;
30012;-9,86;-9,52;-9,86;-9,52;13,84;2,93;13,84;2,93;0;0;
30028;-19,83;-7,36;-19,83;-7,36;14,67;2,67;14,67;2,67;0;0;
30046;-18,92;-11,42;-18,92;-11,42;14,71;2,24;14,71;2,24;0;0;
30067;-13,56;-8,74;-13,56;-8,74;14,62;2,3;14,62;2,3;0;0;
30085;-13,56;-8,74;-13,56;-8,74;9,86;2;9,86;2;0;0;
30103;-14,42;-8,49;-14,42;-8,49;6,41;1,75;6,41;1,75;0;0;
30120;-14,42;-8,49;-14,42;-8,49;9,2;1,59;9,2;1,59;0;0;
30138;-13,94;17,04;-13,94;17,04;9,39;6,55;9,39;6,55;0;0;
30154;-16,58;-13,33;-16,58;-13,33;8,95;9,01;8,95;9,01;0;0;
30173;-20,14;-17,3;-20,14;-17,3;7,44;11,91;7,44;11,91;0;0;
30191;-23,65;3,86;-23,65;3,86;6,69;15,97;6,69;15,97;0;0;
30210;-20,88;-5,55;-20,88;-5,55;4,98;17,01;4,98;17,01;0;0;
30227;-23,34;-2,99;-23,34;-2,99;4,42;14,39;4,42;14,39;0;0;
30245;-12,99;-16,63;-12,99;-16,63;4,1;12,98;4,1;12,98;0;0;
30263;-15,73;-0,67;-15,73;-0,67;3,93;10,33;3,93;10,33;0;0;
30280;-15,73;-0,67;-15,73;-0,67;3,59;7,55;3,59;7,55;0;0;
30297;-16,02;-5,89;-16,02;-5,89;3,35;5,81;3,35;5,81;0;0;
30315;-39,47;-4,15;-39,47;-4,15;4,79;5,54;4,79;5,54;0;0;
30333;81,09;2,78;81,09;2,78;21,89;5,52;21,89;5,52;0;0;
30350;-68,19;-4,45;-68,19;-4,45;32,12;4,66;32,12;4,66;0;0;
30366;-25,88;-7,6;-25,88;-7,6;39,3;3,67;39,3;3,67;0;0;
30384;-25,82;-9,57;-25,82;-9,57;39,72;2,89;39,72;2,89;0;0;
30400;-25,82;-9,57;-25,82;-9,57;40,22;2,48;40,22;2,48;0;0;
30418;-13,02;-0,6;-13,02;-0,6;35,59;2,85;35,59;2,85;0;0;
30434;-14,87;-20,36;-14,87;-20,36;18,59;6,39;18,59;6,39;0;0;
30454;-14,87;-20,36;-14,87;-20,36;7,48;10,32;7,48;10,32;0;0;
30472;-23,04;20,59;-23,04;20,59;6,28;16,86;6,28;16,86;0;0;
30488;-34,98;-21,35;-34,98;-21,35;6,35;23,8;6,35;23,8;0;0;
30507;-24,82;46,61;-24,82;46,61;6,47;27,52;6,47;27,52;0;0;
30525;-21,82;62,57;-21,82;62,57;7,22;30,72;7,22;30,72;0;0;
30544;-23,69;24,45;-23,69;24,45;7,31;34,87;7,31;34,87;0;0;
30561;-13,74;56,81;-13,74;56,81;6,29;35,84;6,29;35,84;0;0;
30579;-13,74;56,81;-13,74;56,81;6,6;34,61;6,6;34,61;0;0;
30602;-2,45;-11,32;-2,45;-11,32;6,94;43,44;6,94;43,44;0;0;
30619;-2,45;-11,32;-2,45;-11,32;7,31;52,74;7,31;52,74;0;0;
30635;-17,17;56,38;-17,17;56,38;7,58;55,95;7,58;55,95;0;1;
30654;-34,43;-151,66;-34,43;-151,66;7,89;62,15;7,89;62,15;0;1;
30670;-13,82;-4,07;-13,82;-4,07;9,13;65,87;9,13;65,87;0;1;
30686;-10,47;1,99;-10,47;1,99;8,67;70,14;8,67;70,14;0;1;
30705;-23,07;-22,35;-23,07;-22,35;7,85;64,46;7,85;64,46;0;1;
30724;-21,3;31,29;-21,3;31,29;7,4;57,63;7,4;57,63;0;1;
30740;-21,3;31,29;-21,3;31,29;6,98;58,78;6,98;58,78;0;1;
30756;-24,58;3,31;-24,58;3,31;5,96;51,83;5,96;51,83;0;1;
30777;2,88;-64,95;2,88;-64,95;6,14;50,69;6,14;50,69;0;1;
30793;-19,43;-24,74;-19,43;-24,74;5,55;44,88;5,55;44,88;0;1;
30812;-25,98;37,83;-25,98;37,83;5,89;46,4;5,89;46,4;0;1;
30828;-9,33;1,4;-9,33;1,4;6,44;43,43;6,44;43,43;0;1;
30846;-15,95;37,84;-15,95;37,84;6,47;41,65;6,47;41,65;0;1;
30866;-15;-1,66;-15;-1,66;6,29;43,27;6,29;43,27;0;1;
30884;-13,34;-54,06;-13,34;-54,06;6,07;40,76;6,07;40,76;0;1;
30905;-14,95;64,8;-14,95;64,8;5,9;38,84;5,9;38,84;0;1;
30920;-14,95;64,8;-14,95;64,8;5,41;35,42;5,41;35,42;0;1;
30939;-8,42;-39,26;-8,42;-39,26;4,49;36,54;4,49;36,54;0;1;
30956;-13,82;-37,3;-13,82;-37,3;4,09;35,42;4,09;35,42;0;1;
30974;-23,44;36,24;-23,44;36,24;4,06;35,68;4,06;35,68;0;0;
30990;-22,79;14,39;-22,79;14,39;4,74;35,68;4,74;35,68;0;0;
31008;-14,24;-31;-14,24;-31;4,71;36,88;4,71;36,88;0;0;
31026;-24,28;-7,64;-24,28;-7,64;4,75;31,92;4,75;31,92;0;0;
31046;-11,02;-74,61;-11,02;-74,61;4,96;31,95;4,96;31,95;0;0;
31067;-13,41;56,5;-13,41;56,5;4,72;31,8;4,72;31,8;0;0;
31084;-23,07;-38,29;-23,07;-38,29;4,41;31,09;4,41;31,09;0;0;
31100;-23,07;-38,29;-23,07;-38,29;4,1;31,69;4,1;31,69;0;0;
31117;-20,01;-11,6;-20,01;-11,6;4,16;25,19;4,16;25,19;0;0;
31136;-17,2;-5,43;-17,2;-5,43;4,07;22,04;4,07;22,04;0;0;
31155;-13,25;-21,74;-13,25;-21,74;3,89;14,85;3,89;14,85;0;0;
31176;-20,12;-7,08;-20,12;-7,08;4,3;16,61;4,3;16,61;0;0;
31192;-24,26;-66,55;-24,26;-66,55;4,46;20,02;4,46;20,02;0;0;
31211;-12,2;-38,03;-12,2;-38,03;4,32;18,95;4,32;18,95;0;0;
31227;-26,47;-8,4;-26,47;-8,4;4,63;21,95;4,63;21,95;0;0;
31245;-19,49;-7,72;-19,49;-7,72;5,33;26,27;5,33;26,27;0;0;
31265;-12,91;73,58;-12,91;73,58;5,5;26,61;5,5;26,61;0;0;
31282;-21,49;3,69;-21,49;3,69;5,9;25,31;5,9;25,31;0;0;
31298;-21,49;3,69;-21,49;3,69;6,38;24,29;6,38;24,29;0;0;
31315;-17,35;-56,31;-17,35;-56,31;6,53;29,57;6,53;29,57;0;0;
31335;-16,83;1,46;-16,83;1,46;6,33;28,1;6,33;28,1;0;0;
31352;-13,61;-6,8;-13,61;-6,8;6,06;26,29;6,06;26,29;0;0;
31368;1,11;1,09;1,11;1,09;10,36;20,31;10,36;20,31;0;0;
31388;-22,75;-9,13;-22,75;-9,13;15,27;15,72;15,27;15,72;0;0;
31405;-2,79;18,23;-2,79;18,23;15,33;12,46;15,33;12,46;0;0;
31423;-24,11;25,58;-24,11;25,58;15,5;13,74;15,5;13,74;0;0;
31442;-28,3;-90,83;-28,3;-90,83;16,41;15,72;16,41;15,72;0;0;
31462;-11,35;12,5;-11,35;12,5;15,98;19,68;15,98;19,68;0;0;
31480;-11,35;12,5;-11,35;12,5;6,57;23,77;6,57;23,77;0;0;
31497;-23,07;-13,03;-23,07;-13,03;5,84;28,15;5,84;28,15;0;0;
31516;-12,93;-30,08;-12,93;-30,08;5,34;25,44;5,34;25,44;0;0;
31534;-17,82;-17,91;-17,82;-17,91;4,73;21,99;4,73;21,99;0;0;
31552;-123,78;0,21;-123,78;0,21;8,63;15,28;8,63;15,28;0;0;
31568;9,57;-9,33;9,57;-9,33;14,61;10,95;14,61;10,95;0;0;
31587;-14,97;-1,34;-14,97;-1,34;17,21;8,6;17,21;8,6;0;0;
31605;0,84;-2,41;0,84;-2,41;17,07;6,76;17,07;6,76;0;0;
31622;-91,27;-20,15;-91,27;-20,15;22,98;6,45;22,98;6,45;0;0;
31642;-23,38;-0,3;-23,38;-0,3;26,03;6,88;26,03;6,88;0;0;
31657;-23,38;-0,3;-23,38;-0,3;22,67;7,25;22,67;7,25;0;0;
31673;-25,71;22,99;-25,71;22,99;19,73;9,06;19,73;9,06;0;0;
31690;-39,89;-26,17;-39,89;-26,17;19,8;10,1;19,8;10,1;0;0;
31708;-13,69;-14,72;-13,69;-14,72;19,75;8,44;19,75;8,44;0;0;
31727;-37,99;-19,79;-37,99;-19,79;16,37;8,16;16,37;8,16;0;0;
31745;-0,29;-9,22;-0,29;-9,22;13,29;7,52;13,29;7,52;0;0;
31764;-6,43;-20,07;-6,43;-20,07;11,37;6,65;11,37;6,65;0;0;
31783;-6,59;-6,09;-6,59;-6,09;11,37;4,23;11,37;4,23;0;0;
31800;-6,59;-6,09;-6,59;-6,09;10,3;4,47;10,3;4,47;0;0;
31817;1,6;-13,57;1,6;-13,57;10,5;5,33;10,5;5,33;0;0;
31835;-13,87;-0,36;-13,87;-0,36;10,25;6,19;10,25;6,19;0;0;
31852;-0,61;-7,43;-0,61;-7,43;9,71;6,55;9,71;6,55;0;0;
31870;57,32;-5,67;57,32;-5,67;27,9;5,71;27,9;5,71;0;0;
31889;-9,45;-9,26;-9,45;-9,26;33,69;5,1;33,69;5,1;0;0;
31906;-24,81;-4,7;-24,81;-4,7;33,37;4,32;33,37;4,32;0;0;
31924;-13,08;-7,55;-13,08;-7,55;32,49;3,14;32,49;3,14;0;0;
31941;-13,08;-7,55;-13,08;-7,55;31,28;2,31;31,28;2,31;0;0;
31959;-17,43;-14,21;-17,43;-14,21;17,77;2,24;17,77;2,24;0;0;
31976;-21,57;-9,14;-21,57;-9,14;7,35;2,1;7,35;2,1;0;0;
31993;-17,19;-9,56;-17,19;-9,56;5,34;1,92;5,34;1,92;0;0;
32013;-18,41;-6,85;-18,41;-6,85;4,11;1,89;4,11;1,89;0;0;
32030;-20,1;-10,21;-20,1;-10,21;2,75;1,96;2,75;1,96;0;0;
32048;-18,5;-7,46;-18,5;-7,46;2,18;2,01;2,18;2,01;0;0;
32067;-18,76;-9,63;-18,76;-9,63;2,2;1,71;2,2;1,71;0;0;
32085;-14,83;-10,34;-14,83;-10,34;2,02;1,62;2,02;1,62;0;0;
32104;-16,29;-11,08;-16,29;-11,08;1,92;1,65;1,92;1,65;0;0;
32123;-14,03;-9,55;-14,03;-9,55;1,73;1,77;1,73;1,77;0;0;
32140;-14,03;-9,55;-14,03;-9,55;1,76;1,78;1,76;1,78;0;0;
32156;-14,87;-3,24;-14,87;-3,24;1,77;1,71;1,77;1,71;0;0;
32174;-9,42;-7,77;-9,42;-7,77;2,05;1,92;2,05;1,92;0;0;
32191;-3,26;-11,23;-3,26;-11,23;2,72;1,94;2,72;1,94;0;0;
32207;264,28;-10,73;264,28;-10,73;34,04;2,1;34,04;2,1;0;0;
32228;43,6;-9,05;43,6;-9,05;56,22;2,07;56,22;2,07;0;0;
32245;22,01;-7,04;22,01;-7,04;69,97;2,22;69,97;2,22;0;0;
32264;115,28;-3,46;115,28;-3,46;104,3;2,43;104,3;2,43;0;0;
32284;-212,88;-4,76;-212,88;-4,76;127,42;2,79;127,42;2,79;0;0;
32300;-212,88;-4,76;-212,88;-4,76;133,65;2,92;133,65;2,92;0;0;
32320;36,89;-7,18;36,89;-7,18;135,85;3,33;135,85;3,33;0;0;
32339;-174,88;-12,59;-174,88;-12,59;131,67;3,52;131,67;3,52;0;0;
32357;-20,03;-8,42;-20,03;-8,42;124,8;3,42;124,8;3,42;0;0;
32373;-23,05;-5,84;-23,05;-5,84;105;3,26;105;3,26;0;0;
32392;-33,91;-9,1;-33,91;-9,1;89,1;3,11;89,1;3,11;0;0;
32411;1,61;-2,49;1,61;-2,49;56,27;2,88;56,27;2,88;0;0;
32431;-37,79;-6,7;-37,79;-6,7;41,5;2,76;41,5;2,76;0;0;
32448;-47,27;-2,16;-47,27;-2,16;28,4;2,52;28,4;2,52;0;0;
32466;4,65;-3,41;4,65;-3,41;19,01;2,76;19,01;2,76;0;0;
32485;27,24;0,42;27,24;0,42;45,51;3,26;45,51;3,26;0;0;
32500;27,24;0,42;27,24;0,42;68,84;3,73;68,84;3,73;0;0;
32518;-107,68;-13,55;-107,68;-13,55;96,64;4,15;96,64;4,15;1;0;
32538;0,76;-0,14;0,76;-0,14;123,91;4,73;123,91;4,73;1;0;
32554;75,62;-13,7;75,62;-13,7;146,65;4,78;146,65;4,78;1;0;
32571;387,12;-8,69;387,12;-8,69;181,01;4,86;181,01;4,86;1;0;
32591;-265,07;-9,85;-265,07;-9,85;198,37;5,03;198,37;5,03;0;0;
32612;113,39;-6,19;113,39;-6,19;207,66;4,7;207,66;4,7;0;0;
32632;282,56;-8,84;282,56;-8,84;195,52;4,56;195,52;4,56;0;0;
32652;418,62;-5,49;418,62;-5,49;196,46;3,94;196,46;3,94;0;0;
32670;352,24;-10,39;352,24;-10,39;203,79;3,65;203,79;3,65;0;0;
32687;-138,62;-13,4;-138,62;-13,4;173,11;3,17;173,11;3,17;0;0;
32706;523,37;12,81;523,37;12,81;170,25;3,73;170,25;3,73;0;0;
32724;53,35;-11,29;53,35;-11,29;187,75;3,71;187,75;3,71;0;0;
32745;-0,87;-4,44;-0,87;-4,44;191,95;3,76;191,95;3,76;0;0;
32766;-283,25;-10;-283,25;-10;188,87;4,27;188,87;4,27;0;0;
32787;84,84;-1,7;84,84;-1,7;201,88;4,71;201,88;4,71;0;0;
32804;31,55;-6,22;31,55;-6,22;242,7;4,65;242,7;4,65;0;0;
32822;-499,24;-14,23;-499,24;-14,23;255,5;4,31;255,5;4,31;0;0;
32838;-499,24;-14,23;-499,24;-14,23;245,97;4,35;245,97;4,35;0;0;
32857;220,87;-10,77;220,87;-10,77;266,8;3,88;266,8;3,88;0;0;
32876;233,4;-8,93;233,4;-8,93;281,6;3,64;281,6;3,64;0;0;
32891;31,44;-14,26;31,44;-14,26;264,97;3,8;264,97;3,8;0;0;
32910;-544,21;-12,51;-544,21;-12,51;223,37;3,46;223,37;3,46;0;0;
32927;221,41;-4,38;221,41;-4,38;228,82;3,23;228,82;3,23;0;0;
32945;24,07;-3,94;24,07;-3,94;219,81;3,47;219,81;3,47;0;0;
32963;-43,79;-12,19;-43,79;-12,19;235,97;3,8;235,97;3,8;0;0;
32980;-43,79;-12,19;-43,79;-12,19;237,6;3,93;237,6;3,93;0;0;
32997;-121,29;-9,6;-121,29;-9,6;242,11;4,19;242,11;4,19;0;0;
33015;91,91;-14,63;91,91;-14,63;235,99;4,73;235,99;4,73;0;0;
33033;-219,9;-11,81;-219,9;-11,81;209,1;4,65;209,1;4,65;0;0;
33051;-138,69;-14,72;-138,69;-14,72;201,45;4,36;201,45;4,36;0;0;
33071;22,37;-8,81;22,37;-8,81;152,55;3,84;152,55;3,84;0;0;
33089;-75,26;-3,3;-75,26;-3,3;106,43;3,65;106,43;3,65;0;0;
33106;121,86;-5,24;121,86;-5,24;122,97;3,84;122,97;3,84;0;0;
33165;-117,54;-11,33;-117,54;-11,33;102,75;3,47;102,75;3,47;0;0;
33185;-53,35;-8,59;-53,35;-8,59;112,92;3,39;112,92;3,39;0;0;
33200;-53,35;-8,59;-53,35;-8,59;120,97;3,23;120,97;3,23;0;0;
33215;649,95;-6,24;649,95;-6,24;128,44;3,33;128,44;3,33;0;0;
33232;483,56;-6,92;483,56;-6,92;158,57;2,72;158,57;2,72;0;0;
33253;-76,21;-1,12;-76,21;-1,12;161,18;2,85;161,18;2,85;0;0;
33269;-8,44;-3,99;-8,44;-3,99;157,34;2,96;157,34;2,96;0;0;
33288;-80,81;-5,24;-80,81;-5,24;150,21;2,92;150,21;2,92;0;0;
33306;-4,4;-13,33;-4,4;-13,33;135,89;2,86;135,89;2,86;0;0;
33324;-90,64;-8,79;-90,64;-8,79;125,81;3,07;125,81;3,07;0;0;
33343;-73,2;-5,34;-73,2;-5,34;100,73;2,92;100,73;2,92;0;0;
33360;-73,2;-5,34;-73,2;-5,34;100,42;2,57;100,42;2,57;0;0;
33379;64,07;-9,22;64,07;-9,22;90,29;2,63;90,29;2,63;0;0;
33396;64,07;-9,22;64,07;-9,22;92,36;2,97;92,36;2,97;0;0;
33414;-11,7;-7,92;-11,7;-7,92;83,29;2,91;83,29;2,91;0;0;
33433;-30,6;-6,67;-30,6;-6,67;68,1;2,78;68,1;2,78;0;0;
33452;-14,84;-10,1;-14,84;-10,1;49,58;2,64;49,58;2,64;0;0;
33469;-23,37;-8,86;-23,37;-8,86;28,26;2,63;28,26;2,63;0;0;
33487;-32,4;-12,59;-32,4;-12,59;28,12;2,7;28,12;2,7;0;0;
33507;-15,9;-7,44;-15,9;-7,44;39,51;2,75;39,51;2,75;0;0;
33525;-35,28;-9,06;-35,28;-9,06;42,24;2,84;42,24;2,84;0;0;
33546;-11,87;-7,53;-11,87;-7,53;42,2;2,88;42,2;2,88;0;0;
33564;-20,67;-5,97;-20,67;-5,97;35,94;2,41;35,94;2,41;0;0;
33584;-17,84;-6,91;-17,84;-6,91;17,46;2,91;17,46;2,91;0;0;
33602;-23,06;-6,52;-23,06;-6,52;8,86;2,76;8,86;2,76;0;0;
33619;-23,06;-6,52;-23,06;-6,52;7,21;2,65;7,21;2,65;0;0;
33639;-14,49;-6,4;-14,49;-6,4;4,3;2,92;4,3;2,92;0;0;
33657;-19,07;-7,47;-19,07;-7,47;4,21;2,88;4,21;2,88;0;0;
33674;-10,3;-10,2;-10,3;-10,2;4,51;2,79;4,51;2,79;0;0;
33691;-13,53;-8,75;-13,53;-8,75;4,11;2,64;4,11;2,64;0;0;
33708;-15,15;-7,17;-15,15;-7,17;2,88;3,05;2,88;3,05;0;0;
33728;-16,77;-4,44;-16,77;-4,44;2,31;2,94;2,31;2,94;0;0;
33748;-18,04;-11,53;-18,04;-11,53;2,22;2,99;2,22;2,99;0;0;
33764;-17,82;-4,09;-17,82;-4,09;2,21;3,28;2,21;3,28;0;0;
33780;-17,82;-4,09;-17,82;-4,09;1,91;3,14;1,91;3,14;0;0;
33798;-18,68;-6,54;-18,68;-6,54;2;2,81;2;2,81;0;0;
33815;-12,82;-8,09;-12,82;-8,09;1,95;2,75;1,95;2,75;0;0;
33832;-18,32;-7,53;-18,32;-7,53;2,16;2,57;2,16;2,57;0;0;
33851;-14,48;-8,99;-14,48;-8,99;2,06;2,52;2,06;2,52;0;0;
33869;-17,29;-7,41;-17,29;-7,41;2,1;2,48;2,1;2,48;0;0;
33892;-17,39;-11,61;-17,39;-11,61;2,04;2,26;2,04;2,26;0;0;
33909;-17,01;-9,39;-17,01;-9,39;2,15;2,27;2,15;2,27;0;0;
33925;-17,96;-8,58;-17,96;-8,58;2,07;2,34;2,07;2,34;0;0;
33944;-13,51;-8,61;-13,51;-8,61;2,08;2,48;2,08;2,48;0;0;
33961;-13,51;-8,61;-13,51;-8,61;2,04;2,35;2,04;2,35;0;0;
33978;-19,87;-5,82;-19,87;-5,82;2,07;2,14;2,07;2,14;0;0;
33995;-18,51;-11,46;-18,51;-11,46;1,99;2,01;1,99;2,01;0;0;
34014;-13,46;-6,95;-13,46;-6,95;1,97;2,12;1,97;2,12;0;0;
34031;-10,55;-6,69;-10,55;-6,69;2,14;1,97;2,14;1,97;0;0;
34050;-20,92;-12,95;-20,92;-12,95;2,03;1,84;2,03;1,84;0;0;
34066;-14,51;-5,57;-14,51;-5,57;2,15;1,87;2,15;1,87;0;0;
34084;-19,77;-6,17;-19,77;-6,17;2,3;2,05;2,3;2,05;0;0;
34099;-19,77;-6,17;-19,77;-6,17;2,54;2,18;2,54;2,18;0;0;
34117;-18,96;-12,83;-18,96;-12,83;2,85;2,17;2,85;2,17;0;0;
34138;-21,1;-8,5;-21,1;-8,5;2,74;2,04;2,74;2,04;0;0;
34157;-16,36;-5,35;-16,36;-5,35;2,61;2,1;2,61;2,1;0;0;
34173;-18,96;-10,36;-18,96;-10,36;2,32;2,28;2,32;2,28;0;0;
34191;-15,08;-12,07;-15,08;-12,07;2,12;2,25;2,12;2,25;0;0;
34209;-12,42;-7,71;-12,42;-7,71;2,03;2;2,03;2;0;0;
34225;-18,68;-5,96;-18,68;-5,96;2,09;2,03;2,09;2,03;0;0;
34241;-18,68;-5,96;-18,68;-5,96;2,03;2,06;2,03;2,06;0;0;
34258;-15,16;-10,47;-15,16;-10,47;2,14;2;2,14;2;0;0;
34280;-17,88;-12,17;-17,88;-12,17;2,18;2,03;2,18;2,03;0;0;
34297;-15,11;-2,29;-15,11;-2,29;2,4;2,09;2,4;2,09;0;0;
34314;-17,59;-5,14;-17,59;-5,14;2,52;2,21;2,52;2,21;0;0;
34331;-16,84;-10,26;-16,84;-10,26;2,31;2,3;2,31;2,3;0;0;
34350;-17,9;-8,41;-17,9;-8,41;2,17;2,47;2,17;2,47;0;0;
34369;-25,76;-32,45;-25,76;-32,45;2,49;5,79;2,49;5,79;0;0;
34386;-31,17;-6,91;-31,17;-6,91;3,21;10,68;3,21;10,68;0;0;
34405;4,15;25,47;4,15;25,47;4,69;18,12;4,69;18,12;0;0;
34420;4,15;25,47;4,15;25,47;6,53;25,37;6,53;25,37;0;0;
34437;-3,94;26,95;-3,94;26,95;7,7;38,24;7,7;38,24;0;1;
34457;-23,92;16,62;-23,92;16,62;9,18;44,49;9,18;44,49;0;0;
34475;-15,9;-54,04;-15,9;-54,04;9,16;48,28;9,16;48,28;0;0;
34495;-11,53;-46,13;-11,53;-46,13;9,42;51,82;9,42;51,82;0;0;
34513;-28,6;53,38;-28,6;53,38;8,1;49,86;8,1;49,86;0;0;
34533;-10,93;36,66;-10,93;36,66;7,88;46,9;7,88;46,9;0;0;
34552;-10,34;-25,72;-10,34;-25,72;7,36;41,04;7,36;41,04;0;0;
34570;-17,18;45,26;-17,18;45,26;7,31;38,93;7,31;38,93;0;0;
34586;-17,18;45,26;-17,18;45,26;7,44;35,87;7,44;35,87;0;0;
34604;-10,15;-71,3;-10,15;-71,3;6,85;34,73;6,85;34,73;0;0;
34619;-10,15;-71,3;-10,15;-71,3;6,43;35,53;6,43;35,53;0;0;
34635;-19,12;-32,84;-19,12;-32,84;5,93;31,7;5,93;31,7;0;0;
34654;-7,83;15,19;-7,83;15,19;5,92;29,96;5,92;29,96;0;0;
34670;-20,63;-15,36;-20,63;-15,36;5,52;25,48;5,52;25,48;0;0;
34687;-30,65;14,97;-30,65;14,97;5,74;23,94;5,74;23,94;0;0;
34704;-14,76;-59,7;-14,76;-59,7;6,51;22,11;6,51;22,11;0;0;
34724;-20,77;64,05;-20,77;64,05;6,69;25,97;6,69;25,97;0;0;
34739;-20,77;64,05;-20,77;64,05;6,84;30,48;6,84;30,48;0;0;
34757;-10,45;-11,21;-10,45;-11,21;6,16;28,78;6,16;28,78;0;0;
34776;-16,94;19,21;-16,94;19,21;5,75;30,36;5,75;30,36;0;0;
34795;-17,07;-24,11;-17,07;-24,11;4,68;29,22;4,68;29,22;0;0;
34813;-19,21;-0,39;-19,21;-0,39;4,51;25,8;4,51;25,8;0;0;
34829;-14,3;68,3;-14,3;68,3;4,54;23,45;4,54;23,45;0;0;
34848;-19,02;17,29;-19,02;17,29;4,85;24,79;4,85;24,79;0;0;
34868;-16,54;-84,01;-16,54;-84,01;5,03;27,21;5,03;27,21;0;0;
34887;-10,4;-98,59;-10,4;-98,59;5,03;32,5;5,03;32,5;0;0;
34905;-17,96;-11,98;-17,96;-11,98;5,92;34,77;5,92;34,77;0;0;
34922;-24,97;3,09;-24,97;3,09;5,27;34,04;5,27;34,04;0;0;
34938;-24,97;3,09;-24,97;3,09;5,26;32,59;5,26;32,59;0;0;
34954;-17,82;13,51;-17,82;13,51;4,66;34,26;4,66;34,26;0;0;
34970;-7,91;-2,03;-7,91;-2,03;4,95;35,29;4,95;35,29;0;0;
34989;-19,34;1,59;-19,34;1,59;4,47;28,66;4,47;28,66;0;0;
35005;-19,34;1,59;-19,34;1,59;4,41;27,93;4,41;27,93;0;0;
35021;-19,34;1,59;-19,34;1,59;4,48;25,82;4,48;25,82;0;0;
35037;-22,78;44,91;-22,78;44,91;4,55;32,18;4,55;32,18;0;0;
35055;-21,07;9,83;-21,07;9,83;4,9;29,23;4,9;29,23;0;0;
35072;-21,75;-10,96;-21,75;-10,96;4,63;29,4;4,63;29,4;0;0;
35089;-10,77;-13,23;-10,77;-13,23;4,51;30,81;4,51;30,81;0;0;
35108;-3,28;-46,86;-3,28;-46,86;4,41;30,25;4,41;30,25;0;0;
35125;-17,35;-18,63;-17,35;-18,63;4,08;27,36;4,08;27,36;0;0;
35143;-19,72;-8,56;-19,72;-8,56;3,22;20,14;3,22;20,14;1;0;
35161;-19,72;-8,56;-19,72;-8,56;2,68;14,99;2,68;14,99;1;0;
35179;-15,15;-5,17;-15,15;-5,17;2,74;12,09;2,74;12,09;1;0;
35197;-8,71;-30,84;-8,71;-30,84;3,73;10,56;3,73;10,56;1;0;
35215;-19,1;1,31;-19,1;1,31;4,16;9,95;4,16;9,95;1;0;
35235;-15,94;-4,44;-15,94;-4,44;4,49;8,58;4,49;8,58;1;0;
35252;-18,05;-10,65;-18,05;-10,65;4,6;6,62;4,6;6,62;1;0;
35269;-16,38;-11,2;-16,38;-11,2;4,47;6,02;4,47;6,02;1;0;
35287;-20,86;-9,28;-20,86;-9,28;3,73;7,27;3,73;7,27;1;0;
35306;-12,46;13,35;-12,46;13,35;2,64;9,53;2,64;9,53;1;0;
35324;-18,45;-15,7;-18,45;-15,7;2,32;11,09;2,32;11,09;1;0;
35341;-18,45;-15,7;-18,45;-15,7;2,5;13,84;2,5;13,84;1;0;
35358;-19,4;3,81;-19,4;3,81;2,77;15,18;2,77;15,18;1;0;
35376;-7,9;18,18;-7,9;18,18;3,34;19,96;3,34;19,96;1;0;
35393;-22,03;3,59;-22,03;3,59;3,93;22,51;3,93;22,51;1;0;
35411;-28,38;17,37;-28,38;17,37;4,7;22,22;4,7;22,22;1;0;
35427;-11,57;-38,79;-11,57;-38,79;5,4;24,21;5,4;24,21;1;0;
35445;-17,79;32,4;-17,79;32,4;5,79;30,8;5,79;30,8;1;0;
35463;-15,82;33,6;-15,82;33,6;5,63;33,9;5,63;33,9;1;0;
35480;-15,82;33,6;-15,82;33,6;4,85;32,56;4,85;32,56;1;0;
35502;-14,97;-26,29;-14,97;-26,29;4,5;32,63;4,5;32,63;0;0;
35517;-14,97;-26,29;-14,97;-26,29;3,85;31,8;3,85;31,8;0;0;
35536;-24,91;-13,38;-24,91;-13,38;3,05;27,93;3,05;27,93;0;0;
35555;-21,34;-2,47;-21,34;-2,47;3,73;24,79;3,73;24,79;0;0;
35573;-15,13;-4,12;-15,13;-4,12;3,76;20,44;3,76;20,44;0;0;
35592;102,34;-6,03;102,34;-6,03;6,27;14,04;6,27;14,04;0;0;
35612;-20,09;-10,56;-20,09;-10,56;22,49;10,02;22,49;10,02;0;0;
35629;-85,29;-7,15;-85,29;-7,15;44,98;8,37;44,98;8,37;0;0;
35651;-13,06;-8,53;-13,06;-8,53;46,93;6,89;46,93;6,89;0;0;
35672;-26,19;-10,1;-26,19;-10,1;46,94;2,85;46,94;2,85;0;0;
35689;-15,96;-7,43;-15,96;-7,43;46,83;2,83;46,83;2,83;0;0;
35705;-9,6;-46,44;-9,6;-46,44;39,88;8,9;39,88;8,9;0;0;
35723;-9,6;-46,44;-9,6;-46,44;23,31;14,45;23,31;14,45;0;0;
35740;-9,6;-46,44;-9,6;-46,44;11,83;20,61;11,83;20,61;0;0;
35759;-68,52;-11,35;-68,52;-11,35;15,25;20,66;15,25;20,66;0;0;
35777;24;-28,93;24;-28,93;20,21;22,06;20,21;22,06;0;0;
35798;-5,15;-14,38;-5,15;-14,38;20,9;21,72;20,9;21,72;0;0;
35817;20,03;-7,13;20,03;-7,13;42,73;16,44;42,73;16,44;0;0;
35833;36,13;-7,01;36,13;-7,01;49,81;10,31;49,81;10,31;0;0;
35851;-14,79;-10,73;-14,79;-10,73;51,65;6,56;51,65;6,56;0;0;
35867;-25,67;-7,41;-25,67;-7,41;46,83;6,16;46,83;6,16;0;0;
35885;-13,95;-18,19;-13,95;-18,19;41,17;4,31;41,17;4,31;0;0;
35902;-16,94;-2,09;-16,94;-2,09;28,51;3,43;28,51;3,43;0;0;
35918;-16,94;-2,09;-16,94;-2,09;11,93;3,48;11,93;3,48;0;0;
35934;-16,75;-6,5;-16,75;-6,5;3,88;3,42;3,88;3,42;0;0;
35950;-13,27;-10,83;-13,27;-10,83;2,95;3,32;2,95;3,32;0;0;
35969;-19,18;-5,18;-19,18;-5,18;1,95;3,36;1,95;3,36;0;0;
35986;-20,43;-7,55;-20,43;-7,55;2,04;2,71;2,04;2,71;0;0;
36002;-14,47;-7,39;-14,47;-7,39;2,43;2,23;2,43;2,23;0;0;
36020;-14,47;-7,39;-14,47;-7,39;2,8;2,13;2,8;2,13;0;0;
36039;-47,68;-5,47;-47,68;-5,47;7,77;2,21;7,77;2,21;0;0;
36057;-24,43;-7,85;-24,43;-7,85;8,27;1,88;8,27;1,88;0;0;
36075;-20,94;-7,76;-20,94;-7,76;8,56;1,9;8,56;1,9;0;0;
36091;-15,87;-5,68;-15,87;-5,68;8,55;1,79;8,55;1,79;0;0;
36110;-22,36;1,62;-22,36;1,62;8,92;8,32;8,92;8,32;0;0;
36128;-16,9;-11,89;-16,9;-11,89;6,91;9,27;6,91;9,27;0;0;
36144;-19,66;-6,55;-19,66;-6,55;3,12;9,89;3,12;9,89;0;0;
36164;-10,27;-7,66;-10,27;-7,66;3,11;10,77;3,11;10,77;0;0;
36183;-16,04;-114,83;-16,04;-114,83;3,74;17,69;3,74;17,69;0;0;
36200;-16,04;-114,83;-16,04;-114,83;3,85;19,96;3,85;19,96;0;0;
36216;-10,55;75,19;-10,55;75,19;4,31;26,86;4,31;26,86;0;0;
36236;-34,89;-61,53;-34,89;-61,53;5,41;34,18;5,41;34,18;0;0;
36254;-14,82;0,53;-14,82;0,53;6,42;39,89;6,42;39,89;0;0;
36273;-15,29;38,93;-15,29;38,93;6,69;40;6,69;40;0;0;
36290;-13,92;4,63;-13,92;4,63;7,72;47,83;7,72;47,83;0;0;
36307;-13,65;22,55;-13,65;22,55;7,81;45,48;7,81;45,48;0;0;
36325;-19,13;53,54;-19,13;53,54;7,76;44,05;7,76;44,05;0;1;
36344;-16,38;-37,67;-16,38;-37,67;6,9;38,68;6,9;38,68;0;1;
36365;-16,38;-37,67;-16,38;-37,67;5,88;36,07;5,88;36,07;0;1;
36382;-15,98;-184,3;-15,98;-184,3;6,04;40,75;6,04;40,75;0;1;
36399;-15,98;-184,3;-15,98;-184,3;7,63;51,29;7,63;51,29;0;1;
36415;-26;-69,56;-26;-69,56;7,97;56,88;7,97;56,88;0;1;
36432;-21,06;-22,94;-21,06;-22,94;8,62;58,31;8,62;58,31;0;1;
36450;-10,67;-7,47;-10,67;-7,47;7,58;55,11;7,58;55,11;0;1;
36468;-23,64;-13,39;-23,64;-13,39;6,54;47,01;6,54;47,01;0;1;
36485;-15,04;63,09;-15,04;63,09;6,05;45,18;6,05;45,18;0;1;
36500;-15,04;63,09;-15,04;63,09;5,5;34,79;5,5;34,79;0;1;
36517;-13,28;18,39;-13,28;18,39;5,34;31,7;5,34;31,7;0;1;
36535;-14,49;-101,58;-14,49;-101,58;5,53;38,77;5,53;38,77;0;1;
36553;-14;-4,47;-14;-4,47;5,39;38,6;5,39;38,6;0;1;
36570;-27,27;-20,2;-27,27;-20,2;5,54;38,42;5,54;38,42;0;1;
36590;-24,03;120,21;-24,03;120,21;5,43;40,99;5,43;40,99;0;1;
36608;-12,79;-7,33;-12,79;-7,33;5,43;44,08;5,43;44,08;0;1;
36625;-18;71,7;-18;71,7;5,4;40,77;5,4;40,77;0;1;
36643;-18,41;10,53;-18,41;10,53;5,37;31,43;5,37;31,43;0;1;
36660;-18,41;10,53;-18,41;10,53;5,5;28,09;5,5;28,09;0;1;
36677;-16,3;15,21;-16,3;15,21;4,85;28,87;4,85;28,87;0;1;
36693;-6,61;4,63;-6,61;4,63;4,54;20,28;4,54;20,28;0;0;
36711;-23,15;7,88;-23,15;7,88;5,02;17,84;5,02;17,84;0;0;
36731;-17,77;-12,9;-17,77;-12,9;4,37;14,3;4,37;14,3;0;0;
36747;-17,98;-9,78;-17,98;-9,78;4,28;13,51;4,28;13,51;0;0;
36770;-23,62;-48,6;-23,62;-48,6;4,29;12,62;4,29;12,62;0;0;
36790;-25,61;-16,19;-25,61;-16,19;4,35;11,47;4,35;11,47;0;0;
36808;-26,48;-8,94;-26,48;-8,94;4,3;9,56;4,3;9,56;0;0;
36824;-20,57;-19,61;-20,57;-19,61;4,01;10,03;4,01;10,03;0;0;
36840;-20,57;-19,61;-20,57;-19,61;4,04;11,15;4,04;11,15;0;0;
36859;-13,96;-10,36;-13,96;-10,36;3,91;10,27;3,91;10,27;0;0;
36877;-22,95;-21,71;-22,95;-21,71;3,82;8,45;3,82;8,45;0;0;
36895;-20,67;-4,52;-20,67;-4,52;3,78;7,41;3,78;7,41;0;0;
36914;-19,51;-5,7;-19,51;-5,7;3,45;7,25;3,45;7,25;0;0;
36933;-19,32;-9,52;-19,32;-9,52;3,3;6,29;3,3;6,29;0;0;
36948;-17,55;-13,13;-17,55;-13,13;3,07;5,73;3,07;5,73;0;0;
36964;-16,16;22,5;-16,16;22,5;2,83;7,01;2,83;7,01;0;0;
36980;-16,16;22,5;-16,16;22,5;2,51;6,88;2,51;6,88;0;0;
36997;-16,28;-1,09;-16,28;-1,09;2,12;8,59;2,12;8,59;0;0;
37014;-14,63;-5,92;-14,63;-5,92;1,87;8,17;1,87;8,17;0;0;
37031;-48,9;-7,6;-48,9;-7,6;4,93;8,15;4,93;8,15;0;0;
37050;-7,68;13,01;-7,68;13,01;5,9;9,64;5,9;9,64;0;0;
37068;-14,18;-13,4;-14,18;-13,4;6,43;9,53;6,43;9,53;0;0;
37086;-13,46;-12,76;-13,46;-12,76;6,7;8,11;6,7;8,11;0;0;
37107;-17,25;-6,82;-17,25;-6,82;6,73;7,1;6,73;7,1;0;0;
37124;-17,46;-6,01;-17,46;-6,01;6,09;7,08;6,09;7,08;0;0;
37140;-17,46;-6,01;-17,46;-6,01;2,73;6,7;2,73;6,7;0;0;
37156;-12,25;-9,72;-12,25;-9,72;2,69;5,36;2,69;5,36;0;0;
37175;-17,15;-10,83;-17,15;-10,83;2,6;3,73;2,6;3,73;0;0;
37194;-18,15;-6,33;-18,15;-6,33;2,53;3,69;2,53;3,69;0;0;
37210;-16,18;-10,2;-16,18;-10,2;2,75;3,79;2,75;3,79;0;0;
37228;-17,97;-7,43;-17,97;-7,43;3,33;3,8;3,33;3,8;0;0;
37245;-14,93;-14,52;-14,93;-14,52;3,9;3,24;3,9;3,24;0;0;
37263;-22,78;-4,69;-22,78;-4,69;3,4;2,78;3,4;2,78;0;0;
37279;-22,78;-4,69;-22,78;-4,69;3,45;2,54;3,45;2,54;0;0;
37296;-46,6;-13,41;-46,6;-13,41;8,88;2,65;8,88;2,65;0;0;
37315;-20,26;-10,78;-20,26;-10,78;9;2,43;9;2,43;0;0;
37333;-17,17;-9,38;-17,17;-9,38;8,47;2,57;8,47;2,57;0;0;
37349;-20,61;-9,78;-20,61;-9,78;8,3;2,35;8,3;2,35;0;0;
37367;-15,67;-4,78;-15,67;-4,78;8,19;2,48;8,19;2,48;0;0;
37387;-19,07;-5,19;-19,07;-5,19;6,72;2,5;6,72;2,5;0;0;
37405;-16,02;-13,24;-16,02;-13,24;2,18;2,61;2,18;2,61;0;0;
37422;-16,35;-4,36;-16,35;-4,36;1,98;2,31;1,98;2,31;0;0;
37440;-16,35;-4,36;-16,35;-4,36;1,78;2,51;1,78;2,51;0;0;
37457;-19,2;-12,65;-19,2;-12,65;1,86;2,47;1,86;2,47;0;0;
37474;-17,11;-6,87;-17,11;-6,87;1,83;2,29;1,83;2,29;0;0;
37492;-13,94;-8,08;-13,94;-8,08;1,89;2,12;1,89;2,12;0;0;
37509;-20,99;-3,86;-20,99;-3,86;1,98;1,8;1,98;1,8;0;0;
37528;-16,24;-11,42;-16,24;-11,42;2,02;1,89;2,02;1,89;0;0;
37545;-16,33;-4,59;-16,33;-4,59;2,19;2,19;2,19;2,19;0;0;
37561;-16,33;-4,59;-16,33;-4,59;2,26;2,45;2,26;2,45;0;0;
37576;-14,98;-8,77;-14,98;-8,77;2,11;2,49;2,11;2,49;0;0;
37595;-16,44;-8,37;-16,44;-8,37;2,25;2,59;2,25;2,59;0;0;
37615;-18,95;-7,83;-18,95;-7,83;2,23;2,52;2,23;2,52;0;0;
37632;-4,85;-11,43;-4,85;-11,43;2,64;2,4;2,64;2,4;0;0;
37649;-3,84;-8,81;-3,84;-8,81;5,77;2,5;5,77;2,5;0;0;
37666;55,79;-12,95;55,79;-12,95;21,71;2,45;21,71;2,45;0;0;
37683;7,78;-7,84;7,78;-7,84;41;2,61;41;2,61;0;0;
37699;7,78;-7,84;7,78;-7,84;60,61;2,72;60,61;2,72;0;0;
37715;36,21;-4,21;36,21;-4,21;64,44;2,89;64,44;2,89;0;0;
37733;40,14;-6,82;40,14;-6,82;87,67;3,15;87,67;3,15;0;0;
37751;224,63;-12,54;224,63;-12,54;115,76;3,29;115,76;3,29;0;0;
37767;-163,88;-2,75;-163,88;-2,75;133,14;3,44;133,14;3,44;0;0;
37787;88,74;-4,57;88,74;-4,57;144,85;3,62;144,85;3,62;0;0;
37806;66,13;-16,4;66,13;-16,4;152;4,2;152;4,2;0;0;
37823;-58,04;-14,48;-58,04;-14,48;157,46;4,26;157,46;4,26;0;0;
37840;-58,04;-14,48;-58,04;-14,48;160,76;4,15;160,76;4,15;0;0;
37858;-28,77;-10,19;-28,77;-10,19;153,33;3,68;153,33;3,68;0;0;
37875;-219,73;-26,01;-219,73;-26,01;157,18;4,48;157,18;4,48;0;0;
37893;323,51;-10,49;323,51;-10,49;171,32;4,24;171,32;4,24;0;0;
37915;-83,35;-1,66;-83,35;-1,66;176,02;3,92;176,02;3,92;0;0;
37931;-153,08;-5,45;-153,08;-5,45;189,23;4,32;189,23;4,32;0;0;
37947;-153,08;-5,45;-153,08;-5,45;197,15;4,71;197,15;4,71;0;0;
37963;-182,92;-1,75;-182,92;-1,75;210,35;4,73;210,35;4,73;0;0;
37981;-182,92;-1,75;-182,92;-1,75;230,71;4,13;230,71;4,13;0;0;
38002;-38,96;-7,7;-38,96;-7,7;214,98;5,02;214,98;5,02;0;0;
38019;-38,96;-7,7;-38,96;-7,7;196,01;5,37;196,01;5,37;0;0;
38035;-233,51;-1,41;-233,51;-1,41;175,72;5,07;175,72;5,07;0;0;
38053;171,5;-7,11;171,5;-7,11;181,28;5,21;181,28;5,21;0;0;
38071;218,62;-15,99;218,62;-15,99;164,95;5,58;164,95;5,58;0;0;
38089;-578,8;-14,46;-578,8;-14,46;153,94;4,94;153,94;4,94;0;0;
38106;276,04;-10,28;276,04;-10,28;158,53;4,46;158,53;4,46;0;0;
38126;-31,57;2,45;-31,57;2,45;183,97;4,36;183,97;4,36;0;0;
38142;-74,46;-8,26;-74,46;-8,26;198,86;4,03;198,86;4,03;1;0;
38158;-74,46;-8,26;-74,46;-8,26;224,23;3,75;224,23;3,75;1;0;
