Time;EMG1;EMG2;EMG3;EMG4;EMG1_F;EMG2_F;EMG3_F;EMG4_F;Note_R;Note_V;;Level 3;Joueur;Score;Notes hit;% Reussite R;Offset EMG1;Onset EMG1;% Reussite V;Offset EMG2;Onset EMG2
8;-24,15;-38,2;-24,15;-38,2;2,76;6,96;2,76;6,96;0;0;;;1;2600;26;9,090909;-24,14167;57,73886;17,17172;-39,16877;52,39198
27;-28,23;-33,76;-28,23;-33,76;2,91;7,32;2,91;7,32;0;0;;;2;3400;34;9,090909;-24,14167;50;25,25253;-39,16877;47
49;-20,86;-38,61;-20,86;-38,61;2,77;6,57;2,77;6,57;0;0;
69;-28,36;-46,7;-28,36;-46,7;2,73;6,05;2,73;6,05;0;0;
88;-30,1;-35,99;-30,1;-35,99;2,92;5,95;2,92;5,95;0;0;
108;-24,24;-39,88;-24,24;-39,88;3,03;5,26;3,03;5,26;0;0;
130;-27,6;-40,59;-27,6;-40,59;3,08;4,63;3,08;4,63;0;0;
148;-27,6;-40,59;-27,6;-40,59;3,21;4,75;3,21;4,75;0;0;
166;-19,25;-35,01;-19,25;-35,01;3,04;5,14;3,04;5,14;0;0;
183;-24,22;-40,7;-24,22;-40,7;2,67;4,68;2,67;4,68;0;0;
200;-23,57;-45,54;-23,57;-45,54;2,38;5,17;2,38;5,17;0;0;
218;-24,45;-32,51;-24,45;-32,51;2,54;4,95;2,54;4,95;0;0;
239;-28,56;-36,68;-28,56;-36,68;2,42;4,38;2,42;4,38;0;0;
256;-20,75;-38,67;-20,75;-38,67;2,8;5,25;2,8;5,25;0;0;
274;-25,1;-42,82;-25,1;-42,82;2,89;4,96;2,89;4,96;0;0;
291;-32,59;-37,23;-32,59;-37,23;3,41;4,75;3,41;4,75;0;0;
310;-22,41;-27,52;-22,41;-27,52;3,63;5,38;3,63;5,38;0;0;
328;-22,41;-27,52;-22,41;-27,52;4,02;6,22;4,02;6,22;0;0;
345;-21,23;-40,97;-21,23;-40,97;3,94;6,44;3,94;6,44;0;0;
362;-30,87;-38,8;-30,87;-38,8;4,17;6,75;4,17;6,75;0;0;
379;-21,56;-40,56;-21,56;-40,56;3,87;7,69;3,87;7,69;0;0;
397;-26,9;-28,18;-26,9;-28,18;3,41;7,61;3,41;7,61;0;0;
415;-22,54;-48,16;-22,54;-48,16;3,03;7,59;3,03;7,59;0;0;
434;-21,47;-37,09;-21,47;-37,09;3,06;7,89;3,06;7,89;0;0;
452;-22,82;-45,35;-22,82;-45,35;3;7,93;3;7,93;0;0;
471;-28,92;-49,15;-28,92;-49,15;3;7,6;3;7,6;0;0;
488;-28,92;-49,15;-28,92;-49,15;3,18;7,24;3,18;7,24;0;0;
503;-23,22;-43,36;-23,22;-43,36;3,94;6,71;3,94;6,71;0;0;
523;-24,88;-31,49;-24,88;-31,49;3,95;6,51;3,95;6,51;0;0;
541;-22,09;-36,31;-22,09;-36,31;3,9;6,04;3,9;6,04;0;0;
558;-17,17;-34,76;-17,17;-34,76;4,63;5,85;4,63;5,85;0;0;
574;-24,76;-36,66;-24,76;-36,66;4,66;5,53;4,66;5,53;0;0;
593;-25,26;-37,95;-25,26;-37,95;4,35;5,48;4,35;5,48;0;0;
611;-29,55;-42,85;-29,55;-42,85;4,18;4,65;4,18;4,65;0;0;
627;-29,55;-42,85;-29,55;-42,85;4,28;3,63;4,28;3,63;0;0;
646;-18,66;-39,01;-18,66;-39,01;4,26;2,75;4,26;2,75;0;0;
663;-32,8;-36,6;-32,8;-36,6;4,03;2,46;4,03;2,46;0;0;
683;-28,54;-42,33;-28,54;-42,33;3,64;2,33;3,64;2,33;0;0;
701;-28,54;-42,33;-28,54;-42,33;3,78;2,37;3,78;2,37;0;0;
724;-18,5;-35,81;-18,5;-35,81;3,8;3;3,8;3;0;0;
741;-24,11;-41,35;-24,11;-41,35;3,7;3,4;3,7;3,4;0;0;
761;-25,74;-39,31;-25,74;-39,31;3,05;3,78;3,05;3,78;0;0;
777;-34,04;-38,87;-34,04;-38,87;3,03;4,01;3,03;4,01;0;0;
796;-22,98;-42,56;-22,98;-42,56;3,52;4,79;3,52;4,79;0;0;
816;-27,18;-35,26;-27,18;-35,26;3,02;4,75;3,02;4,75;0;0;
836;-21,46;-44,06;-21,46;-44,06;3,16;4,63;3,16;4,63;0;0;
854;-23,39;-33,71;-23,39;-33,71;2,85;6,13;2,85;6,13;0;0;
871;-21,82;-32,51;-21,82;-32,51;2,75;6,82;2,75;6,82;0;0;
888;-21,82;-32,51;-21,82;-32,51;3,14;7,08;3,14;7,08;0;0;
905;-19,2;-40,94;-19,2;-40,94;3,25;6,5;3,25;6,5;0;0;
924;-19,3;-38,99;-19,3;-38,99;3,53;5,66;3,53;5,66;0;0;
943;-24,21;-39,31;-24,21;-39,31;3,4;4,43;3,4;4,43;0;0;
960;-21,98;-40,36;-21,98;-40,36;3,25;4,62;3,25;4,62;0;0;
977;-19,47;-49,45;-19,47;-49,45;3,32;4;3,32;4;0;0;
996;-17,06;-38,86;-17,06;-38,86;3,77;3,92;3,77;3,92;0;0;
1014;-21,42;-42,78;-21,42;-42,78;3,9;3,98;3,9;3,98;0;0;
1032;-24,05;-53,71;-24,05;-53,71;4,06;4,15;4,06;4,15;0;0;
1052;-22,81;-39,66;-22,81;-39,66;3,98;3,61;3,98;3,61;0;0;
1071;-28,8;-26,54;-28,8;-26,54;4,28;4,05;4,28;4,05;0;0;
1088;-28,8;-26,54;-28,8;-26,54;4,23;4,35;4,23;4,35;0;0;
1106;-30,77;-39,24;-30,77;-39,24;4,15;4,78;4,15;4,78;0;0;
1125;-26,84;-39,51;-26,84;-39,51;4,3;4,67;4,3;4,67;0;0;
1143;-19,62;-34,46;-19,62;-34,46;4,51;4,6;4,51;4,6;0;0;
1161;-20,81;-42,46;-20,81;-42,46;4,11;5,49;4,11;5,49;0;0;
1177;-25,5;-34,41;-25,5;-34,41;4;5,02;4;5,02;0;0;
1195;-23,96;-33,75;-23,96;-33,75;3,67;5,01;3,67;5,01;0;0;
1213;-24,27;-34,89;-24,27;-34,89;3,25;6,32;3,25;6,32;0;0;
1231;-25,83;-37,84;-25,83;-37,84;3,24;6,75;3,24;6,75;0;0;
1249;-25,83;-37,84;-25,83;-37,84;3,13;6,6;3,13;6,6;0;0;
1269;-24,86;-25,64;-24,86;-25,64;3,37;6,43;3,37;6,43;0;0;
1286;-15,89;-47,07;-15,89;-47,07;3,76;7,26;3,76;7,26;0;0;
1309;-23,95;-30,9;-23,95;-30,9;3,65;6,53;3,65;6,53;0;0;
1326;-15,77;-41,41;-15,77;-41,41;3,92;6,34;3,92;6,34;0;0;
1344;-19,4;-36,84;-19,4;-36,84;4,4;6,11;4,4;6,11;0;0;
1362;-28,77;-38,78;-28,77;-38,78;4,83;5,63;4,83;5,63;0;0;
1380;-29,35;-33,99;-29,35;-33,99;4,36;4,4;4,36;4,4;0;0;
1398;-17,89;-34,01;-17,89;-34,01;3,93;3,9;3,93;3,9;0;0;
1416;-23,78;-36,61;-23,78;-36,61;4,55;3,03;4,55;3,03;0;0;
1432;-28,22;-38,77;-28,22;-38,77;4,1;3,33;4,1;3,33;0;0;
1450;-26,65;-29,89;-26,65;-29,89;3,51;4,96;3,51;4,96;0;0;
1468;-26,65;-29,89;-26,65;-29,89;3,16;6,57;3,16;6,57;0;0;
1486;-30;-43,93;-30;-43,93;3,44;6,88;3,44;6,88;0;0;
1503;-14,91;-34,42;-14,91;-34,42;3,71;6,58;3,71;6,58;0;0;
1523;-16,27;-42,77;-16,27;-42,77;4,25;6,62;4,25;6,62;0;0;
1541;-19,95;-41,7;-19,95;-41,7;4,76;6,17;4,76;6,17;0;0;
1559;-19,95;-41,7;-19,95;-41,7;5,41;5;5,41;5;0;0;
1576;-21,99;-40,8;-21,99;-40,8;5,66;4,12;5,66;4,12;0;0;
1593;-13,97;-39,5;-13,97;-39,5;6,01;4,06;6,01;4,06;0;0;
1613;-30,23;-37,6;-30,23;-37,6;5,22;4,89;5,22;4,89;0;0;
1630;-23,47;-40,35;-23,47;-40,35;4,57;4,29;4,57;4,29;0;0;
1652;-24,66;-43,03;-24,66;-43,03;3,86;4,13;3,86;4,13;0;0;
1668;-24,66;-43,03;-24,66;-43,03;3,31;4,18;3,31;4,18;0;0;
1684;-24,21;-43,7;-24,21;-43,7;2,89;4,85;2,89;4,85;0;0;
1701;-20,94;-40,73;-20,94;-40,73;2,49;4,59;2,49;4,59;0;0;
1719;-19,56;-40,24;-19,56;-40,24;2,39;3,82;2,39;3,82;0;0;
1738;-27,1;-39,27;-27,1;-39,27;2,38;3,88;2,38;3,88;0;0;
1756;-23,48;-32,71;-23,48;-32,71;2,61;3,95;2,61;3,95;0;0;
1775;-21,07;-49,16;-21,07;-49,16;2,82;4,1;2,82;4,1;0;0;
1792;-24,29;-45,71;-24,29;-45,71;3,03;4,13;3,03;4,13;0;0;
1808;-24,29;-45,71;-24,29;-45,71;3,16;4,52;3,16;4,52;0;0;
1827;-27,63;-47,95;-27,63;-47,95;3,57;5,04;3,57;5,04;0;0;
1845;-27,19;-32,29;-27,19;-32,29;3,8;5,2;3,8;5,2;0;0;
1865;-25,03;-33,5;-25,03;-33,5;3,71;5,99;3,71;5,99;0;0;
1883;-25,01;-42,29;-25,01;-42,29;3,97;5,91;3,97;5,91;0;0;
1900;-14,48;-27,35;-14,48;-27,35;4,1;6,04;4,1;6,04;0;0;
1919;-31,02;-43,62;-31,02;-43,62;3,8;7,04;3,8;7,04;0;0;
1937;-19,37;-26,03;-19,37;-26,03;3,57;7,06;3,57;7,06;0;0;
1956;-27,64;-47,05;-27,64;-47,05;4,37;7,43;4,37;7,43;0;0;
1975;-36,21;-35,9;-36,21;-35,9;4,88;7,16;4,88;7,16;0;0;
1992;-27,01;-39,96;-27,01;-39,96;5,25;7,09;5,25;7,09;0;0;
2009;-27,01;-39,96;-27,01;-39,96;5,55;7,02;5,55;7,02;0;0;
2028;-23,24;-33,53;-23,24;-33,53;5,83;6,35;5,83;6,35;0;0;
2046;-21,08;-45,08;-21,08;-45,08;5,07;5,85;5,07;5,85;0;0;
2063;-18,76;-37,71;-18,76;-37,71;4,39;5,9;4,39;5,9;0;0;
2083;-20,95;-39,71;-20,95;-39,71;4,37;5,96;4,37;5,96;0;0;
2101;-18,4;-44,04;-18,4;-44,04;4,06;6,28;4,06;6,28;0;0;
2121;-14;-43,91;-14;-43,91;3,9;6,27;3,9;6,27;0;0;
2139;-28,44;-43,72;-28,44;-43,72;5,03;5,56;5,03;5,56;0;0;
2156;-25,35;-30,3;-25,35;-30,3;5,08;5,1;5,08;5,1;0;0;
2176;-27,91;-33,71;-27,91;-33,71;4,87;6,09;4,87;6,09;0;0;
2196;-25,23;-48,13;-25,23;-48,13;4,99;6,13;4,99;6,13;0;0;
2214;-24,85;-33,31;-24,85;-33,31;4,73;5,46;4,73;5,46;0;0;
2232;-28,38;-40,27;-28,38;-40,27;3,98;4,99;3,98;4,99;0;0;
2250;-28,38;-40,27;-28,38;-40,27;3,89;4,88;3,89;4,88;0;0;
2271;-33,78;-48,19;-33,78;-48,19;4,79;4,62;4,79;4,62;0;0;
2288;-33,78;-48,19;-33,78;-48,19;5,6;4,6;5,6;4,6;0;0;
2305;-22,01;-36,57;-22,01;-36,57;5,86;4,14;5,86;4,14;0;0;
2325;-23,04;-42,52;-23,04;-42,52;5,65;3,9;5,65;3,9;0;0;
2345;-35,68;-20,71;-35,68;-20,71;5,96;5,41;5,96;5,41;0;0;
2363;-28,92;-35,55;-28,92;-35,55;5,2;6,61;5,2;6,61;0;0;
2381;-21,46;-36,45;-21,46;-36,45;4,47;6,5;4,47;6,5;0;0;
2400;-35,76;-36,47;-35,76;-36,47;4,79;6,33;4,79;6,33;0;0;
2418;-17,66;-44,97;-17,66;-44,97;4,4;5,56;4,4;5,56;0;0;
2437;-33,46;-47,66;-33,46;-47,66;5,23;6,21;5,23;6,21;0;0;
2457;-18,66;-33,31;-18,66;-33,31;5,51;5,55;5,51;5,55;0;0;
2474;-16,03;-45,78;-16,03;-45,78;5,48;4,47;5,48;4,47;0;0;
2491;-31,22;-33,77;-31,22;-33,77;5,8;4,59;5,8;4,59;0;0;
2509;-31,22;-33,77;-31,22;-33,77;5,67;5,38;5,67;5,38;0;0;
2526;-19,41;-39,51;-19,41;-39,51;5,59;5,84;5,59;5,84;0;0;
2544;-27,83;-30,42;-27,83;-30,42;6,19;5,82;6,19;5,82;0;0;
2563;-31,38;-42,55;-31,38;-42,55;6,17;5,11;6,17;5,11;0;0;
2583;-29,03;-44,02;-29,03;-44,02;5,93;4,67;5,93;4,67;0;0;
2601;-10,69;-44,51;-10,69;-44,51;6,03;4,45;6,03;4,45;0;0;
2619;-30,24;-46,97;-30,24;-46,97;5,82;4,97;5,82;4,97;0;0;
2638;-28,74;-36,98;-28,74;-36,98;5,12;4,8;5,12;4,8;0;0;
2657;-24,87;-40,85;-24,87;-40,85;4,31;4,25;4,31;4,25;0;0;
2675;-31,26;-39,82;-31,26;-39,82;4,01;3,94;4,01;3,94;0;0;
2695;-30,82;-45,92;-30,82;-45,92;4,64;4,19;4,64;4,19;0;0;
2713;-27,89;-30,96;-27,89;-30,96;3,86;4,85;3,86;4,85;0;0;
2731;-33,54;-50,86;-33,54;-50,86;3,55;5,08;3,55;5,08;0;0;
2749;-33,54;-50,86;-33,54;-50,86;3,59;5,54;3,59;5,54;0;0;
2766;-21,3;-40,77;-21,3;-40,77;3,91;6,17;3,91;6,17;0;0;
2783;-26,46;-32,37;-26,46;-32,37;4,09;6,38;4,09;6,38;0;0;
2803;-4,56;-40,85;-4,56;-40,85;5,4;6,15;5,4;6,15;0;0;
2819;-26,68;-28,93;-26,68;-28,93;5,66;5,73;5,66;5,73;0;0;
2836;-26,68;-28,93;-26,68;-28,93;5,88;5,79;5,88;5,79;0;0;
2854;-16,64;-43,57;-16,64;-43,57;5,68;5,5;5,68;5,5;0;0;
2873;-31,33;-37,94;-31,33;-37,94;6,43;5,06;6,43;5,06;0;0;
2893;-17,93;-40,97;-17,93;-40,97;6,21;4,99;6,21;4,99;0;0;
2912;-35,95;-40,99;-35,95;-40,99;6,43;5,02;6,43;5,02;0;0;
2932;-18,37;-43,13;-18,37;-43,13;6,82;4,29;6,82;4,29;0;0;
2957;-25,21;-37,17;-25,21;-37,17;6,2;4,13;6,2;4,13;0;0;
2974;-20,6;-32,82;-20,6;-32,82;4,86;4,77;4,86;4,77;0;0;
2995;-20,94;-44,52;-20,94;-44,52;4,18;4,61;4,18;4,61;0;0;
3014;-23,49;-45,36;-23,49;-45,36;3,45;5,35;3,45;5,35;0;0;
3032;-25,04;-47,45;-25,04;-47,45;3,53;4,5;3,53;4,5;0;0;
3053;-26,11;-46,84;-26,11;-46,84;3,57;4,95;3,57;4,95;0;0;
3072;-30,93;-33,71;-30,93;-33,71;3,37;4,75;3,37;4,75;0;0;
3092;-32,74;-39,16;-32,74;-39,16;4,91;4,54;4,91;4,54;0;0;
3108;-32,74;-39,16;-32,74;-39,16;6,39;4,34;6,39;4,34;0;0;
3126;-29,36;-30,24;-29,36;-30,24;6,61;4,01;6,61;4,01;0;0;
3146;-11,67;-35,35;-11,67;-35,35;6,66;4,22;6,66;4,22;0;0;
3166;-36,99;-39,28;-36,99;-39,28;8,05;3,94;8,05;3,94;0;0;
3183;-32,1;-40,07;-32,1;-40,07;7,98;3,96;7,98;3,96;0;0;
3201;-26,05;-44,64;-26,05;-44,64;7,26;4,53;7,26;4,53;0;0;
3221;-27,13;-32,06;-27,13;-32,06;6,02;4,68;6,02;4,68;0;0;
3240;-32,51;-34,89;-32,51;-34,89;6,21;4,3;6,21;4,3;0;0;
3259;-21,75;-47,23;-21,75;-47,23;5,08;4,46;5,08;4,46;0;0;
3277;-22,93;-36,88;-22,93;-36,88;4,51;4,41;4,51;4,41;0;0;
3297;-33,56;-43,91;-33,56;-43,91;4,71;4,4;4,71;4,4;0;0;
3316;-21,53;-44,22;-21,53;-44,22;4,55;3,59;4,55;3,59;0;0;
3336;-17,89;-46,94;-17,89;-46,94;4,75;4,29;4,75;4,29;0;0;
3354;-23,78;-38;-23,78;-38;4,29;3,94;4,29;3,94;0;0;
3371;-27,46;-42,15;-27,46;-42,15;3,8;3,32;3,8;3,32;0;0;
3388;-27,46;-42,15;-27,46;-42,15;3,13;3,55;3,13;3,55;0;0;
3406;-25,41;-41,62;-25,41;-41,62;2,58;3,4;2,58;3,4;0;0;
3424;-20,24;-37,2;-20,24;-37,2;2,75;3,61;2,75;3,61;0;0;
3442;-31,6;-43,21;-31,6;-43,21;3,08;3,12;3,08;3,12;0;0;
3459;-29,68;-41,21;-29,68;-41,21;4,5;4,38;4,5;4,38;0;0;
3480;-31,92;-35,62;-31,92;-35,62;5,04;4,86;5,04;4,86;0;0;
3498;-27,06;-31,51;-27,06;-31,51;5,6;5,31;5,6;5,31;0;0;
3515;-27,05;-41,36;-27,05;-41,36;5,71;6,36;5,71;6,36;0;0;
3533;-17,08;-36,14;-17,08;-36,14;5,41;6,79;5,41;6,79;0;0;
3549;-17,08;-36,14;-17,08;-36,14;5,02;7,42;5,02;7,42;0;0;
3567;-19,19;-38,3;-19,19;-38,3;4,9;6,49;4,9;6,49;0;0;
3585;-27,89;-41,47;-27,89;-41,47;5,08;6,31;5,08;6,31;0;0;
3603;-22,08;-27,74;-22,08;-27,74;5,33;5,8;5,33;5,8;0;0;
3621;-18,52;-37,94;-18,52;-37,94;5,21;4,92;5,21;4,92;0;0;
3639;-36,09;-36,69;-36,09;-36,69;5,42;4,14;5,42;4,14;0;0;
3657;-21,43;-36,85;-21,43;-36,85;5,3;4,12;5,3;4,12;0;0;
3675;-23,89;-43,02;-23,89;-43,02;5,04;4,36;5,04;4,36;0;0;
3692;-19,29;-44,14;-19,29;-44,14;4,53;3,72;4,53;3,72;0;0;
3709;-19,29;-44,14;-19,29;-44,14;4,35;3,49;4,35;3,49;0;0;
3728;-16,07;-37,04;-16,07;-37,04;4,23;3,65;4,23;3,65;0;0;
3745;-29,27;-42,4;-29,27;-42,4;3,79;3,4;3,79;3,4;0;0;
3762;-17,81;-32,42;-17,81;-32,42;3,79;3,58;3,79;3,58;0;0;
3780;-21,35;-42,98;-21,35;-42,98;3,64;4,38;3,64;4,38;0;0;
3798;-16,4;-31,18;-16,4;-31,18;4,04;4,72;4,04;4,72;0;0;
3816;-23,14;-33,46;-23,14;-33,46;4,07;5,69;4,07;5,69;0;0;
3833;-24,38;-39,1;-24,38;-39,1;3,9;5,64;3,9;5,64;0;0;
3850;-22,06;-32,74;-22,06;-32,74;4,07;5,69;4,07;5,69;0;0;
3868;-22,06;-32,74;-22,06;-32,74;3,84;4,45;3,84;4,45;0;0;
3885;-27,52;-41,12;-27,52;-41,12;3,84;4,54;3,84;4,54;0;0;
3901;-27,52;-41,12;-27,52;-41,12;4,15;3,92;4,15;3,92;0;0;
3919;-29,16;-36,89;-29,16;-36,89;4,1;3,33;4,1;3,33;0;0;
3939;-32,55;-43,51;-32,55;-43,51;4,63;3,56;4,63;3,56;0;0;
3957;-28,25;-42,39;-28,25;-42,39;4,8;3,97;4,8;3,97;0;0;
3974;-26,55;-37,8;-26,55;-37,8;4,35;4,28;4,35;4,28;0;0;
3994;-31,08;-32,91;-31,08;-32,91;4,44;5,2;4,44;5,2;0;0;
4011;-26,03;-36,42;-26,03;-36,42;4,63;5,28;4,63;5,28;0;0;
4031;-18,84;-44,79;-18,84;-44,79;4,32;6,05;4,32;6,05;0;0;
4048;-18,84;-44,79;-18,84;-44,79;4,17;6,95;4,17;6,95;0;0;
4065;-15,81;-38,5;-15,81;-38,5;4,07;7,1;4,07;7,1;0;0;
4084;-27,03;-35,75;-27,03;-35,75;4,19;7,28;4,19;7,28;0;0;
4101;-22,26;-43,5;-22,26;-43,5;3,31;6,47;3,31;6,47;0;0;
4122;-24,79;-38,55;-24,79;-38,55;3,1;5,65;3,1;5,65;0;0;
4140;-16,1;-37,37;-16,1;-37,37;3,01;4,57;3,01;4,57;0;0;
4157;-23,42;-30,06;-23,42;-30,06;2,95;4,58;2,95;4,58;0;0;
4174;-24,46;-44,16;-24,46;-44,16;3,01;4,24;3,01;4,24;0;0;
4193;-24,95;-39,6;-24,95;-39,6;3,46;3,37;3,46;3,37;0;0;
4212;-23,52;-43,45;-23,52;-43,45;3,91;4,47;3,91;4,47;0;0;
4229;-23,52;-43,45;-23,52;-43,45;4,49;5,74;4,49;5,74;0;0;
4246;-24,87;-39,62;-24,87;-39,62;4,09;5,85;4,09;5,85;0;0;
4267;-17,47;-44,75;-17,47;-44,75;5,09;5,43;5,09;5,43;0;0;
4287;-25,47;-41,64;-25,47;-41,64;4,69;5,83;4,69;5,83;0;0;
4303;-25,49;-27,27;-25,49;-27,27;4,44;5,92;4,44;5,92;0;0;
4322;-22,06;-44,54;-22,06;-44,54;4,21;5,42;4,21;5,42;0;0;
4339;-23,88;-36,88;-23,88;-36,88;4,23;4,85;4,23;4,85;0;0;
4357;-22,89;-40,61;-22,89;-40,61;4,01;5,11;4,01;5,11;0;0;
4375;-23,65;-40,57;-23,65;-40,57;3,2;5,18;3,2;5,18;0;0;
4393;-16,92;-32,12;-16,92;-32,12;3,2;4,73;3,2;4,73;0;0;
4411;-13,99;-41,95;-13,99;-41,95;3,85;4,61;3,85;4,61;0;0;
4429;-13,99;-41,95;-13,99;-41,95;4,25;4,66;4,25;4,66;0;0;
4446;-32,53;-37,44;-32,53;-37,44;4,64;4,37;4,64;4,37;0;0;
4465;-18,4;-28,46;-18,4;-28,46;5,21;4,84;5,21;4,84;0;0;
4482;-20,84;-39,83;-20,84;-39,83;6,06;5,39;6,06;5,39;0;0;
4499;-16,47;-37,93;-16,47;-37,93;6,72;4,7;6,72;4,7;0;0;
4519;-30,35;-41,23;-30,35;-41,23;7,39;4,17;7,39;4,17;0;0;
4538;-24,76;-37,94;-24,76;-37,94;7,16;4,01;7,16;4,01;0;0;
4556;-20,02;-39,66;-20,02;-39,66;6,7;3,33;6,7;3,33;0;0;
4576;-20,9;-36,66;-20,9;-36,66;6,24;3,18;6,24;3,18;0;0;
4595;-20,9;-36,66;-20,9;-36,66;5,58;3,65;5,58;3,65;0;0;
4618;-23,08;-40,99;-23,08;-40,99;5,18;3,69;5,18;3,69;0;0;
4637;-21,18;-41,07;-21,18;-41,07;4,45;3,73;4,45;3,73;0;0;
4656;-25,7;-44,27;-25,7;-44,27;4,27;4,98;4,27;4,98;0;0;
4678;-22,84;-42,96;-22,84;-42,96;4,49;4,53;4,49;4,53;0;0;
4696;-18,13;-43,3;-18,13;-43,3;4,74;4,21;4,74;4,21;0;0;
4714;-28,39;-32,6;-28,39;-32,6;4,29;4,33;4,29;4,33;0;0;
4730;-24,87;-38,92;-24,87;-38,92;3,94;4,55;3,94;4,55;0;0;
4747;-24,87;-38,92;-24,87;-38,92;3,7;4,06;3,7;4,06;0;0;
4765;-20,08;-38,15;-20,08;-38,15;3,93;3,13;3,93;3,13;0;0;
4782;-23,62;-38,67;-23,62;-38,67;3,08;3,48;3,08;3,48;0;0;
4801;-29,54;-43,75;-29,54;-43,75;3,09;4,27;3,09;4,27;0;0;
4818;-24,4;-36,85;-24,4;-36,85;3,36;3,74;3,36;3,74;0;0;
4836;-27,73;-47,74;-27,73;-47,74;3,5;4,12;3,5;4,12;0;0;
4853;-24,09;-55,4;-24,09;-55,4;3,14;4,49;3,14;4,49;0;0;
4870;-17,8;-32,21;-17,8;-32,21;2,91;6,46;2,91;6,46;0;0;
4886;-17,8;-32,21;-17,8;-32,21;3,05;8,03;3,05;8,03;0;0;
4905;-26,3;-42,94;-26,3;-42,94;2,9;7,47;2,9;7,47;0;0;
4923;-29,69;-40,74;-29,69;-40,74;3,27;7,65;3,27;7,65;0;0;
4939;-19,76;-47,59;-19,76;-47,59;3,29;8,2;3,29;8,2;0;0;
4957;-19,76;-47,59;-19,76;-47,59;3,53;8,05;3,53;8,05;0;0;
4977;-25,35;-40,86;-25,35;-40,86;3,46;6,25;3,46;6,25;0;0;
4998;-25,35;-40,86;-25,35;-40,86;3,38;5,17;3,38;5,17;0;0;
5015;-29,99;-35,59;-29,99;-35,59;3,27;4,97;3,27;4,97;0;0;
5033;-13,88;-30,07;-13,88;-30,07;3,4;4,81;3,4;4,81;0;0;
5055;-30,32;-41,31;-30,32;-41,31;3,51;4,11;3,51;4,11;0;0;
5073;-35,52;-40,61;-35,52;-40,61;4,82;4,04;4,82;4,04;0;0;
5091;-31,54;-43,3;-31,54;-43,3;5,41;4,57;5,41;4,57;0;0;
5107;-31,54;-43,3;-31,54;-43,3;5,52;5,4;5,52;5,4;0;0;
5125;-14,62;-21,59;-14,62;-21,59;5,28;5,23;5,28;5,23;0;0;
5145;-33,88;-52,68;-33,88;-52,68;5,56;5,57;5,56;5,57;0;0;
5162;-25,23;-40,64;-25,23;-40,64;4,85;5,86;4,85;5,86;0;0;
5181;-26,42;-43,48;-26,42;-43,48;4,25;6,69;4,25;6,69;0;0;
5201;-28,07;-30,4;-28,07;-30,4;4,16;5,91;4,16;5,91;0;0;
5218;-28,01;-39,94;-28,01;-39,94;4,21;5,62;4,21;5,62;0;0;
5236;-24,97;-39,64;-24,97;-39,64;4,11;6,16;4,11;6,16;0;0;
5254;-28,77;-32,9;-28,77;-32,9;3,74;5,46;3,74;5,46;0;0;
5270;-18,79;-46,47;-18,79;-46,47;3,77;5,55;3,77;5,55;0;0;
5287;-18,79;-46,47;-18,79;-46,47;3,9;5,46;3,9;5,46;0;0;
5307;-18,4;-41,51;-18,4;-41,51;3,82;5,05;3,82;5,05;0;0;
5325;-31,83;-42,43;-31,83;-42,43;4,13;4,55;4,13;4,55;0;0;
5343;-26,81;-35,82;-26,81;-35,82;3,64;5,63;3,64;5,63;0;0;
5363;-20,1;-48,97;-20,1;-48,97;3,79;6,34;3,79;6,34;0;1;
5382;-17,13;-39,63;-17,13;-39,63;3,61;5,98;3,61;5,98;0;1;
5402;-24,91;-43,31;-24,91;-43,31;4,02;5,65;4,02;5,65;0;1;
5418;-26,67;-35,86;-26,67;-35,86;4,39;5,93;4,39;5,93;0;1;
5435;-16,32;-37,6;-16,32;-37,6;4,92;5,51;4,92;5,51;0;1;
5455;-20,59;-36,3;-20,59;-36,3;5,05;4,98;5,05;4,98;0;1;
5476;-30,67;-40,6;-30,67;-40,6;5,36;4,98;5,36;4,98;0;1;
5493;-26,63;-28,99;-26,63;-28,99;5,16;5,93;5,16;5,93;0;1;
5510;-16,7;-48,34;-16,7;-48,34;5,31;6,19;5,31;6,19;0;1;
5528;-16,7;-48,34;-16,7;-48,34;4,98;6,37;4,98;6,37;0;1;
5546;-30,61;-39,36;-30,61;-39,36;5,33;6,1;5,33;6,1;0;1;
5564;-16,85;-45,54;-16,85;-45,54;4,88;6,73;4,88;6,73;0;1;
5583;-16,2;-45,02;-16,2;-45,02;4,85;6,01;4,85;6,01;0;1;
5603;-29,69;-31,99;-29,69;-31,99;4,4;6,12;4,4;6,12;0;1;
5621;-29,88;-32,32;-29,88;-32,32;4,06;6,03;4,06;6,03;0;1;
5638;-10,46;-46,18;-10,46;-46,18;4,39;6,44;4,39;6,44;0;1;
5657;-30,38;-38,99;-30,38;-38,99;5,93;5,77;5,93;5,77;0;1;
5676;-21,37;-43,33;-21,37;-43,33;5,7;5,83;5,7;5,83;0;1;
5693;-26,66;-35,24;-26,66;-35,24;5,86;5,53;5,86;5,53;0;0;
5711;-23,08;-38,72;-23,08;-38,72;5,76;5,49;5,76;5,49;0;0;
5729;-23,08;-38,72;-23,08;-38,72;5,32;5,38;5,32;5,38;0;0;
5747;-23,85;-36,57;-23,85;-36,57;4,18;5,19;4,18;5,19;0;0;
5766;-21,58;-45,25;-21,58;-45,25;3,58;5,22;3,58;5,22;0;0;
5785;-34,19;-30,43;-34,19;-30,43;4,06;5,84;4,06;5,84;0;0;
5804;-8,75;-36,24;-8,75;-36,24;4,62;5,65;4,62;5,65;0;0;
5823;-30,82;-39,14;-30,82;-39,14;5,16;5,02;5,16;5,02;0;0;
5841;-26,08;-37,92;-26,08;-37,92;5,64;3,93;5,64;3,93;0;0;
5860;-18,67;-39,18;-18,67;-39,18;5,76;3,66;5,76;3,66;0;0;
5881;-28,51;-40,11;-28,51;-40,11;5,46;3,41;5,46;3,41;0;0;
5903;-13,75;-38,29;-13,75;-38,29;5,44;3,59;5,44;3,59;0;0;
5923;-24,63;-40,39;-24,63;-40,39;4,75;3,38;4,75;3,38;0;0;
5942;-14,24;-54,2;-14,24;-54,2;4,97;4,66;4,97;4,66;0;0;
5960;-27,57;-34,84;-27,57;-34,84;6,19;5,38;6,19;5,38;0;0;
5978;-18,88;-36,14;-18,88;-36,14;6;6,47;6;6,47;0;0;
5998;-22,06;15,6;-22,06;15,6;5,79;7,34;5,79;7,34;0;0;
6016;-23,04;-48,51;-23,04;-48,51;5,55;10,78;5,55;10,78;0;0;
6036;-29,19;-35,42;-29,19;-35,42;5,19;10,43;5,19;10,43;0;0;
6057;-29,19;-38,78;-29,19;-38,78;4,3;9,04;4,3;9,04;0;0;
6076;-19,73;-38,35;-19,73;-38,35;4,01;7,71;4,01;7,71;0;0;
6092;-31,06;-39,48;-31,06;-39,48;3,93;8,17;3,93;8,17;0;0;
6115;-15,53;-45,16;-15,53;-45,16;4,1;5,17;4,1;5,17;0;0;
6133;-23,9;-40,58;-23,9;-40,58;4,21;5,41;4,21;5,41;0;0;
6152;-31,34;-37,35;-31,34;-37,35;3,99;6,1;3,99;6,1;0;0;
6172;-24,32;-26,96;-24,32;-26,96;3,57;7,76;3,57;7,76;0;0;
6191;-6,13;-39,66;-6,13;-39,66;4,12;8,79;4,12;8,79;0;0;
6212;-26,82;-44,05;-26,82;-44,05;4,01;7,82;4,01;7,82;0;0;
6228;-26,82;-44,05;-26,82;-44,05;4,1;7,39;4,1;7,39;0;0;
6247;-20,69;-34,28;-20,69;-34,28;4,52;7,42;4,52;7,42;0;0;
6271;-24,09;-35,07;-24,09;-35,07;5,18;5,89;5,18;5,89;0;0;
6288;-24,09;-35,07;-24,09;-35,07;5,9;4,59;5,9;4,59;0;0;
6307;-21,43;-36,44;-21,43;-36,44;5,31;4,12;5,31;4,12;0;0;
6327;-19,11;-34,62;-19,11;-34,62;5,49;4,47;5,49;4,47;0;0;
6345;-32,19;-30,97;-32,19;-30,97;5,26;5,25;5,26;5,25;0;0;
6367;-15,17;-37,4;-15,17;-37,4;5,33;4,92;5,33;4,92;0;0;
6387;-27;-39,37;-27;-39,37;4,76;5,41;4,76;5,41;0;0;
6411;-25,74;-41,94;-25,74;-41,94;3,65;5,4;3,65;5,4;0;0;
6428;-25,74;-41,94;-25,74;-41,94;3,36;5,51;3,36;5,51;0;0;
6444;-31,36;-40,82;-31,36;-40,82;3,44;5,13;3,44;5,13;0;0;
6462;-20,92;-41,6;-20,92;-41,6;3;4,31;3;4,31;0;0;
6482;-25,52;-34,88;-25,52;-34,88;2,62;4,24;2,62;4,24;0;0;
6500;-20,46;-42,94;-20,46;-42,94;2,51;4,49;2,51;4,49;0;0;
6518;-25,9;-37,65;-25,9;-37,65;2,83;4,63;2,83;4,63;0;0;
6538;-23,78;-36,19;-23,78;-36,19;2,79;3,9;2,79;3,9;0;0;
6557;-25,19;-51,77;-25,19;-51,77;2,87;4,18;2,87;4,18;0;0;
6575;-26,23;-41,75;-26,23;-41,75;3,09;4,58;3,09;4,58;0;0;
6594;-16,64;-35,99;-16,64;-35,99;3,38;3,97;3,38;3,97;0;0;
6611;-12,84;-33,53;-12,84;-33,53;4,22;4,32;4,22;4,32;0;0;
6630;-28,65;-34,54;-28,65;-34,54;4,64;4,1;4,64;4,1;0;0;
6647;-28,65;-34,54;-28,65;-34,54;5,21;3,93;5,21;3,93;0;0;
6665;-29,74;-39,59;-29,74;-39,59;5,55;3,61;5,55;3,61;0;0;
6685;-12,73;-54,15;-12,73;-54,15;5,78;4,08;5,78;4,08;0;0;
6702;-26,2;-31,2;-26,2;-31,2;5,69;4,55;5,69;4,55;0;0;
6720;-25,85;-48,32;-25,85;-48,32;5,19;4,9;5,19;4,9;0;0;
6737;-14,23;-37,65;-14,23;-37,65;5,29;4,72;5,29;4,72;0;0;
6759;-23,8;-30,16;-23,8;-30,16;5,82;5,48;5,82;5,48;0;0;
6779;-35,99;-41,36;-35,99;-41,36;5,52;5,36;5,52;5,36;0;0;
6800;-13,74;-38,45;-13,74;-38,45;5,7;4,77;5,7;4,77;0;0;
6816;-20,77;-46,42;-20,77;-46,42;5,26;4,32;5,26;4,32;0;0;
6837;-19,83;-35,23;-19,83;-35,23;4,76;4,7;4,76;4,7;0;0;
6855;-25,21;-36,79;-25,21;-36,79;3,62;4,77;3,62;4,77;0;0;
6876;-18,41;-42,86;-18,41;-42,86;4,74;4,74;4,74;4,74;0;0;
6896;-24,25;-37,9;-24,25;-37,9;5,52;4,65;5,52;4,65;0;0;
6913;-24,73;-43,97;-24,73;-43,97;5,71;4,73;5,71;4,73;0;0;
6931;-21,45;-39,86;-21,45;-39,86;6,17;4,4;6,17;4,4;0;0;
6948;-21,45;-39,86;-21,45;-39,86;6,42;4,16;6,42;4,16;0;0;
6965;-25,74;-43,47;-25,74;-43,47;5,4;4,2;5,4;4,2;0;0;
6982;-21,55;-26,81;-21,55;-26,81;4,3;4,06;4,3;4,06;0;0;
7001;-12,98;-26,69;-12,98;-26,69;3,63;5,1;3,63;5,1;0;0;
7019;-29,38;-38,6;-29,38;-38,6;4,49;4,42;4,49;4,42;0;0;
7034;-20,12;-42,3;-20,12;-42,3;4,5;4,27;4,5;4,27;0;0;
7052;-18,86;-50,28;-18,86;-50,28;4,44;4,79;4,44;4,79;0;0;
7070;-28,19;-46,33;-28,19;-46,33;4,9;5,64;4,9;5,64;0;0;
7088;-28,19;-46,33;-28,19;-46,33;5,44;5,88;5,44;5,88;0;0;
7106;-27,7;-39,9;-27,7;-39,9;4,96;5,23;4,96;5,23;0;0;
7126;-14,25;-42,83;-14,25;-42,83;3,98;5,44;3,98;5,44;0;0;
7144;-28,69;-38,93;-28,69;-38,93;3,94;4,98;3,94;4,98;0;0;
7162;-20,73;-38,66;-20,73;-38,66;3,71;4,22;3,71;4,22;0;0;
7178;-25,05;-31,17;-25,05;-31,17;3,26;3,55;3,26;3,55;0;0;
7198;-15,52;-44,63;-15,52;-44,63;3,91;3,47;3,91;3,47;0;0;
7216;-26,28;-41,34;-26,28;-41,34;3,76;3,69;3,76;3,69;0;0;
7233;-26,81;-42,59;-26,81;-42,59;3,39;4,5;3,39;4,5;0;0;
7249;-26,81;-42,59;-26,81;-42,59;3,51;5,15;3,51;5,15;0;0;
7269;-17,97;-34,98;-17,97;-34,98;3,31;5,13;3,31;5,13;0;0;
7288;-25,02;-43,05;-25,02;-43,05;3,12;4,75;3,12;4,75;0;0;
7306;-19,99;-44,12;-19,99;-44,12;2,79;4,58;2,79;4,58;0;0;
7326;-20,44;-42,33;-20,44;-42,33;3,7;4,6;3,7;4,6;0;0;
7345;-10,29;-29,91;-10,29;-29,91;4,25;5,11;4,25;5,11;0;0;
7364;-40,86;-40,37;-40,86;-40,37;5,91;4,72;5,91;4,72;0;0;
7382;-28,87;-38,42;-28,87;-38,42;6,18;5,78;6,18;5,78;0;0;
7403;-30,88;-42,86;-30,88;-42,86;6,1;5,61;6,1;5,61;0;0;
7422;-23,5;-33,16;-23,5;-33,16;5,4;5,46;5,4;5,46;0;0;
7440;-28,47;-42,05;-28,47;-42,05;5,91;5,91;5,91;5,91;0;0;
7461;-20,68;-34,1;-20,68;-34,1;4,76;4,8;4,76;4,8;0;0;
7480;-22,2;-39,99;-22,2;-39,99;4,81;3,94;4,81;3,94;0;0;
7497;-21,94;-39,35;-21,94;-39,35;5,63;3,97;5,63;3,97;0;0;
7516;-36,38;-42,86;-36,38;-42,86;7,03;9,53;7,03;9,53;0;0;
7535;-25,99;-36,4;-25,99;-36,4;7,59;9,5;7,59;9,5;0;0;
7555;-21,43;-37,14;-21,43;-37,14;7,03;9,72;7,03;9,72;0;0;
7576;-31,27;-36,34;-31,27;-36,34;7,14;10,96;7,14;10,96;0;0;
7594;-29,09;-35,41;-29,09;-35,41;6,43;10,91;6,43;10,91;0;0;
7612;-10,54;-39,71;-10,54;-39,71;5,2;6,59;5,2;6,59;0;0;
7628;-10,54;-39,71;-10,54;-39,71;3,96;4,88;3,96;4,88;0;0;
7645;-31,52;-36,34;-31,52;-36,34;4;5,24;4;5,24;0;0;
7663;-21,24;-39,72;-21,24;-39,72;4,11;4,82;4,11;4,82;0;0;
7681;-25,47;-35,91;-25,47;-35,91;3,95;4,19;3,95;4,19;0;0;
7697;-19,95;-32,92;-19,95;-32,92;4,33;4,55;4,33;4,55;0;0;
7716;-22,64;-50,79;-22,64;-50,79;4,2;5,96;4,2;5,96;0;0;
7735;-25,95;-30,41;-25,95;-30,41;4,16;6,6;4,16;6,6;0;0;
7753;-29,15;-34,02;-29,15;-34,02;3,68;6,82;3,68;6,82;0;0;
7769;-29,15;-34,02;-29,15;-34,02;3,33;6,53;3,33;6,53;0;0;
7787;-14,68;-41,82;-14,68;-41,82;3,76;6,95;3,76;6,95;0;1;
7808;-29,95;-34,12;-29,95;-34,12;3,93;6,63;3,93;6,63;0;1;
7826;-19,98;-37,2;-19,98;-37,2;3,95;5,37;3,95;5,37;0;1;
7847;-16,68;-39,66;-16,68;-39,66;4,55;4,21;4,55;4,21;0;1;
7866;-25,3;-50,01;-25,3;-50,01;4,78;4,15;4,78;4,15;0;1;
7886;-22,26;-46,19;-22,26;-46,19;5,03;4,87;5,03;4,87;0;1;
7906;-25,04;-51,11;-25,04;-51,11;4,36;5,16;4,36;5,16;0;1;
7924;-17,2;-30,83;-17,2;-30,83;5,09;5,86;5,09;5,86;0;1;
7940;-32,44;-37,13;-32,44;-37,13;6,78;6,01;6,78;6,01;0;1;
7963;-26,66;-42,91;-26,66;-42,91;6,43;6,55;6,43;6,55;0;1;
7979;-18,46;-35,23;-18,46;-35,23;7,08;5,56;7,08;5,56;0;1;
7996;-18,95;-36,1;-18,95;-36,1;6,86;5,22;6,86;5,22;0;1;
8015;-26,88;-35,62;-26,88;-35,62;6,96;4,08;6,96;4,08;0;1;
8032;-18,46;-38,56;-18,46;-38,56;4,86;3,94;4,86;3,94;0;1;
8049;-18,46;-38,56;-18,46;-38,56;5,46;4,23;5,46;4,23;0;1;
8068;-24,69;-46,99;-24,69;-46,99;4,96;3,9;4,96;3,9;0;1;
8086;-16,12;-28,66;-16,12;-28,66;5,5;4,33;5,5;4,33;0;1;
8104;-31,45;-52,21;-31,45;-52,21;5,53;5,71;5,53;5,71;0;1;
8122;-25,57;-34,68;-25,57;-34,68;5,42;5,92;5,42;5,92;0;0;
8140;-28,28;-46,7;-28,28;-46,7;4,91;5,77;4,91;5,77;0;0;
8158;-23,86;-30,37;-23,86;-30,37;4,78;6,64;4,78;6,64;0;0;
8179;-20,8;-38,98;-20,8;-38,98;4,35;6,54;4,35;6,54;0;0;
8197;-23,05;-41,34;-23,05;-41,34;3,97;5,13;3,97;5,13;0;0;
8216;-29,53;-31,47;-29,53;-31,47;3,68;4,45;3,68;4,45;0;0;
8235;-22,19;-45,88;-22,19;-45,88;3,5;4,41;3,5;4,41;0;0;
8255;-22,19;-45,88;-22,19;-45,88;3,1;3,81;3,1;3,81;0;0;
8278;-20,83;-43,05;-20,83;-43,05;3,74;3,1;3,74;3,1;0;0;
8295;-23,43;-46,45;-23,43;-46,45;3,49;4,23;3,49;4,23;0;0;
8312;-16,68;-42,55;-16,68;-42,55;3,53;4,36;3,53;4,36;0;0;
8331;-30,36;-35,61;-30,36;-35,61;4,35;3,96;4,35;3,96;0;0;
8350;-30,36;-35,61;-30,36;-35,61;4,97;3,91;4,97;3,91;0;0;
8367;-18,37;-42,8;-18,37;-42,8;4,33;4,12;4,33;4,12;0;0;
8386;-22,92;-36,42;-22,92;-36,42;3,92;4,15;3,92;4,15;0;0;
8407;-26,82;-35,71;-26,82;-35,71;4,18;3,96;4,18;3,96;0;0;
8427;-27,31;-36,42;-27,31;-36,42;3,48;3,84;3,48;3,84;0;0;
8446;-18,23;-22,52;-18,23;-22,52;3,64;7,18;3,64;7,18;0;0;
8464;-27,63;-38,31;-27,63;-38,31;3,45;7,61;3,45;7,61;0;0;
8482;-22,4;-35,36;-22,4;-35,36;3,53;8,33;3,53;8,33;0;0;
8500;-25,83;-46,99;-25,83;-46,99;3,48;8,1;3,48;8,1;0;0;
8520;-30,47;-41,88;-30,47;-41,88;3,65;8,08;3,65;8,08;1;0;
8541;-20,37;-41,89;-20,37;-41,89;3,56;7,34;3,56;7,34;1;0;
8559;-16,18;11,19;-16,18;11,19;3,22;18,96;3,22;18,96;1;0;
8577;-29,97;-210,25;-29,97;-210,25;3,87;25,52;3,87;25,52;1;0;
8595;-27,96;9,82;-27,96;9,82;4,47;32,5;4,47;32,5;1;0;
8613;-31,31;10,51;-31,31;10,51;4,65;38,44;4,65;38,44;1;0;
8629;-31,31;10,51;-31,31;10,51;4,42;44,67;4,42;44,67;1;0;
8646;-16,01;-89,69;-16,01;-89,69;5,5;45,65;5,5;45,65;1;0;
8662;-28,75;-31,67;-28,75;-31,67;5,73;38,47;5,73;38,47;1;0;
8680;-38,43;19,89;-38,43;19,89;6,73;37,45;6,73;37,45;1;0;
8699;-6,94;-165,52;-6,94;-165,52;6,87;39,73;6,87;39,73;1;0;
8717;-20,37;-94,97;-20,37;-94,97;6,89;42,37;6,89;42,37;1;0;
8734;-46,08;-50,09;-46,08;-50,09;7,71;46,35;7,71;46,35;1;0;
8753;-18,73;72,14;-18,73;72,14;7,71;48,78;7,71;48,78;1;0;
8772;-20,11;-28,82;-20,11;-28,82;8,53;52,13;8,53;52,13;1;0;
8795;-29,05;15,1;-29,05;15,1;7,5;51,64;7,5;51,64;1;0;
8814;-16,6;-93,71;-16,6;-93,71;7,79;52,08;7,79;52,08;1;0;
8832;-25,53;-61,96;-25,53;-61,96;8,01;57,09;8,01;57,09;1;0;
8852;-16,63;-76,38;-16,63;-76,38;8,7;55,45;8,7;55,45;0;0;
8869;-16,63;-76,38;-16,63;-76,38;9,41;52,54;9,41;52,54;0;0;
8887;-35,6;53,22;-35,6;53,22;10,28;56,67;10,28;56,67;0;0;
8906;-22,91;-82,3;-22,91;-82,3;11,05;54,02;11,05;54,02;0;0;
8926;-52,17;-34,21;-52,17;-34,21;11,03;46,39;11,03;46,39;0;0;
8947;-14,28;-60,13;-14,28;-60,13;11,25;44,47;11,25;44,47;0;0;
8967;-23,97;41,11;-23,97;41,11;11,61;50,27;11,61;50,27;0;0;
8986;-17,89;43,06;-17,89;43,06;11,65;51,01;11,65;51,01;0;0;
9005;-15,64;-26,4;-15,64;-26,4;10,64;47,02;10,64;47,02;0;0;
9025;-32,08;-17,58;-32,08;-17,58;12,72;48,73;12,72;48,73;0;0;
9045;-63,81;-111,01;-63,81;-111,01;12,78;47,89;12,78;47,89;0;0;
9062;-24,98;42,99;-24,98;42,99;12,96;56,74;12,96;56,74;0;0;
9083;-16,37;-43,68;-16,37;-43,68;10,99;62,77;10,99;62,77;0;0;
9102;-26,06;4,08;-26,06;4,08;11,15;61,09;11,15;61,09;0;0;
9119;-20,02;-101,49;-20,02;-101,49;10,28;56,1;10,28;56,1;0;0;
9137;-39,18;-111,02;-39,18;-111,02;10,96;58,69;10,96;58,69;0;0;
9157;-10,37;-35,12;-10,37;-35,12;10,9;57,74;10,9;57,74;0;0;
9173;-31,75;-59,14;-31,75;-59,14;12,14;48,31;12,14;48,31;0;0;
9191;-59,95;54,4;-59,95;54,4;11,53;43,39;11,53;43,39;0;0;
9211;-26,36;23,5;-26,36;23,5;13,1;48,9;13,1;48,9;0;0;
9228;-26,36;23,5;-26,36;23,5;13,25;52,81;13,25;52,81;0;0;
9245;-37,66;-27,44;-37,66;-27,44;13,6;52,71;13,6;52,71;0;0;
9264;-14,84;-140,48;-14,84;-140,48;13,38;47,39;13,38;47,39;0;0;
9282;-17,99;-56,29;-17,99;-56,29;12,99;48,37;12,99;48,37;0;0;
9299;-41,12;-26,87;-41,12;-26,87;12,77;45,06;12,77;45,06;0;0;
9319;-12,84;-33,03;-12,84;-33,03;10,08;34,69;10,08;34,69;0;0;
9336;-9,96;-103,36;-9,96;-103,36;9,4;44,65;9,4;44,65;0;0;
9355;-15,81;-12,59;-15,81;-12,59;8,63;39,97;8,63;39,97;0;0;
9370;-19,09;-2,44;-19,09;-2,44;8,24;40,64;8,24;40,64;0;0;
9387;-19,09;-2,44;-19,09;-2,44;8,46;41,19;8,46;41,19;0;0;
9404;-7,77;21,77;-7,77;21,77;9,86;46,67;9,86;46,67;0;0;
9421;-24,29;-60,11;-24,29;-60,11;9,52;37,88;9,52;37,88;0;0;
9438;-17,19;71,76;-17,19;71,76;9,04;35,13;9,04;35,13;0;0;
9454;-4,34;-13,68;-4,34;-13,68;10,19;41,49;10,19;41,49;0;0;
9476;-37,48;-70,94;-37,48;-70,94;10,79;45,33;10,79;45,33;0;0;
9493;-30,62;-51,49;-30,62;-51,49;10,21;40,99;10,21;40,99;0;0;
9510;-20,8;25,19;-20,8;25,19;9;37,79;9;37,79;0;0;
9529;-20,8;25,19;-20,8;25,19;9,18;36,24;9,18;36,24;0;0;
9545;-10,52;-60,42;-10,52;-60,42;8,55;31,34;8,55;31,34;0;0;
9563;-29,27;135,12;-29,27;135,12;8,82;34,23;8,82;34,23;0;0;
9580;-25,33;-74,45;-25,33;-74,45;8,38;32,65;8,38;32,65;0;0;
9599;-39,41;-48,29;-39,41;-48,29;10,86;34,76;10,86;34,76;0;0;
9620;-19,43;-41,05;-19,43;-41,05;10,98;31,75;10,98;31,75;0;0;
9640;-14,93;-26,69;-14,93;-26,69;10,97;33,87;10,97;33,87;0;0;
9661;-61,8;-101,41;-61,8;-101,41;12,46;47,29;12,46;47,29;0;0;
9679;-25,94;-43,73;-25,94;-43,73;10,54;33,86;10,54;33,86;0;0;
9695;-31;-30,32;-31;-30,32;9,35;32,64;9,35;32,64;1;0;
9714;-19,84;-56,74;-19,84;-56,74;8,38;33,62;8,38;33,62;1;0;
9732;-24,31;-31,53;-24,31;-31,53;7,82;32,59;7,82;32,59;1;0;
9751;-19,59;-56,46;-19,59;-56,46;7,63;30,05;7,63;30,05;1;0;
9769;-19,59;-56,46;-19,59;-56,46;6,91;25,5;6,91;25,5;1;0;
9789;-33,26;-39,23;-33,26;-39,23;7,46;34,98;7,46;34,98;1;0;
9809;-24,59;-45,03;-24,59;-45,03;7,3;34,83;7,3;34,83;1;0;
9826;-15,11;-44,9;-15,11;-44,9;8,2;31,81;8,2;31,81;1;0;
9843;-15,11;-44,9;-15,11;-44,9;8,5;25,74;8,5;25,74;1;0;
9860;-27,63;-62,96;-27,63;-62,96;7,66;24,33;7,66;24,33;1;0;
9878;-22,69;-46,48;-22,69;-46,48;7,01;16,29;7,01;16,29;1;0;
9896;-44,73;111,25;-44,73;111,25;7,53;17,51;7,53;17,51;1;0;
9915;-25,89;-35,34;-25,89;-35,34;7,73;17,78;7,73;17,78;1;0;
9933;-21,93;-40,58;-21,93;-40,58;6,84;18,13;6,84;18,13;1;0;
9953;-23,67;-48,15;-23,67;-48,15;6,8;21,3;6,8;21,3;1;0;
9973;-14,73;-36,23;-14,73;-36,23;7,21;19,4;7,21;19,4;1;0;
9993;-6,19;-54,08;-6,19;-54,08;7,53;18,91;7,53;18,91;1;0;
10012;-34,25;-49,56;-34,25;-49,56;7,02;14,72;7,02;14,72;1;0;
10032;-32,56;-41,13;-32,56;-41,13;7,42;14,52;7,42;14,52;0;0;
10050;-32,56;-41,13;-32,56;-41,13;8,42;12,83;8,42;12,83;0;0;
10068;-21,36;-35,95;-21,36;-35,95;7,39;11,31;7,39;11,31;0;0;
10088;-24;-29,41;-24;-29,41;7,31;9,77;7,31;9,77;0;0;
10110;-19,06;-45,48;-19,06;-45,48;6,45;8,81;6,45;8,81;0;0;
10129;-39,88;-38,27;-39,88;-38,27;6,76;9,96;6,76;9,96;0;0;
10151;-31,1;-33,24;-31,1;-33,24;5,85;9,6;5,85;9,6;0;0;
10171;-26,36;-43,94;-26,36;-43,94;5,38;9,22;5,38;9,22;0;0;
10191;-21,68;-51,29;-21,68;-51,29;5,32;8,68;5,32;8,68;0;0;
10209;-21,68;-51,29;-21,68;-51,29;5,22;8,33;5,22;8,33;0;0;
10227;-20,77;-34,31;-20,77;-34,31;4,49;6,98;4,49;6,98;0;0;
10247;-26,72;-44,58;-26,72;-44,58;4,39;5,15;4,39;5,15;0;0;
10267;-15,43;-36,81;-15,43;-36,81;4,66;5,02;4,66;5,02;0;0;
10286;-31,33;-33,86;-31,33;-33,86;5,25;5,29;5,25;5,29;0;0;
10304;-31,46;-40,59;-31,46;-40,59;5,63;4,85;5,63;4,85;0;0;
10323;-13,97;-35,93;-13,97;-35,93;6,06;5,23;6,06;5,23;0;0;
10344;-25,81;-43,61;-25,81;-43,61;5,24;6,38;5,24;6,38;0;0;
10363;-29,89;-40,03;-29,89;-40,03;5,06;4,63;5,06;4,63;0;0;
10380;-30,3;-42,56;-30,3;-42,56;4,28;4,32;4,28;4,32;0;0;
10400;-26,74;-29,07;-26,74;-29,07;4,42;4,37;4,42;4,37;0;0;
10418;-19,42;-42,93;-19,42;-42,93;3,81;4,18;3,81;4,18;0;0;
10436;-20,63;-29,11;-20,63;-29,11;4,28;3,14;4,28;3,14;0;0;
10456;-23,24;-47,87;-23,24;-47,87;3,75;3,66;3,75;3,66;0;0;
10474;-19,98;-32,87;-19,98;-32,87;3,41;3,83;3,41;3,83;0;0;
10492;-29,67;-41,58;-29,67;-41,58;3,57;3,94;3,57;3,94;0;0;
10509;-29,67;-41,58;-29,67;-41,58;3,88;3,58;3,88;3,58;0;0;
10528;-21,82;-31,93;-21,82;-31,93;4,31;3,87;4,31;3,87;0;0;
10545;-22,31;-45,41;-22,31;-45,41;4,28;3,71;4,28;3,71;0;0;
10562;-26,66;-25,97;-26,66;-25,97;4,88;4,61;4,88;4,61;0;0;
10579;-20,43;-51,9;-20,43;-51,9;4,97;5,68;4,97;5,68;0;0;
10598;-12,38;-36,22;-12,38;-36,22;5,36;5,61;5,36;5,61;0;0;
10615;-24,89;-43,48;-24,89;-43,48;4,71;5,56;4,71;5,56;0;0;
10631;-15,05;-40,86;-15,05;-40,86;4,84;5,37;4,84;5,37;0;0;
10648;-15,05;-40,86;-15,05;-40,86;5,38;4,99;5,38;4,99;0;0;
10666;-13,81;-37,18;-13,81;-37,18;5,64;4,34;5,64;4,34;0;0;
10683;-12,71;-31,85;-12,71;-31,85;5,73;3,4;5,73;3,4;0;0;
10701;-31,37;-34,63;-31,37;-34,63;6,51;4,4;6,51;4,4;0;0;
10719;-35,29;-39,47;-35,29;-39,47;7,7;4,94;7,7;4,94;0;0;
10736;-22,78;-40,36;-22,78;-40,36;8,03;4,91;8,03;4,91;0;0;
10754;-14,7;-37,32;-14,7;-37,32;7,89;5,06;7,89;5,06;0;0;
10773;-23,99;-31,81;-23,99;-31,81;7,72;4,9;7,72;4,9;0;0;
10792;4,47;-42,38;4,47;-42,38;8,65;5,31;8,65;5,31;0;0;
10810;4,47;-42,38;4,47;-42,38;7,76;5,07;7,76;5,07;0;0;
10829;-6,64;-60,9;-6,64;-60,9;12,14;6,26;12,14;6,26;0;0;
10846;-20,86;-31,42;-20,86;-31,42;14,77;7,01;14,77;7,01;0;0;
10864;-32,59;-34,04;-32,59;-34,04;16,14;8,05;16,14;8,05;0;0;
10881;-32,69;-35,55;-32,69;-35,55;19,4;7,41;19,4;7,41;0;0;
10898;-18,19;-49,22;-18,19;-49,22;19,18;7,28;19,18;7,28;0;0;
10917;-12,54;-37,09;-12,54;-37,09;17,03;7,09;17,03;7,09;0;0;
10934;-49,7;-31,63;-49,7;-31,63;16,54;6,12;16,54;6,12;0;0;
10954;-0,06;-35,66;-0,06;-35,66;21,25;5,09;21,25;5,09;0;0;
10972;-44,72;-37,52;-44,72;-37,52;22,21;5,59;22,21;5,59;0;0;
10990;-20,87;-39,41;-20,87;-39,41;21,07;5,11;21,07;5,11;0;0;
11007;-20,87;-39,41;-20,87;-39,41;20,4;4,31;20,4;4,31;0;0;
11024;5,92;-33;5,92;-33;20,56;4,51;20,56;4,51;0;0;
11042;61,52;-30,24;61,52;-30,24;22,96;4,5;22,96;4,5;0;0;
11058;-28,56;-40,6;-28,56;-40,6;21,84;4,22;21,84;4,22;0;0;
11076;-36,03;-49,36;-36,03;-49,36;23;4,31;23;4,31;0;0;
11093;-36,29;-28,08;-36,29;-28,08;23,35;5,3;23,35;5,3;0;0;
11108;-36,29;-28,08;-36,29;-28,08;22,05;6,03;22,05;6,03;0;0;
11128;13,84;-44,91;13,84;-44,91;22,29;5,79;22,29;5,79;0;0;
11146;-49,29;-39,27;-49,29;-39,27;17,63;5,58;17,63;5,58;0;0;
11165;-21,69;-49,43;-21,69;-49,43;18,51;5,66;18,51;5,66;0;0;
11181;-4,57;-47,34;-4,57;-47,34;18,12;5,5;18,12;5,5;0;0;
11199;-11,93;-40,71;-11,93;-40,71;20,38;5,4;20,38;5,4;0;0;
11218;-14,39;-35,04;-14,39;-35,04;23,48;5,11;23,48;5,11;0;0;
11236;-83,54;-33,99;-83,54;-33,99;20,05;5,67;20,05;5,67;0;0;
11255;-18,47;-32,88;-18,47;-32,88;20,27;5,62;20,27;5,62;0;0;
11279;38,75;-41,83;38,75;-41,83;27,86;5,55;27,86;5,55;0;0;
11296;-46,5;-37,57;-46,5;-37,57;28,96;4,63;28,96;4,63;0;0;
11313;-5,19;-33,35;-5,19;-33,35;30,19;4,97;30,19;4,97;0;0;
11331;-19,01;-45,34;-19,01;-45,34;30,09;4,31;30,09;4,31;0;0;
11350;-19,01;-45,34;-19,01;-45,34;28,91;4,21;28,91;4,21;0;0;
11368;-41,17;-33,63;-41,17;-33,63;27,82;3,79;27,82;3,79;0;0;
11385;-13,15;-38,53;-13,15;-38,53;23,33;3,62;23,33;3,62;0;0;
11404;-43,81;-47,07;-43,81;-47,07;22,43;3,45;22,43;3,45;0;0;
11422;-38,93;-42,97;-38,93;-42,97;22,58;3,83;22,58;3,83;0;0;
11440;-20,42;-31,94;-20,42;-31,94;21,72;4,71;21,72;4,71;0;0;
11459;-64,08;-42,77;-64,08;-42,77;22,87;4,45;22,87;4,45;0;0;
11478;-27,74;-44,72;-27,74;-44,72;25,25;4,78;25,25;4,78;0;0;
11493;-93,46;-40,39;-93,46;-40,39;24,39;5,14;24,39;5,14;0;0;
11509;-93,46;-40,39;-93,46;-40,39;26,34;4,87;26,34;4,87;0;0;
11527;-0,65;-41,32;-0,65;-41,32;28,57;5,85;28,57;5,85;0;0;
11545;-17,64;-28,14;-17,64;-28,14;32,26;6,05;32,26;6,05;0;0;
11563;-11,6;-45,64;-11,6;-45,64;29,73;6,56;29,73;6,56;1;0;
11582;-11,95;-35,96;-11,95;-35,96;35,21;6,46;35,21;6,46;1;0;
11600;-4,97;-34,71;-4,97;-34,71;37,01;5,99;37,01;5,99;1;0;
11619;-14,41;-38,18;-14,41;-38,18;34,15;5,25;34,15;5,25;1;0;
11639;-9,42;-49,4;-9,42;-49,4;33,86;4,93;33,86;4,93;1;0;
11659;-22,73;-38,95;-22,73;-38,95;28,1;4,78;28,1;4,78;1;0;
11676;-5,21;-17,39;-5,21;-17,39;20,65;5,24;20,65;5,24;1;0;
11694;58,7;-43,14;58,7;-43,14;26,36;5,11;26,36;5,11;1;0;
11711;-53,49;-35,43;-53,49;-35,43;29,37;4,96;29,37;4,96;1;0;
11729;-53,49;-35,43;-53,49;-35,43;32,33;5,08;32,33;5,08;1;0;
11746;-25,59;-26,43;-25,59;-26,43;32,13;4,98;32,13;4,98;1;0;
11763;-41;-40,76;-41;-40,76;32,53;6,12;32,53;6,12;1;0;
11781;-42,53;-49,22;-42,53;-49,22;29,93;6,9;29,93;6,9;1;0;
11801;-85,13;-21,46;-85,13;-21,46;27,7;7,02;27,7;7,02;1;0;
11820;-84,67;-49,96;-84,67;-49,96;29,43;8,39;29,43;8,39;1;0;
11838;53,19;-53,74;53,19;-53,74;34,78;10,48;34,78;10,48;1;0;
11857;-10,15;-31,82;-10,15;-31,82;40,06;10,18;40,06;10,18;1;0;
11874;52,29;-30,05;52,29;-30,05;42,77;10,22;42,77;10,22;1;0;
11892;-51,53;-57,84;-51,53;-57,84;44,43;9,61;44,43;9,61;1;0;
11912;-95,14;-39,59;-95,14;-39,59;40,33;9,28;40,33;9,28;0;0;
11932;-44,3;-40,39;-44,3;-40,39;40,27;8,31;40,27;8,31;0;0;
11950;-44,3;-40,39;-44,3;-40,39;36,26;7,2;36,26;7,2;0;0;
11968;13,48;-39,55;13,48;-39,55;39,68;6,88;39,68;6,88;0;0;
11987;-123,31;-31,82;-123,31;-31,82;40,15;6,07;40,15;6,07;0;0;
12007;-35,81;-39,34;-35,81;-39,34;51,24;6,25;51,24;6,25;0;0;
12027;77,31;-46,53;77,31;-46,53;57,62;6,2;57,62;6,2;0;0;
12045;16,48;-47,25;16,48;-47,25;61,83;5,59;61,83;5,59;0;0;
12067;-84,63;-36,73;-84,63;-36,73;65,46;7,18;65,46;7,18;0;0;
12090;-142,1;-52,83;-142,1;-52,83;65,69;7,51;65,69;7,51;0;0;
12107;-71,9;-22,12;-71,9;-22,12;63,63;7,78;63,63;7,78;0;0;
12125;84,36;-42,35;84,36;-42,35;60,45;8,22;60,45;8,22;0;0;
12142;-26,35;-39,44;-26,35;-39,44;56,06;10,05;56,06;10,05;0;0;
12159;-34,2;-51,64;-34,2;-51,64;45,88;9,77;45,88;9,77;0;0;
12176;-8,78;-55,62;-8,78;-55,62;42,69;10,17;42,69;10,17;0;0;
12197;-96,91;-27,95;-96,91;-27,95;33,94;10,66;33,94;10,66;0;0;
12215;-31,89;-48,19;-31,89;-48,19;38,1;11,05;38,1;11,05;0;0;
12235;-56,72;-41,49;-56,72;-41,49;31,66;10;31,66;10;0;0;
12253;-62,64;-35,01;-62,64;-35,01;30,38;8,69;30,38;8,69;0;0;
12272;-10,41;-37,58;-10,41;-37,58;30,81;7,87;30,81;7,87;0;0;
12288;-10,41;-37,58;-10,41;-37,58;33,13;6,78;33,13;6,78;0;0;
12304;-23,23;-43,58;-23,23;-43,58;25,03;5,76;25,03;5,76;0;0;
12325;-21,94;-50,75;-21,94;-50,75;18,73;4,56;18,73;4,56;0;0;
12343;11,75;-35,48;11,75;-35,48;19,46;5,7;19,46;5,7;0;0;
12360;115,34;-23,06;115,34;-23,06;26,61;5,98;26,61;5,98;0;0;
12376;-10,95;-59,39;-10,95;-59,39;36,74;6,68;36,74;6,68;0;0;
12396;-9,25;-43,44;-9,25;-43,44;38,92;7,84;38,92;7,84;0;0;
12412;9,33;-36,19;9,33;-36,19;42,93;9,11;42,93;9,11;0;0;
12431;-4,67;-36,3;-4,67;-36,3;43,71;10,02;43,71;10,02;0;0;
12449;-4,67;-36,3;-4,67;-36,3;40,33;10,09;40,33;10,09;0;0;
12468;-44,21;-35,23;-44,21;-35,23;29,24;11,02;29,24;11,02;0;0;
12487;-10,34;-51,17;-10,34;-51,17;18,4;12,03;18,4;12,03;0;0;
12505;-4,34;-16,16;-4,34;-16,16;14,67;10,67;14,67;10,67;0;0;
12523;87,74;-45,03;87,74;-45,03;15,29;10,89;15,29;10,89;0;0;
12539;-12,37;-59,64;-12,37;-59,64;23,99;11,13;23,99;11,13;0;0;
12557;-34,21;-30,71;-34,21;-30,71;25,43;9,58;25,43;9,58;0;0;
12574;3,76;-60;3,76;-60;28,48;10,59;28,48;10,59;0;0;
12589;3,76;-60;3,76;-60;31,91;11,17;31,91;11,17;0;0;
12608;-30,98;-32,26;-30,98;-32,26;30,7;9,75;30,7;9,75;0;0;
12626;-12,18;-50,93;-12,18;-50,93;24,19;9,73;24,19;9,73;0;0;
12643;-33,91;-29,37;-33,91;-29,37;13,68;9,42;13,68;9,42;0;0;
12662;-55,33;-42,76;-55,33;-42,76;17,32;8,87;17,32;8,87;0;0;
12682;-38,11;-45,47;-38,11;-45,47;19,21;7,17;19,21;7,17;0;0;
12699;-26,55;-53;-26,55;-53;18,39;7,38;18,39;7,38;0;0;
12717;-7,4;-28,9;-7,4;-28,9;19,06;8,05;19,06;8,05;0;0;
12738;-31,97;-49,41;-31,97;-49,41;16,56;7,82;16,56;7,82;0;0;
12755;-21,44;-50,78;-21,44;-50,78;10,11;8,85;10,11;8,85;0;0;
12770;-22,91;-31,24;-22,91;-31,24;5,38;9,27;5,38;9,27;0;0;
12790;-21,48;-29,59;-21,48;-29,59;4,53;8,12;4,53;8,12;0;0;
12807;-21,48;-29,59;-21,48;-29,59;3,79;7,77;3,79;7,77;0;0;
12826;-33,36;-24,12;-33,36;-24,12;6,4;8,55;6,4;8,55;0;0;
12844;-17,44;-52,35;-17,44;-52,35;6,37;7,45;6,37;7,45;0;0;
12863;-24,34;-42,75;-24,34;-42,75;6,41;7,23;6,41;7,23;0;0;
12884;-31,68;-43,17;-31,68;-43,17;6,46;7,74;6,46;7,74;0;0;
12901;-26,46;-47,33;-26,46;-47,33;6,34;7,58;6,34;7,58;0;0;
12925;-20,16;-34,15;-20,16;-34,15;5,27;7,46;5,27;7,46;0;0;
12943;-25,14;-47,33;-25,14;-47,33;4,35;7,07;4,35;7,07;0;0;
12962;-17,21;-46,62;-17,21;-46,62;4,39;6,08;4,39;6,08;0;0;
12978;-30,18;11,32;-30,18;11,32;5,75;6,7;5,75;6,7;0;0;
12997;-34,46;-50,11;-34,46;-50,11;5,74;11,96;5,74;11,96;0;0;
13014;-21,41;-63,45;-21,41;-63,45;5,5;17,65;5,5;17,65;0;0;
13032;-24,34;-45,48;-24,34;-45,48;5,81;21,94;5,81;21,94;0;0;
13050;-24,34;-45,48;-24,34;-45,48;5,74;26,41;5,74;26,41;0;0;
13067;-24,49;-50,53;-24,49;-50,53;4,88;27,14;4,88;27,14;0;0;
13085;-21,49;-42,32;-21,49;-42,32;4,62;24,01;4,62;24,01;0;0;
13102;-22,78;-78,35;-22,78;-78,35;4,38;19,88;4,38;19,88;0;0;
13120;-23,27;-66,32;-23,27;-66,32;4,4;24,16;4,4;24,16;0;0;
13138;-23,8;-66,21;-23,8;-66,21;3,84;25,4;3,84;25,4;0;0;
13156;-2,92;-53,02;-2,92;-53,02;4,65;34,1;4,65;34,1;0;0;
13173;-30,15;-51,37;-30,15;-51,37;5,22;34,5;5,22;34,5;0;0;
13192;-24,37;-28,33;-24,37;-28,33;5,51;36,7;5,51;36,7;0;0;
13210;-24,37;-28,33;-24,37;-28,33;5,87;32,34;5,87;32,34;0;0;
13227;-22,2;-30,48;-22,2;-30,48;6,43;24,16;6,43;24,16;0;0;
13246;-29,35;-52,17;-29,35;-52,17;6,79;18,16;6,79;18,16;0;0;
13264;-21,56;-61,52;-21,56;-61,52;6,54;17,19;6,54;17,19;0;0;
13282;-30,44;-60,8;-30,44;-60,8;6,59;22,67;6,59;22,67;0;0;
13299;-19,52;-50,21;-19,52;-50,21;6,33;24,34;6,33;24,34;0;0;
13319;-32,01;-3,28;-32,01;-3,28;6,22;38,96;6,22;38,96;0;0;
13335;-16,6;-78,83;-16,6;-78,83;6,38;44,15;6,38;44,15;0;0;
13354;-23,03;-71,13;-23,03;-71,13;6,07;45,12;6,07;45,12;0;0;
13372;-30,12;-48,85;-30,12;-48,85;5,25;38,42;5,25;38,42;0;0;
13388;-30,12;-48,85;-30,12;-48,85;4,59;32,27;4,59;32,27;0;0;
13406;-3,93;-52,81;-3,93;-52,81;6,11;26,49;6,11;26,49;0;0;
13426;-51,99;-27,62;-51,99;-27,62;13,55;16,02;13,55;16,02;0;0;
13443;-22,16;-35,76;-22,16;-35,76;20,4;10,79;20,4;10,79;0;0;
13463;-56,39;-43,83;-56,39;-43,83;25,51;12,17;25,51;12,17;1;0;
13483;-81,53;-49,65;-81,53;-49,65;33,64;11,74;33,64;11,74;1;0;
13502;-29,2;-37,46;-29,2;-37,46;47,44;10,63;47,44;10,63;1;0;
13520;-62,8;-43,85;-62,8;-43,85;48,39;10,19;48,39;10,19;1;0;
13537;27,06;-50,91;27,06;-50,91;40,12;9,8;40,12;9,8;1;0;
13557;-17,03;-40,31;-17,03;-40,31;40,12;9,36;40,12;9,36;1;0;
13574;-23,13;-45,6;-23,13;-45,6;41,44;8,51;41,44;8,51;1;0;
13593;-65,73;-35,38;-65,73;-35,38;41,47;8,49;41,47;8,49;1;0;
13611;6,09;-43,07;6,09;-43,07;32,45;7,95;32,45;7,95;1;0;
13632;-20,35;-35,89;-20,35;-35,89;27,35;8,39;27,35;8,39;1;0;
13649;-20,35;-35,89;-20,35;-35,89;27,21;7,45;27,21;7,45;1;0;
13666;-7,83;-31,5;-7,83;-31,5;25,16;6,45;25,16;6,45;1;0;
13685;-84,38;-51,41;-84,38;-51,41;24,96;6,31;24,96;6,31;1;0;
13702;-84,38;-51,41;-84,38;-51,41;25,87;6,88;25,87;6,88;1;0;
13721;-11,5;-36,8;-11,5;-36,8;28,6;7,43;28,6;7,43;1;0;
13737;47,97;-49,11;47,97;-49,11;35,3;8,55;35,3;8,55;1;0;
13754;-161,51;-21,48;-161,51;-21,48;36,96;9,29;36,96;9,29;1;0;
13771;-40,28;-41,5;-40,28;-41,5;41,12;9,83;41,12;9,83;1;0;
13787;-40,28;-41,5;-40,28;-41,5;42,3;9,77;42,3;9,77;1;0;
13806;-89,48;-46,23;-89,48;-46,23;57,62;9,81;57,62;9,81;1;0;
13824;49,47;-28,57;49,47;-28,57;63,89;10,42;63,89;10,42;0;0;
13841;10,94;-37,02;10,94;-37,02;74,33;10,22;74,33;10,22;0;0;
13861;-39,54;-36,95;-39,54;-36,95;80,53;9,39;80,53;9,39;0;0;
13880;-70,14;-66,75;-70,14;-66,75;85,23;10,37;85,23;10,37;0;0;
13900;-38;-26,12;-38;-26,12;76,29;10,7;76,29;10,7;0;0;
13919;-82,31;-42,53;-82,31;-42,53;63,72;9,26;63,72;9,26;0;0;
13936;37,43;-66,45;37,43;-66,45;72,79;8,32;72,79;8,32;0;0;
13954;-30,03;-35,97;-30,03;-35,97;61,83;8,73;61,83;8,73;0;0;
13973;-135,58;-44,22;-135,58;-44,22;72,42;8,62;72,42;8,62;0;0;
13994;163,07;-38,97;163,07;-38,97;75,57;7,27;75,57;7,27;0;0;
14017;-61,52;-49,05;-61,52;-49,05;77,75;8,24;77,75;8,24;0;0;
14034;185,61;-43,73;185,61;-43,73;74,91;7,75;74,91;7,75;0;0;
14052;-34,05;-32,87;-34,05;-32,87;62,99;6,88;62,99;6,88;0;0;
14071;-18,6;-25,84;-18,6;-25,84;55,54;7,26;55,54;7,26;0;0;
14089;-18,6;-25,84;-18,6;-25,84;44,62;7,99;44,62;7,99;0;0;
14107;166,62;-33,79;166,62;-33,79;45,62;7,74;45,62;7,74;0;0;
14123;3,85;-35,44;3,85;-35,44;50,37;7,35;50,37;7,35;0;0;
14141;-100,12;-29,07;-100,12;-29,07;50,58;7,22;50,58;7,22;0;0;
14160;33,49;-33,29;33,49;-33,29;53,58;8,27;53,58;8,27;0;0;
14180;-62,75;-35,41;-62,75;-35,41;44,89;7,49;44,89;7,49;0;0;
14199;-78,45;-47,53;-78,45;-47,53;34,94;7,82;34,94;7,82;0;0;
14216;-52,56;-30,5;-52,56;-30,5;33,68;8,39;33,68;8,39;0;0;
14234;-40,01;-31,05;-40,01;-31,05;30,95;7,38;30,95;7,38;0;0;
14256;-16,49;-37,46;-16,49;-37,46;31,86;6,34;31,86;6,34;0;0;
14274;-29,3;-48,01;-29,3;-48,01;39,29;5,73;39,29;5,73;0;0;
14291;-48,14;-34,63;-48,14;-34,63;41,98;6,37;41,98;6,37;0;0;
14308;-48,14;-34,63;-48,14;-34,63;42,88;5,51;42,88;5,51;0;0;
14324;-15,11;-30,92;-15,11;-30,92;42,57;5,13;42,57;5,13;0;0;
14341;-22,41;-44,11;-22,41;-44,11;36,58;5,47;36,58;5,47;0;0;
14359;-20,33;-37,22;-20,33;-37,22;32,63;5,9;32,63;5,9;0;0;
14376;-29,96;-33,46;-29,96;-33,46;21,69;5,38;21,69;5,38;0;0;
14394;-68,66;-41,63;-68,66;-41,63;25,71;6,13;25,71;6,13;1;0;
14413;9,58;-31,2;9,58;-31,2;26,35;6,08;26,35;6,08;1;0;
14434;-28,14;-41,34;-28,14;-41,34;25,92;5,59;25,92;5,59;1;0;
14453;-24,53;-50,4;-24,53;-50,4;27,62;6,11;27,62;6,11;1;0;
14471;-22,52;-46,77;-22,52;-46,77;27,42;7,68;27,42;7,68;1;0;
14489;-22,52;-46,77;-22,52;-46,77;22,66;8;22,66;8;1;0;
14506;-18,49;-28,68;-18,49;-28,68;10,13;8,61;10,13;8,61;1;0;
14523;-29,28;-37,51;-29,28;-37,51;5,89;8,33;5,89;8,33;1;0;
14539;-37,9;-38,55;-37,9;-38,55;11,18;9,25;11,18;9,25;1;0;
14563;19,87;-33,84;19,87;-33,84;15,08;7,38;15,08;7,38;1;0;
14580;-6,4;-43,39;-6,4;-43,39;23,85;6,39;23,85;6,39;1;0;
14598;-115,06;-37,56;-115,06;-37,56;30,34;5,52;30,34;5,52;1;0;
14620;-28,65;-37,9;-28,65;-37,9;32,79;5,89;32,79;5,89;1;0;
14637;-20,51;-34,24;-20,51;-34,24;31,96;5,91;31,96;5,91;1;0;
14654;-20,99;-29,13;-20,99;-29,13;24,86;5,75;24,86;5,75;1;0;
14672;-34,91;-36,19;-34,91;-36,19;19,91;6,48;19,91;6,48;1;0;
14689;-34,91;-36,19;-34,91;-36,19;13,05;7,58;13,05;7,58;1;0;
14705;-14,37;-29,12;-14,37;-29,12;6,58;8,78;6,58;8,78;1;0;
14722;-26,08;-37,53;-26,08;-37,53;5,5;8,8;5,5;8,8;1;0;
14739;-68,88;-44,05;-68,88;-44,05;6,95;9,21;6,95;9,21;1;0;
14757;11,43;-45,44;11,43;-45,44;21,19;8,99;21,19;8,99;0;0;
14774;-95,02;-26,93;-95,02;-26,93;27,38;8,93;27,38;8,93;0;0;
14793;-41,62;-35,65;-41,62;-35,65;29,84;8,06;29,84;8,06;0;0;
14813;-90,23;-33,73;-90,23;-33,73;36,15;7,12;36,15;7,12;0;0;
14833;-87,25;-27,07;-87,25;-27,07;49,09;6,38;49,09;6,38;0;0;
14854;93,07;-45,03;93,07;-45,03;57,64;5,99;57,64;5,99;0;0;
14874;-37,73;-54,05;-37,73;-54,05;55,62;6,55;55,62;6,55;0;0;
14890;-46,13;-41,58;-46,13;-41,58;64,87;6,34;64,87;6,34;0;0;
14910;-46,13;-41,58;-46,13;-41,58;72,2;6,39;72,2;6,39;0;0;
14932;-25,37;-39,09;-25,37;-39,09;67,52;7,35;67,52;7,35;0;0;
14952;-126,5;-41,69;-126,5;-41,69;67,2;7,31;67,2;7,31;0;0;
14969;-126,5;-41,69;-126,5;-41,69;62,27;7,3;62,27;7,3;0;0;
14986;-119,26;-37,71;-119,26;-37,71;58,36;6,09;58,36;6,09;0;0;
15004;-17,66;-28,49;-17,66;-28,49;55,74;6,49;55,74;6,49;0;0;
15021;-146,08;-35,5;-146,08;-35,5;55,15;6,6;55,15;6,6;0;0;
15040;2,43;-45,77;2,43;-45,77;57,56;7,74;57,56;7,74;0;0;
15058;-25,31;-48,08;-25,31;-48,08;49,9;7,6;49,9;7,6;0;0;
15076;-78,19;-42,23;-78,19;-42,23;50,29;8,09;50,29;8,09;0;0;
15093;78,52;-36,22;78,52;-36,22;53,55;8,18;53,55;8,18;0;0;
15111;-59,72;-34,98;-59,72;-34,98;50,55;7,76;50,55;7,76;0;0;
15128;-59,72;-34,98;-59,72;-34,98;44,26;7,27;44,26;7,27;0;0;
15144;-14,42;-32,8;-14,42;-32,8;44,42;6,61;44,42;6,61;0;0;
15161;-17,17;-43,49;-17,17;-43,49;41,16;5,74;41,16;5,74;0;0;
15178;16,64;-36,74;16,64;-36,74;34,66;5,14;34,66;5,14;0;0;
15195;-38,97;-37,42;-38,97;-37,42;28,74;4,71;28,74;4,71;0;0;
15215;-34,82;-37,89;-34,82;-37,89;28,8;4,23;28,8;4,23;0;0;
15234;-124,74;-33,2;-124,74;-33,2;30,98;4,35;30,98;4,35;0;0;
15249;-124,74;-33,2;-124,74;-33,2;28,9;4,35;28,9;4,35;0;0;
15268;-22,51;-41,96;-22,51;-41,96;28,36;4,07;28,36;4,07;0;0;
15285;-22,51;-41,96;-22,51;-41,96;24,12;4,19;24,12;4,19;0;0;
15302;-19;-49,09;-19;-49,09;19,86;5,49;19,86;5,49;0;0;
15318;-50,16;-45,11;-50,16;-45,11;20,2;6,14;20,2;6,14;0;0;
15336;-30,32;-40,21;-30,32;-40,21;14,56;6,07;14,56;6,07;0;0;
15357;-26,31;-36,65;-26,31;-36,65;8,84;5,75;8,84;5,75;0;0;
15374;-24,87;-42,77;-24,87;-42,77;9,03;5,51;9,03;5,51;0;0;
15395;-22,68;-42,07;-22,68;-42,07;9,04;4,77;9,04;4,77;1;0;
15412;-30,14;-41,11;-30,14;-41,11;7,83;3,89;7,83;3,89;1;0;
15428;-30,14;-41,11;-30,14;-41,11;4,4;3,71;4,4;3,71;1;0;
15448;-23,79;-33;-23,79;-33;3,85;3,71;3,85;3,71;1;0;
15466;-26,22;-25,91;-26,22;-25,91;3,46;4,34;3,46;4,34;1;0;
15484;-11,43;-32,53;-11,43;-32,53;3,6;5,46;3,6;5,46;1;0;
15500;-23,78;-34,16;-23,78;-34,16;4,5;6,58;4,5;6,58;1;0;
15518;-20,5;-36,14;-20,5;-36,14;5,17;6,24;5,17;6,24;1;0;
15536;-22,86;-51,06;-22,86;-51,06;4,88;5,81;4,88;5,81;1;0;
15554;-17,52;-39,1;-17,52;-39,1;5,16;4,98;5,16;4,98;1;0;
15570;-20,8;-35,58;-20,8;-35,58;5,32;3,97;5,32;3,97;1;0;
15589;-20,8;-35,58;-20,8;-35,58;4,15;3,34;4,15;3,34;1;0;
15607;-30,15;-38,04;-30,15;-38,04;3,55;2,65;3,55;2,65;1;0;
15625;-26,96;-34,97;-26,96;-34,97;3,15;2,85;3,15;2,85;1;0;
15642;-23,16;-35,51;-23,16;-35,51;3,08;2,96;3,08;2,96;1;0;
15662;-29,86;-50,32;-29,86;-50,32;2,86;3,45;2,86;3,45;1;0;
15678;-25,31;-32,31;-25,31;-32,31;5,76;3,94;5,76;3,94;1;0;
15695;-18,3;-46,23;-18,3;-46,23;6,56;4,27;6,56;4,27;1;0;
15712;-28,16;-42,31;-28,16;-42,31;6,79;4,64;6,79;4,64;1;0;
15734;-27,81;-35,29;-27,81;-35,29;6,85;4,71;6,85;4,71;1;0;
15751;-20;-46,14;-20;-46,14;7,05;5,66;7,05;5,66;0;0;
15771;-23,55;-44,59;-23,55;-44,59;4,62;5,99;4,62;5,99;0;0;
15788;-23,55;-44,59;-23,55;-44,59;3,91;6,54;3,91;6,54;0;0;
15808;-22,05;-75,75;-22,05;-75,75;3,72;9,48;3,72;9,48;0;0;
15824;-32,16;-44,3;-32,16;-44,3;4,07;10,25;4,07;10,25;0;0;
15844;-21,81;-31,82;-21,81;-31,82;4,61;10,36;4,61;10,36;0;0;
15862;-27,37;-42,96;-27,37;-42,96;5,19;9,94;5,19;9,94;0;0;
15885;47,01;-26,99;47,01;-26,99;10,64;9,93;10,64;9,93;0;0;
15905;-39,86;-52,32;-39,86;-52,32;15,57;9,06;15,57;9,06;0;0;
15926;-27,9;-39,3;-27,9;-39,3;19,09;5,93;19,09;5,93;0;0;
15944;-10,3;-38,83;-10,3;-38,83;23,19;6,49;23,19;6,49;0;0;
15961;5;-44,85;5;-44,85;25,76;6,51;25,76;6,51;0;0;
15978;-29,54;-48,81;-29,54;-48,81;25,14;6,53;25,14;6,53;0;0;
15997;-29,35;-38,5;-29,35;-38,5;13,61;4,88;13,61;4,88;0;0;
16017;-19,84;-43,21;-19,84;-43,21;10,04;4,57;10,04;4,57;0;0;
16035;-21,67;-29,51;-21,67;-29,51;6,67;4,21;6,67;4,21;0;0;
16052;41,29;-46,5;41,29;-46,5;12,18;4,38;12,18;4,38;0;0;
16069;41,29;-46,5;41,29;-46,5;19,81;4,36;19,81;4,36;0;0;
16085;-17,83;-46,34;-17,83;-46,34;27,58;4,6;27,58;4,6;0;0;
16106;-16,8;-44,39;-16,8;-44,39;28,81;4,65;28,81;4,65;0;0;
16125;-23,95;-32,42;-23,95;-32,42;28,77;5,58;28,77;5,58;0;0;
16145;-28,31;-32,3;-28,31;-32,3;26,15;5,91;26,15;5,91;0;0;
16164;-21,48;-36,22;-21,48;-36,22;18,2;5,43;18,2;5,43;0;0;
16181;4,05;-53,33;4,05;-53,33;10,74;6,31;10,74;6,31;0;0;
16206;-145,42;-39,21;-145,42;-39,21;14,53;6,33;14,53;6,33;0;0;
16223;-24,89;-52,34;-24,89;-52,34;19,61;6,45;19,61;6,45;0;0;
16240;-13,7;-35,79;-13,7;-35,79;20,81;6,18;20,81;6,18;0;0;
16258;-19,37;-37,81;-19,37;-37,81;21,5;5,35;21,5;5,35;0;0;
16278;-30,07;-32,38;-30,07;-32,38;21,2;5,58;21,2;5,58;0;0;
16298;-24,16;-36,82;-24,16;-36,82;14,85;5,48;14,85;5,48;0;0;
16315;-43,51;-44,9;-43,51;-44,9;8,22;5,16;8,22;5,16;0;0;
16334;95,68;-48,77;95,68;-48,77;19,4;6,36;19,4;6,36;0;0;
16350;-78,73;-33,26;-78,73;-33,26;27,81;6,89;27,81;6,89;0;0;
16367;-78,73;-33,26;-78,73;-33,26;37,39;7,33;37,39;7,33;0;0;
16384;-28,9;-32,28;-28,9;-32,28;43,22;7,41;43,22;7,41;0;0;
16402;-32,14;-35,89;-32,14;-35,89;43,36;7,32;43,36;7,32;0;0;
16418;-16,69;-33,52;-16,69;-33,52;38,92;5,7;38,92;5,7;0;0;
16435;-33,74;-43,79;-33,74;-43,79;25,67;4,7;25,67;4,7;0;0;
16455;-63,18;-31,83;-63,18;-31,83;21,79;4,73;21,79;4,73;0;0;
16475;-91,76;-47,15;-91,76;-47,15;27,23;5;27,23;5;0;0;
16492;87,78;-43,51;87,78;-43,51;36,75;5,18;36,75;5,18;0;0;
16509;87,78;-43,51;87,78;-43,51;47,32;5,44;47,32;5,44;0;0;
16525;3,41;-30,68;3,41;-30,68;51,55;6,61;51,55;6,61;0;0;
16541;-40,41;-46,69;-40,41;-46,69;56,47;6,53;56,47;6,53;0;0;
16560;-29,22;-26,13;-29,22;-26,13;41,14;7,12;41,14;7,12;0;0;
16579;33,45;-49,24;33,45;-49,24;34,3;6,92;34,3;6,92;0;0;
16597;-35,14;-38,7;-35,14;-38,7;28,44;7,26;28,44;7,26;0;0;
16616;70,34;-37,98;70,34;-37,98;28,67;7,3;28,67;7,3;0;0;
16634;-78,57;-41,25;-78,57;-41,25;27,5;5,95;27,5;5,95;0;0;
16653;-38,29;-31,02;-38,29;-31,02;26,64;5,67;26,64;5,67;0;0;
16674;-32,54;-46;-32,54;-46;29,58;4,44;29,58;4,44;0;0;
16693;-19,96;-33,43;-19,96;-33,43;24,66;4,63;24,66;4,63;0;0;
16714;-13,48;-35,66;-13,48;-35,66;21,65;4,41;21,65;4,41;0;0;
16732;-43,47;-45,01;-43,47;-45,01;15,51;4,44;15,51;4,44;0;0;
16751;-15,68;-38,64;-15,68;-38,64;14,87;5,21;14,87;5,21;0;0;
16769;-15,68;-38,64;-15,68;-38,64;16,58;5,94;16,58;5,94;0;0;
16787;-38,53;-37,41;-38,53;-37,41;18,18;6,5;18,18;6,5;0;0;
16806;-4,23;-35,78;-4,23;-35,78;20,36;5,88;20,36;5,88;0;0;
16823;-39,86;-33,48;-39,86;-33,48;20,58;5,68;20,58;5,68;0;0;
16840;-27,64;-39,39;-27,64;-39,39;17,02;5,28;17,02;5,28;0;0;
16859;-81,38;-47,98;-81,38;-47,98;22,45;5,69;22,45;5,69;0;0;
16877;-85,28;-36,29;-85,28;-36,29;29,43;4,72;29,43;4,72;0;0;
16896;71,52;-40,2;71,52;-40,2;31,75;4,75;31,75;4,75;0;0;
16914;-89,23;-43,31;-89,23;-43,31;39,33;4,84;39,33;4,84;0;0;
16932;106,28;-41,32;106,28;-41,32;49,44;4,96;49,44;4,96;0;0;
16949;106,28;-41,32;106,28;-41,32;59,14;5,43;59,14;5,43;0;0;
16966;-13,09;-40,6;-13,09;-40,6;50,13;4,71;50,13;4,71;0;0;
16983;-105,73;-57,63;-105,73;-57,63;52,43;5,08;52,43;5,08;0;0;
17001;-20,13;-44,4;-20,13;-44,4;52,2;6,11;52,2;6,11;0;0;
17019;-60,13;-55,57;-60,13;-55,57;48,35;6,26;48,35;6,26;0;0;
17038;-49,33;-44,99;-49,33;-44,99;45,65;5,98;45,65;5,98;0;0;
17056;-19,11;-37,49;-19,11;-37,49;36,9;6,68;36,9;6,68;0;0;
17073;-23,77;-46,73;-23,77;-46,73;33,15;6,89;33,15;6,89;0;0;
17091;-35,19;-40,36;-35,19;-40,36;22,66;5,63;22,66;5,63;0;0;
17108;-35,19;-40,36;-35,19;-40,36;17,81;5,21;17,81;5,21;0;0;
17127;20,98;-43,51;20,98;-43,51;15,77;4,96;15,77;4,96;0;0;
17145;-28,21;-43,31;-28,21;-43,31;12,02;4,96;12,02;4,96;0;0;
17163;-52,34;-39,08;-52,34;-39,08;15,09;4,14;15,09;4,14;0;0;
17184;-30,34;-38,96;-30,34;-38,96;15,02;3,99;15,02;3,99;0;0;
17202;-30,84;-35,18;-30,84;-35,18;14,24;3,93;14,24;3,93;0;0;
17220;-22,8;-38,92;-22,8;-38,92;12,01;3,67;12,01;3,67;0;0;
17240;41,92;-53,31;41,92;-53,31;15,2;4,47;15,2;4,47;0;0;
17259;-40,03;-28,56;-40,03;-28,56;16,4;5,39;16,4;5,39;0;0;
17278;-26,39;-38,79;-26,39;-38,79;14,08;5,01;14,08;5,01;1;0;
17296;-13,65;-38,16;-13,65;-38,16;14,11;5,24;14,11;5,24;1;0;
17312;-28,41;-35,77;-28,41;-35,77;14,36;5,8;14,36;5,8;1;0;
17331;-24,6;-40,73;-24,6;-40,73;13,66;6,56;13,66;6,56;1;0;
17348;-24,6;-40,73;-24,6;-40,73;5,01;6,19;5,01;6,19;1;0;
17363;-24,75;-45,99;-24,75;-45,99;3,83;5,52;3,83;5,52;1;0;
17379;-27,53;-35;-27,53;-35;4,34;5,63;4,34;5,63;1;0;
17400;-20,42;-27,44;-20,42;-27,44;3,33;5,91;3,33;5,91;1;0;
17416;-22,56;-43,3;-22,56;-43,3;3,1;6,14;3,1;6,14;1;0;
17433;-25,11;-36,59;-25,11;-36,59;2,9;5,29;2,9;5,29;1;0;
17451;-16,14;-40,77;-16,14;-40,77;3,64;4,81;3,64;4,81;1;0;
17468;-16,14;-40,77;-16,14;-40,77;4,41;4,44;4,41;4,44;1;0;
17485;-31,29;-30,12;-31,29;-30,12;4,31;4,32;4,31;4,32;1;0;
17504;-25,75;-46,02;-25,75;-46,02;4,61;5,17;4,61;5,17;1;0;
17522;-19,91;-42,58;-19,91;-42,58;4,93;5,32;4,93;5,32;1;0;
17539;-12,52;-43,39;-12,52;-43,39;5,62;5,12;5,62;5,12;1;0;
17557;-25,67;-30,52;-25,67;-30,52;5,32;5,45;5,32;5,45;1;0;
17574;-28,2;-35,24;-28,2;-35,24;6,81;6,26;6,81;6,26;1;0;
17592;-24,03;-34,19;-24,03;-34,19;6,45;5,04;6,45;5,04;1;0;
17609;-24,03;-34,19;-24,03;-34,19;6,47;4,58;6,47;4,58;1;0;
17628;-25,25;-35,83;-25,25;-35,83;6,25;4,42;6,25;4,42;1;0;
17645;-37,01;-40,89;-37,01;-40,89;5,65;4,68;5,65;4,68;0;0;
17662;-17,78;-47,8;-17,78;-47,8;5,33;4;5,33;4;0;0;
17684;-19,08;-35,97;-19,08;-35,97;3,93;4,68;3,93;4,68;0;0;
17701;-22,6;-48,16;-22,6;-48,16;3,87;5,13;3,87;5,13;0;0;
17722;-25,33;-36,92;-25,33;-36,92;4;5,03;4;5,03;0;0;
17739;-24,78;-50,14;-24,78;-50,14;4;5,41;4;5,41;0;0;
17756;-28,16;-35,59;-28,16;-35,59;3,23;5,85;3,23;5,85;0;0;
17773;-23,89;-23,11;-23,89;-23,11;3,18;5,87;3,18;5,87;0;0;
17790;-32,55;-37,92;-32,55;-37,92;3,39;6,45;3,39;6,45;0;0;
17808;-32,55;-37,92;-32,55;-37,92;3,78;6,82;3,78;6,82;0;0;
17826;-26,22;-42,43;-26,22;-42,43;3,7;6,91;3,7;6,91;0;0;
17852;-14,73;-45,11;-14,73;-45,11;4,23;6,18;4,23;6,18;0;0;
17873;-26,83;-41,31;-26,83;-41,31;4,26;6,06;4,26;6,06;0;0;
17890;-27,58;-40,25;-27,58;-40,25;4,66;4,92;4,66;4,92;0;0;
17912;-27,51;-47,58;-27,51;-47,58;4,26;5,05;4,26;5,05;0;0;
17931;-29,93;-44,09;-29,93;-44,09;4,28;4,75;4,28;4,75;0;0;
17947;-29,93;-44,09;-29,93;-44,09;4,64;4,88;4,64;4,88;0;0;
17964;-26,94;-38,04;-26,94;-38,04;4,51;4,71;4,51;4,71;0;0;
17983;28,44;-46,18;28,44;-46,18;7,71;4,99;7,71;4,99;0;0;
18001;-78,36;-37,99;-78,36;-37,99;14,15;4,82;14,15;4,82;0;0;
18018;32,17;-42,46;32,17;-42,46;21,27;3,59;21,27;3,59;0;0;
18036;11,93;-37,84;11,93;-37,84;26,03;4,02;26,03;4,02;0;0;
18055;-15,3;-45,06;-15,3;-45,06;29,34;4,02;29,34;4,02;0;0;
18075;-34,07;-39,28;-34,07;-39,28;27,53;3,87;27,53;3,87;0;0;
18093;-23,62;-33,68;-23,62;-33,68;24,11;3,22;24,11;3,22;0;0;
18110;-70,32;-38,42;-70,32;-38,42;20,86;3,33;20,86;3,33;0;0;
18128;-70,32;-38,42;-70,32;-38,42;17,2;3,23;17,2;3,23;0;0;
18144;-33,23;-25,23;-33,23;-25,23;14,7;3,68;14,7;3,68;0;0;
18163;31,55;-44,25;31,55;-44,25;17,97;4,58;17,97;4,58;0;0;
18180;-17,77;-40,29;-17,77;-40,29;20,42;4,76;20,42;4,76;0;0;
18199;-29,87;-31,42;-29,87;-31,42;19,12;4,83;19,12;4,83;0;0;
18217;-19,14;-28,26;-19,14;-28,26;16,3;5,5;16,3;5,5;0;0;
18234;-20,23;-47,68;-20,23;-47,68;13,37;5,78;13,37;5,78;0;0;
18251;-15,93;-35,55;-15,93;-35,55;11,07;4,68;11,07;4,68;0;0;
18267;-15,93;-35,55;-15,93;-35,55;5,01;4,25;5,01;4,25;0;0;
18288;-22,29;-39,91;-22,29;-39,91;5,46;4,57;5,46;4,57;0;0;
18305;-26,47;-39,9;-26,47;-39,9;7,64;4,32;7,64;4,32;0;0;
18323;-28,15;-40,66;-28,15;-40,66;7,55;3,62;7,55;3,62;0;0;
18341;-18,61;-45,5;-18,61;-45,5;7,43;3,95;7,43;3,95;0;0;
18360;-31,75;-40,45;-31,75;-40,45;7,64;4,5;7,64;4,5;0;0;
18378;-23,79;-38,38;-23,79;-38,38;7,16;4,34;7,16;4,34;0;0;
18396;-22,18;-44,8;-22,18;-44,8;4,22;4,22;4,22;4,22;0;0;
18414;-23,52;-38,7;-23,52;-38,7;4,16;4,38;4,16;4,38;0;0;
18431;-22,53;-38,82;-22,53;-38,82;3,77;4,32;3,77;4,32;0;0;
18450;-22,53;-38,82;-22,53;-38,82;3,33;4;3,33;4;0;0;
18467;-11,62;-44,55;-11,62;-44,55;3,02;4,08;3,02;4,08;0;0;
18485;-19,39;-40,04;-19,39;-40,04;3,44;4,25;3,44;4,25;0;0;
18502;-22,08;-38,51;-22,08;-38,51;2,94;4,71;2,94;4,71;0;0;
18521;-27,11;-47,59;-27,11;-47,59;2,8;4,46;2,8;4,46;0;0;
18538;-21,34;-38,12;-21,34;-38,12;3,05;4,39;3,05;4,39;0;0;
18555;-17,96;-35,88;-17,96;-35,88;3,32;4,04;3,32;4,04;0;0;
18573;-21,09;-48,21;-21,09;-48,21;2,65;8,01;2,65;8,01;0;0;
18594;-21,44;-42,2;-21,44;-42,2;2,62;8,22;2,62;8,22;0;0;
18614;-36,62;-35,41;-36,62;-35,41;2,8;7,77;2,8;7,77;0;0;
18633;-20,26;-39,78;-20,26;-39,78;3,35;7,34;3,35;7,34;0;0;
18648;-20,26;-39,78;-20,26;-39,78;3,85;7,51;3,85;7,51;0;0;
18665;-23,16;-48,77;-23,16;-48,77;4,11;7,4;4,11;7,4;0;0;
18683;-23,16;-49,6;-23,16;-49,6;4,25;11,29;4,25;11,29;0;0;
18699;-25,88;-57,39;-25,88;-57,39;4,76;12,93;4,76;12,93;0;0;
18717;-22;-38,35;-22;-38,35;4,74;13,13;4,74;13,13;0;0;
18735;-31,47;-39,92;-31,47;-39,92;4,4;12,9;4,4;12,9;0;0;
18752;-32,23;-32,33;-32,23;-32,33;3,87;12,81;3,87;12,81;0;0;
18770;-23,95;-47,16;-23,95;-47,16;4,1;7,58;4,1;7,58;0;0;
18787;-23,95;-47,16;-23,95;-47,16;4,13;5,82;4,13;5,82;0;0;
18804;-13,94;-118,13;-13,94;-118,13;4,36;7,98;4,36;7,98;0;0;
18823;-19,82;-55,05;-19,82;-55,05;4,88;16,02;4,88;16,02;0;0;
18839;-24,43;-14,31;-24,43;-14,31;4,82;32,57;4,82;32,57;0;0;
18857;-29,64;-61,91;-29,64;-61,91;4,46;36,16;4,46;36,16;0;0;
18875;-29,25;-29,58;-29,25;-29,58;4,85;35,49;4,85;35,49;0;0;
18893;-26,84;-96,36;-26,84;-96,36;4,61;41,64;4,61;41,64;0;0;
18909;-26,84;-96,36;-26,84;-96,36;3,82;40,33;3,82;40,33;0;0;
18928;-24,1;-17,39;-24,1;-17,39;3,69;39,23;3,69;39,23;0;0;
18946;-29,98;34,7;-29,98;34,7;4,88;35,08;4,88;35,08;0;0;
18962;-24,25;-86,77;-24,25;-86,77;4,97;36,89;4,97;36,89;0;0;
18979;-14,06;-121,46;-14,06;-121,46;5,22;44,79;5,22;44,79;0;0;
18999;-30,82;-49,82;-30,82;-49,82;6,16;41,29;6,16;41,29;0;0;
19017;-36,48;-102,61;-36,48;-102,61;6,56;47,57;6,56;47,57;0;0;
19038;-43,72;-16;-43,72;-16;7,66;47,93;7,66;47,93;0;0;
19062;-18,92;178,52;-18,92;178,52;7,76;60,82;7,76;60,82;0;0;
19087;-42,63;-17,83;-42,63;-17,83;8,84;59,03;8,84;59,03;0;0;
19112;-12,79;9,15;-12,79;9,15;8,82;65,52;8,82;65,52;0;0;
19136;-18,74;-13,91;-18,74;-13,91;8,93;59,68;8,93;59,68;0;0;
19161;-12,12;-167,76;-12,12;-167,76;8,77;60,21;8,77;60,21;0;0;
19184;-15,86;-189,07;-15,86;-189,07;8,57;50,14;8,57;50,14;0;1;
19208;25,13;103,61;25,13;103,61;9,04;55,67;9,04;55,67;0;1;
19230;-8,86;-21,99;-8,86;-21,99;10,4;54,74;10,4;54,74;0;1;
19251;-16,54;-46,78;-16,54;-46,78;9,3;54,13;9,3;54,13;0;1;
19272;-31,14;24,87;-31,14;24,87;10,37;53,65;10,37;53,65;0;1;
19290;-11,97;-105,4;-11,97;-105,4;11,46;53,3;11,46;53,3;0;1;
19308;-11,97;-105,4;-11,97;-105,4;12,82;45,68;12,82;45,68;0;1;
19326;-15,06;86,06;-15,06;86,06;13,81;42,28;13,81;42,28;0;1;
19342;-6,35;-39,11;-6,35;-39,11;13,88;41,98;13,88;41,98;0;1;
19360;-16,55;-60,92;-16,55;-60,92;14,64;46,75;14,64;46,75;0;1;
19378;-21,84;-122;-21,84;-122;13,71;50,32;13,71;50,32;0;1;
19396;-28,24;-19,67;-28,24;-19,67;12,44;53,71;12,44;53,71;0;1;
19415;-19,25;-81,58;-19,25;-81,58;10,74;58,56;10,74;58,56;0;1;
19436;-45,14;-75,98;-45,14;-75,98;11,5;49;11,5;49;0;1;
19454;-24,64;-48,39;-24,64;-48,39;10,2;44,69;10,2;44,69;0;1;
19476;-45,31;-125,13;-45,31;-125,13;10,77;43,4;10,77;43,4;0;1;
19494;-26,14;-37,82;-26,14;-37,82;12,33;40,35;12,33;40,35;0;1;
19511;-30,04;-29,1;-30,04;-29,1;12,22;35,83;12,22;35,83;0;0;
19536;10,95;-14,29;10,95;-14,29;11,25;33,6;11,25;33,6;0;0;
19556;-16,93;11,38;-16,93;11,38;10,8;37,96;10,8;37,96;0;0;
19575;-21,81;34,73;-21,81;34,73;10,22;40,39;10,22;40,39;0;0;
19594;-52,3;-42,52;-52,3;-42,52;8,71;47,09;8,71;47,09;0;0;
19614;-16,39;-52,67;-16,39;-52,67;7,97;43,36;7,97;43,36;0;0;
19634;-25;67,7;-25;67,7;7,26;42,02;7,26;42,02;0;0;
19653;-27,43;72,76;-27,43;72,76;7,11;45,53;7,11;45,53;0;0;
19669;-27,43;72,76;-27,43;72,76;6,75;48,98;6,75;48,98;0;0;
19687;-25,93;-65,91;-25,93;-65,91;7,04;38,05;7,04;38,05;0;0;
19704;-13,88;-11,33;-13,88;-11,33;6,9;44,81;6,9;44,81;0;0;
19723;-15,52;-49,22;-15,52;-49,22;7,27;52,99;7,27;52,99;0;0;
19741;-38,8;-77,01;-38,8;-77,01;7,11;47,04;7,11;47,04;0;0;
19762;-10,18;31,79;-10,18;31,79;8,2;41;8,2;41;0;0;
19779;-37,33;-81,52;-37,33;-81,52;8,49;36,8;8,49;36,8;0;0;
19797;-28,19;-54,26;-28,19;-54,26;8,87;34,41;8,87;34,41;0;0;
19812;-25,89;8,26;-25,89;8,26;8,2;29,38;8,2;29,38;0;0;
19829;-25,89;8,26;-25,89;8,26;7,59;26,91;7,59;26,91;0;0;
19846;-38,22;-74,06;-38,22;-74,06;7,86;28,73;7,86;28,73;0;0;
19865;-15,2;-116,05;-15,2;-116,05;6,51;29,32;6,51;29,32;0;0;
19884;-3,62;27,71;-3,62;27,71;6,64;29,98;6,64;29,98;0;0;
19902;-24,8;-3,84;-24,8;-3,84;8,09;33,48;8,09;33,48;1;0;
19919;-24,08;-60,84;-24,08;-60,84;8,13;32,49;8,13;32,49;1;0;
19939;-26,23;-46,83;-26,23;-46,83;7,59;27,54;7,59;27,54;1;0;
19956;-22,04;-42,75;-22,04;-42,75;6,19;23,1;6,19;23,1;1;0;
19974;-13,9;-37,63;-13,9;-37,63;6,1;17,9;6,1;17,9;1;0;
19991;-12,29;-37,9;-12,29;-37,9;4,97;16,99;4,97;16,99;1;0;
20008;-12,29;-37,9;-12,29;-37,9;5,52;18,9;5,52;18,9;1;0;
20025;-40,83;-48,11;-40,83;-48,11;7,75;19,16;7,75;19,16;1;0;
20045;-27,9;96,11;-27,9;96,11;9,06;25,84;9,06;25,84;1;0;
20062;-12,43;-34,46;-12,43;-34,46;9,55;33,41;9,55;33,41;1;0;
20080;-21,03;-96,71;-21,03;-96,71;9,87;39,85;9,87;39,85;1;0;
20099;2,64;-63,41;2,64;-63,41;10,8;39,72;10,8;39,72;1;0;
20120;-35,37;4,53;-35,37;4,53;9,98;34,47;9,98;34,47;1;0;
20139;-34,73;-5,27;-34,73;-5,27;10,01;41;10,01;41;1;0;
20155;-34,73;-5,27;-34,73;-5,27;10,25;36,54;10,25;36,54;1;0;
20171;-8,3;48,93;-8,3;48,93;11,97;41,48;11,97;41,48;1;0;
20188;-8,3;48,93;-8,3;48,93;13,16;42,92;13,16;42,92;1;0;
20207;-20,97;-26,66;-20,97;-26,66;11,25;39,93;11,25;39,93;1;0;
20225;-24,17;-26,65;-24,17;-26,65;11,17;37,93;11,17;37,93;1;0;
20243;-22,79;-53,03;-22,79;-53,03;9,36;31,08;9,36;31,08;0;0;
20260;-27,51;-36,96;-27,51;-36,96;6,64;21,67;6,64;21,67;0;0;
20277;-17,01;-37,85;-17,01;-37,85;4,62;13,8;4,62;13,8;0;0;
20295;-24,15;-43,09;-24,15;-43,09;4,31;21,68;4,31;21,68;0;0;
20314;-25,85;-55,93;-25,85;-55,93;4,83;31,18;4,83;31,18;0;0;
20335;-33,44;-30,27;-33,44;-30,27;4,76;30,4;4,76;30,4;0;0;
20352;-23,03;-46,23;-23,03;-46,23;5,14;30,14;5,14;30,14;0;0;
20372;-25,98;-45,38;-25,98;-45,38;5,3;29,71;5,3;29,71;0;0;
20392;-18,75;-36,59;-18,75;-36,59;5,07;27,15;5,07;27,15;0;0;
20410;-32,66;-48,73;-32,66;-48,73;4,12;8,18;4,12;8,18;0;0;
20429;-32,66;-48,73;-32,66;-48,73;4,16;4,19;4,16;4,19;0;0;
20450;-41,57;-31,46;-41,57;-31,46;7,61;3,93;7,61;3,93;0;0;
20466;-32,56;-48,18;-32,56;-48,18;9,13;4,24;9,13;4,24;0;0;
20484;6,96;-42,91;6,96;-42,91;11,95;4,39;11,95;4,39;0;0;
20503;-59,4;-41,12;-59,4;-41,12;18,18;4,71;18,18;4,71;0;0;
20522;-76,01;-34,34;-76,01;-34,34;22,09;5,32;22,09;5,32;0;0;
20540;-46,13;-46,85;-46,13;-46,85;24,05;5,78;24,05;5,78;0;0;
20558;-53,05;-43,57;-53,05;-43,57;26,44;5,59;26,44;5,59;0;0;
20574;-19,52;-39,11;-19,52;-39,11;26,71;7,23;26,71;7,23;0;0;
20594;-22,27;-24,98;-22,27;-24,98;22,15;8,42;22,15;8,42;0;0;
20612;-20,12;-38,64;-20,12;-38,64;16,63;8,35;16,63;8,35;0;0;
20629;-20,12;-38,64;-20,12;-38,64;12,89;7,45;12,89;7,45;0;0;
20647;15,5;-54,05;15,5;-54,05;9,46;8,36;9,46;8,36;0;0;
20667;-43,4;-36,65;-43,4;-36,65;10,37;7,14;10,37;7,14;0;0;
20684;-20,72;-37,02;-20,72;-37,02;13,51;5,72;13,51;5,72;0;0;
20703;-19,14;-43,57;-19,14;-43,57;21,51;5,17;21,51;5,17;0;0;
20720;-80,39;-41,99;-80,39;-41,99;24,94;5,29;24,94;5,29;0;0;
20737;-26,97;-28,91;-26,97;-28,91;27,4;5,14;27,4;5,14;0;0;
20756;-29;-42,09;-29;-42,09;23,59;3,85;23,59;3,85;0;0;
20773;-31,26;-26,12;-31,26;-26,12;22,27;4,08;22,27;4,08;0;0;
20791;-82,14;-42,01;-82,14;-42,01;22,43;4,2;22,43;4,2;0;0;
20808;-82,14;-42,01;-82,14;-42,01;23,39;4;23,39;4;0;0;
20825;-33,28;-35,62;-33,28;-35,62;22,49;3,69;22,49;3,69;0;0;
20842;-21,94;-38,43;-21,94;-38,43;22,14;4,16;22,14;4,16;0;0;
20860;-36,87;-41,09;-36,87;-41,09;23,08;3,95;23,08;3,95;0;0;
20878;-17,74;-41,23;-17,74;-41,23;19,65;3,59;19,65;3,59;0;0;
20895;-23,92;-37,23;-23,92;-37,23;13,9;3,33;13,9;3,33;0;0;
20913;-46,09;-29,29;-46,09;-29,29;7,74;3,89;7,74;3,89;0;0;
20931;-26,35;-39,77;-26,35;-39,77;10,43;3,88;10,43;3,88;0;0;
20947;-26,35;-39,77;-26,35;-39,77;12,53;3,99;12,53;3,99;0;0;
20964;-30,93;-51,55;-30,93;-51,55;20,89;5,39;20,89;5,39;0;0;
20984;-136,1;-37,69;-136,1;-37,69;25,59;5,9;25,59;5,9;0;0;
21002;-117,96;-34,78;-117,96;-34,78;34,52;6,24;34,52;6,24;0;0;
21019;-43,77;-38,92;-43,77;-38,92;38,04;5,74;38,04;5,74;0;0;
21038;-45,85;-46,62;-45,85;-46,62;35,34;5,78;35,34;5,78;0;0;
21056;-21,69;-35,79;-21,69;-35,79;33,43;5,74;33,43;5,74;0;0;
21075;-72,81;-55,03;-72,81;-55,03;31,77;6,21;31,77;6,21;1;0;
21093;-2,85;-38,35;-2,85;-38,35;30,44;6,4;30,44;6,4;1;0;
21109;-2,85;-38,35;-2,85;-38,35;28,18;6,47;28,18;6,47;1;0;
21125;-34,57;-40,07;-34,57;-40,07;31,94;6,53;31,94;6,53;1;0;
21142;-14,26;-36,02;-14,26;-36,02;39,57;6,28;39,57;6,28;1;0;
21164;-44,95;-38,05;-44,95;-38,05;35,99;5,71;35,99;5,71;1;0;
21180;-40,01;-40,05;-40,01;-40,05;36,95;4,04;36,95;4,04;1;0;
21198;41,3;-44,68;41,3;-44,68;40,78;3,88;40,78;3,88;1;0;
21217;-22,25;-42,21;-22,25;-42,21;40,72;3,84;40,72;3,84;1;0;
21234;5,68;-32,16;5,68;-32,16;33,85;4,46;33,85;4,46;1;0;
21250;5,68;-32,16;5,68;-32,16;28,95;5,2;28,95;5,2;1;0;
21269;-18,39;-43,12;-18,39;-43,12;30,45;6,09;30,45;6,09;1;0;
21289;-17,4;-46,38;-17,4;-46,38;29,8;6,12;29,8;6,12;1;0;
21307;-54,94;-33,14;-54,94;-33,14;29,61;5,55;29,61;5,55;1;0;
21327;-9,01;-35,97;-9,01;-35,97;33,69;6,31;33,69;6,31;1;0;
21345;4,36;-38,3;4,36;-38,3;37,08;5,72;37,08;5,72;1;0;
21362;-7,32;-47,93;-7,32;-47,93;37,06;4,89;37,06;4,89;1;0;
21380;-3,68;-40,58;-3,68;-40,58;34,81;4,9;34,81;4,9;1;0;
21396;-24,88;-38,08;-24,88;-38,08;28,24;5,28;28,24;5,28;1;0;
21415;-14,92;-41,46;-14,92;-41,46;23,93;5,16;23,93;5,16;0;0;
21436;-19,62;-40,19;-19,62;-40,19;32,01;5,59;32,01;5,59;0;0;
21454;-28,77;-49,25;-28,77;-49,25;37,49;5,66;37,49;5,66;0;0;
21474;-5,08;-28,83;-5,08;-28,83;42,79;5,68;42,79;5,68;0;0;
21492;-64,71;-48,72;-64,71;-48,72;44,27;5,15;44,27;5,15;0;0;
21511;-179,56;-36,21;-179,56;-36,21;51,56;5,71;51,56;5,71;0;0;
21532;-49,38;-37,29;-49,38;-37,29;57,04;5,37;57,04;5,37;0;0;
21552;-38,44;-39,3;-38,44;-39,3;53,03;6,13;53,03;6,13;0;0;
21573;-82,57;-35,67;-82,57;-35,67;49,4;5,7;49,4;5,7;0;0;
21591;-61,7;-40,91;-61,7;-40,91;48,63;6,06;48,63;6,06;0;0;
21608;-61,7;-40,91;-61,7;-40,91;50,96;6,26;50,96;6,26;0;0;
21624;-22,68;-36,2;-22,68;-36,2;45,85;6,38;45,85;6,38;0;0;
21641;-28,22;-41,71;-28,22;-41,71;40,9;6,14;40,9;6,14;0;0;
21661;-47,98;-51,65;-47,98;-51,65;40,89;6,29;40,89;6,29;0;0;
21680;-232,97;-55,98;-232,97;-55,98;48,08;6,64;48,08;6,64;0;0;
21696;-61,17;-39,18;-61,17;-39,18;50,58;6,12;50,58;6,12;0;0;
21714;-16,18;-36,27;-16,18;-36,27;44,56;5,57;44,56;5,57;0;0;
21732;-70,98;-38,29;-70,98;-38,29;42,55;5,73;42,55;5,73;0;0;
21753;-20,45;-48,7;-20,45;-48,7;40,85;5,67;40,85;5,67;0;0;
21771;-44,42;-29,57;-44,42;-29,57;38,2;5,32;38,2;5,32;0;0;
21789;-44,42;-29,57;-44,42;-29,57;23,03;4,52;23,03;4,52;0;0;
21807;-73,65;-39,98;-73,65;-39,98;21,57;4,93;21,57;4,93;0;0;
21825;-36,53;-46,19;-36,53;-46,19;24,08;4,47;24,08;4,47;0;0;
21842;17,7;-39,64;17,7;-39,64;23,44;4,15;23,44;4,15;0;0;
21863;-26,93;-34,84;-26,93;-34,84;25,9;3,99;25,9;3,99;0;0;
21879;-23,45;-29,37;-23,45;-29,37;25,94;3,91;25,94;3,91;0;0;
21896;-23,26;-40,63;-23,26;-40,63;23,89;4,01;23,89;4,01;0;0;
21915;-22,16;-54,85;-22,16;-54,85;18,97;5,32;18,97;5,32;0;0;
21934;-18,7;-41,95;-18,7;-41,95;13,07;6,04;13,07;6,04;0;0;
21954;-16,66;-42,51;-16,66;-42,51;13,13;6,15;13,13;6,15;0;0;
21971;40,77;-48,96;40,77;-48,96;17,92;6,48;17,92;6,48;0;0;
21987;40,77;-48,96;40,77;-48,96;24,66;6,82;24,66;6,82;0;0;
22004;-90,21;-35,2;-90,21;-35,2;27,32;6,65;27,32;6,65;0;0;
22022;-32,87;-39,14;-32,87;-39,14;29,61;5,21;29,61;5,21;0;0;
22039;-13,68;-51,99;-13,68;-51,99;26,23;5,59;26,23;5,59;0;0;
22057;-26,39;-30,41;-26,39;-30,41;22,84;5,97;22,84;5,97;0;0;
22073;-22,55;-37,95;-22,55;-37,95;15,25;5,2;15,25;5,2;0;0;
22092;-3,58;-29,71;-3,58;-29,71;15,36;4,72;15,36;4,72;0;0;
22109;-3,58;-29,71;-3,58;-29,71;19,09;4,78;19,09;4,78;0;0;
22126;-31,76;-29,4;-31,76;-29,4;17,38;4,99;17,38;4,99;0;0;
22144;-23,16;-42,91;-23,16;-42,91;16,2;4,08;16,2;4,08;0;0;
22161;-27,58;-52,37;-27,58;-52,37;15,59;4,6;15,59;4,6;0;0;
22178;-25,42;-35,97;-25,42;-35,97;12,7;4,8;12,7;4,8;0;0;
22196;19,52;-32,22;19,52;-32,22;15,52;5,15;15,52;5,15;0;0;
22213;-66,24;-36,91;-66,24;-36,91;14,9;4,92;14,9;4,92;0;0;
22231;-23;-48,51;-23;-48,51;17,55;4,68;17,55;4,68;0;0;
22249;-23;-48,51;-23;-48,51;20,34;5,07;20,34;5,07;0;0;
22266;-28,34;-39,11;-28,34;-39,11;20,39;5,17;20,39;5,17;0;0;
22282;-20,69;-40,72;-20,69;-40,72;15,92;5,08;15,92;5,08;0;0;
22299;-22,44;-29,32;-22,44;-29,32;10,18;4,64;10,18;4,64;0;0;
22317;-27,45;-51,75;-27,45;-51,75;6,77;5,36;6,77;5,36;0;0;
22334;-55,6;-42,4;-55,6;-42,4;6,35;5,37;6,35;5,37;0;0;
22352;-36,81;-29,82;-36,81;-29,82;6,52;5,41;6,52;5,41;0;0;
22368;-36,81;-29,82;-36,81;-29,82;7,29;5,09;7,29;5,09;0;0;
22386;-23,3;-33,41;-23,3;-33,41;8,49;6,11;8,49;6,11;0;0;
22403;-18,15;-29,27;-18,15;-29,27;8,83;6,11;8,83;6,11;0;0;
22421;-23,52;-46,42;-23,52;-46,42;8,07;5,79;8,07;5,79;0;0;
22441;-20,36;-47,32;-20,36;-47,32;4,9;5,55;4,9;5,55;0;0;
22461;-23,69;-36,28;-23,69;-36,28;4,36;5,11;4,36;5,11;0;0;
22481;-16,39;-43,83;-16,39;-43,83;3,76;5,06;3,76;5,06;0;0;
22498;-22,78;-43,38;-22,78;-43,38;3,22;5,46;3,22;5,46;0;0;
22516;-28,62;-44,85;-28,62;-44,85;4,35;5,36;4,35;5,36;0;0;
22534;-27,01;-39,18;-27,01;-39,18;4,66;5,11;4,66;5,11;0;0;
22551;-17,12;-36,15;-17,12;-36,15;4,51;4,76;4,51;4,76;0;0;
22569;-17,12;-36,15;-17,12;-36,15;4,45;4,81;4,45;4,81;0;0;
22585;-19,48;-48,43;-19,48;-48,43;4,46;4,34;4,46;4,34;0;0;
22604;-29,89;-27,94;-29,89;-27,94;4,4;4,15;4,4;4,15;0;0;
22621;-27,57;-34,87;-27,57;-34,87;3,58;4,26;3,58;4,26;0;0;
22639;-26,4;-55,65;-26,4;-55,65;3,49;5,27;3,49;5,27;0;0;
22657;-20,86;-29,27;-20,86;-29,27;4;5,67;4;5,67;0;0;
22678;-30,82;-39,4;-30,82;-39,4;4,07;5,77;4,07;5,77;0;0;
22694;-24,48;-38,3;-24,48;-38,3;4,2;5,13;4,2;5,13;0;0;
22710;-33,89;-34,25;-33,89;-34,25;3,75;4,33;3,75;4,33;0;0;
22728;-33,89;-34,25;-33,89;-34,25;3,62;3,63;3,62;3,63;0;0;
22745;-24,12;-34,24;-24,12;-34,24;4,03;2,95;4,03;2,95;0;0;
22762;-28,67;-39,74;-28,67;-39,74;3,51;2,87;3,51;2,87;0;0;
22779;-25,66;-39,01;-25,66;-39,01;2,95;2,83;2,95;2,83;0;0;
22802;-17,91;-32,93;-17,91;-32,93;3,4;3,35;3,4;3,35;0;0;
22819;-24,89;-38,87;-24,89;-38,87;3,56;3,99;3,56;3,99;0;0;
22837;-24,26;-2,01;-24,26;-2,01;3,89;6,31;3,89;6,31;0;0;
22853;-33,4;-46,57;-33,4;-46,57;3,85;11,23;3,85;11,23;0;0;
22871;-26,35;-42,95;-26,35;-42,95;3,92;11,3;3,92;11,3;0;0;
22889;-26,35;-42,95;-26,35;-42,95;3,89;11,55;3,89;11,55;0;0;
22907;-28,36;-44,74;-28,36;-44,74;3,81;11,44;3,81;11,44;0;0;
22927;-21,82;-36,95;-21,82;-36,95;3,66;11,73;3,66;11,73;0;0;
22945;-22,63;-43,65;-22,63;-43,65;3,3;7,59;3,3;7,59;0;0;
22962;-28,71;-36,7;-28,71;-36,7;2,74;4,96;2,74;4,96;0;0;
22979;-31,25;-33,38;-31,25;-33,38;2,92;5,62;2,92;5,62;0;1;
22996;-22,9;-27,62;-22,9;-27,62;3,49;5,72;3,49;5,72;0;1;
23013;-15,83;-46,74;-15,83;-46,74;3,85;6,34;3,85;6,34;0;1;
23028;-15,83;-46,74;-15,83;-46,74;4,31;6,27;4,31;6,27;0;1;
23046;-25,85;-40,94;-25,85;-40,94;4,25;5,79;4,25;5,79;0;1;
23065;-22,54;-30,36;-22,54;-30,36;4,1;6,01;4,1;6,01;0;1;
23082;-32,55;-48,89;-32,55;-48,89;3,62;6,25;3,62;6,25;0;1;
23099;-14,49;-39,66;-14,49;-39,66;4,35;6,46;4,35;6,46;0;1;
23117;-30,45;-34,26;-30,45;-34,26;3,98;5,53;3,98;5,53;0;1;
23137;-30,53;-48,19;-30,53;-48,19;4;5,48;4;5,48;0;1;
23154;-20,7;-55,35;-20,7;-55,35;4,31;6,64;4,31;6,64;0;1;
23170;-20,7;-55,35;-20,7;-55,35;4,23;7,7;4,23;7,7;0;1;
23187;-31,83;-49,6;-31,83;-49,6;4,15;10,63;4,15;10,63;0;1;
23207;-27,32;162,56;-27,32;162,56;4,07;21,66;4,07;21,66;0;1;
23225;-20,97;-67,25;-20,97;-67,25;4,41;30,15;4,41;30,15;0;1;
23242;-18,61;-7,71;-18,61;-7,71;4,04;33,44;4,04;33,44;0;1;
23261;-25,48;-28,49;-25,48;-28,49;4,71;39,67;4,71;39,67;0;1;
23280;-11,18;-94,13;-11,18;-94,13;5,56;42,56;5,56;42,56;0;1;
23297;-34,99;34,55;-34,99;34,55;5,4;47,53;5,4;47,53;0;1;
23315;-31,51;-68,16;-31,51;-68,16;6,46;37,28;6,46;37,28;0;0;
23333;-17,8;-13,96;-17,8;-13,96;6,75;38,82;6,75;38,82;0;0;
23352;-26,2;131,96;-26,2;131,96;6,78;50,41;6,78;50,41;0;0;
23367;-26,2;131,96;-26,2;131,96;7,58;62,68;7,58;62,68;0;0;
23383;-29,28;84,91;-29,28;84,91;8,12;67,32;8,12;67,32;0;0;
23403;-40,49;-150,84;-40,49;-150,84;8,15;71,91;8,15;71,91;0;0;
23421;-37,41;-53,03;-37,41;-53,03;8,51;74,78;8,51;74,78;0;0;
23439;-20,06;-12,06;-20,06;-12,06;9,6;77,71;9,6;77,71;0;0;
23458;-1,79;-2,12;-1,79;-2,12;10,51;68,25;10,51;68,25;0;0;
23480;-28,54;17;-28,54;17;9,77;53,04;9,77;53,04;0;0;
23500;-40,05;-186,09;-40,05;-186,09;9,63;51,64;9,63;51,64;0;0;
23516;-40,03;-128,97;-40,03;-128,97;10,13;47,94;10,13;47,94;0;0;
23535;-15,23;-29,13;-15,23;-29,13;9,74;44,61;9,74;44,61;0;0;
23552;-29,32;85,62;-29,32;85,62;9,27;46,76;9,27;46,76;0;0;
23568;-29,32;85,62;-29,32;85,62;8,9;48,87;8,9;48,87;0;0;
23585;-23,06;-83,65;-23,06;-83,65;9,2;42,04;9,2;42,04;0;0;
23603;-20,11;-12,11;-20,11;-12,11;8,22;40,8;8,22;40,8;0;0;
23618;-28,02;-143,51;-28,02;-143,51;6,58;48,47;6,58;48,47;0;0;
23636;-13,68;0,37;-13,68;0,37;8,47;58,11;8,47;58,11;0;0;
23652;-22,54;-94,11;-22,54;-94,11;9,16;53,52;9,16;53,52;0;0;
23670;-16,24;-79,46;-16,24;-79,46;8,23;52,98;8,23;52,98;0;0;
23687;-16,24;-79,46;-16,24;-79,46;8,35;53,16;8,35;53,16;0;0;
23702;-28,78;-86,73;-28,78;-86,73;9,49;53,71;9,49;53,71;1;0;
23720;-25,73;-43,57;-25,73;-43,57;7,9;37,37;7,9;37,37;1;0;
23737;-25,73;-43,57;-25,73;-43,57;5,79;29,43;5,79;29,43;1;0;
23755;-34,2;-89,88;-34,2;-89,88;6,83;34,73;6,83;34,73;1;0;
23772;-6,9;-45,27;-6,9;-45,27;7,31;32,1;7,31;32,1;1;0;
23790;-6,9;-45,27;-6,9;-45,27;7,55;26,45;7,55;26,45;1;0;
23807;-8,7;-85,18;-8,7;-85,18;7,5;28,7;7,5;28,7;1;0;
23824;-39,04;29,48;-39,04;29,48;7,79;31,64;7,79;31,64;1;0;
23843;0,22;-20,64;0,22;-20,64;7,93;29,94;7,93;29,94;1;0;
23860;-43,16;1,66;-43,16;1,66;7,08;30,42;7,08;30,42;1;0;
23878;-22,33;-31,85;-22,33;-31,85;6,53;30,68;6,53;30,68;1;0;
23894;-30,94;39;-30,94;39;5,75;31,01;5,75;31,01;1;0;
23912;-42,91;-48,71;-42,91;-48,71;6,42;32,28;6,42;32,28;1;0;
23930;-17,96;-47,27;-17,96;-47,27;6,63;28,72;6,63;28,72;1;0;
23949;-17,96;-47,27;-17,96;-47,27;6,64;24,5;6,64;24,5;1;0;
23966;-18,65;-64,16;-18,65;-64,16;6,02;28,47;6,02;28,47;1;0;
23986;-47,25;-61,89;-47,25;-61,89;6,67;33,8;6,67;33,8;1;0;
24004;-28,86;-31,83;-28,86;-31,83;6,46;31,02;6,46;31,02;1;0;
24021;-21,35;-102,53;-21,35;-102,53;5,31;31,36;5,31;31,36;1;0;
24039;-18,89;46,22;-18,89;46,22;5,11;37,42;5,11;37,42;0;0;
24057;-25,48;-31,52;-25,48;-31,52;5,06;30,23;5,06;30,23;0;0;
24075;-21,76;-45,22;-21,76;-45,22;5,06;24,69;5,06;24,69;0;0;
24093;-19,81;-25,52;-19,81;-25,52;4,55;23,03;4,55;23,03;0;0;
24111;-29,37;46,79;-29,37;46,79;4,43;28,29;4,43;28,29;0;0;
24130;-17,97;-53,49;-17,97;-53,49;5,52;23,18;5,52;23,18;0;0;
24148;-17,97;-53,49;-17,97;-53,49;6,75;20,87;6,75;20,87;0;0;
24164;-26,99;-65,79;-26,99;-65,79;6,39;22,31;6,39;22,31;0;0;
24182;-21,05;-32,48;-21,05;-32,48;7,01;23,26;7,01;23,26;0;0;
24200;-32,41;-20,43;-32,41;-20,43;7,11;20,5;7,11;20,5;0;0;
24217;-18,8;-58,37;-18,8;-58,37;6,75;16,56;6,75;16,56;0;0;
24235;-21,7;-33,66;-21,7;-33,66;5,35;15,76;5,35;15,76;0;0;
24254;-29,14;-29,05;-29,14;-29,05;4,6;15,55;4,6;15,55;0;0;
24276;-21,31;-51,75;-21,31;-51,75;4,69;16,17;4,69;16,17;0;0;
24295;-33,46;60,12;-33,46;60,12;4,39;17,49;4,39;17,49;0;0;
24313;-22,03;-53,94;-22,03;-53,94;3,67;14,86;3,67;14,86;0;0;
24334;-21,02;-43,58;-21,02;-43,58;3,2;15,36;3,2;15,36;0;0;
24354;-20,14;-46,22;-20,14;-46,22;3,37;15,5;3,37;15,5;0;0;
24372;-26,41;-37,71;-26,41;-37,71;3,17;13,16;3,17;13,16;0;0;
24389;-26,41;-37,71;-26,41;-37,71;3,05;11,49;3,05;11,49;0;0;
24406;-14,24;-57,05;-14,24;-57,05;4,04;13,58;4,04;13,58;0;0;
24429;-35,02;-40,45;-35,02;-40,45;4,34;14,71;4,34;14,71;0;0;
24447;-22,96;-36,33;-22,96;-36,33;4,22;13,51;4,22;13,51;0;0;
24467;-21,52;-43,81;-21,52;-43,81;3,95;13,4;3,95;13,4;0;0;
24485;-20,83;-34,04;-20,83;-34,04;4,15;14,13;4,15;14,13;0;0;
24501;-26,5;-53,56;-26,5;-53,56;5,35;11,5;5,35;11,5;0;0;
24520;-21,17;-26,7;-21,17;-26,7;8,01;8,84;8,01;8,84;0;0;
24537;4,01;-36,16;4,01;-36,16;9,31;8,14;9,31;8,14;0;0;
24556;-26,79;-42,11;-26,79;-42,11;10,35;8,25;10,35;8,25;0;0;
24574;-0,39;-57,07;-0,39;-57,07;18,89;9,41;18,89;9,41;0;0;
24594;-26,3;-36,68;-26,3;-36,68;22,8;9,01;22,8;9,01;0;0;
24611;-19;-50,42;-19;-50,42;22,82;8,79;22,82;8,79;0;0;
24629;-19;-50,42;-19;-50,42;21,8;8,15;21,8;8,15;0;0;
24646;-33,62;-45,48;-33,62;-45,48;21,41;7,73;21,41;7,73;0;0;
24662;-23,02;-43,62;-23,02;-43,62;16,6;8,36;16,6;8,36;0;0;
24680;-9,63;-41,17;-9,63;-41,17;9,01;6,51;9,01;6,51;0;0;
24700;-29,88;-42,42;-29,88;-42,42;10,6;6,77;10,6;6,77;0;0;
24717;52,25;-42,44;52,25;-42,44;16,99;6,36;16,99;6,36;0;0;
24733;13,34;-57,71;13,34;-57,71;22,18;6,91;22,18;6,91;0;0;
24748;13,34;-57,71;13,34;-57,71;27,68;7,4;27,68;7,4;0;0;
24764;14,75;-33,03;14,75;-33,03;31,17;7,32;31,17;7,32;0;0;
24781;-22,89;-29,32;-22,89;-29,32;31,88;9,28;31,88;9,28;0;0;
24799;-13,2;-41,12;-13,2;-41,12;24,74;8,03;24,74;8,03;0;0;
24816;-46,32;-38,34;-46,32;-38,34;20,8;8,71;20,8;8,71;0;0;
24835;-78,97;-35,35;-78,97;-35,35;16,89;8,52;16,89;8,52;0;0;
24855;11,68;-23,79;11,68;-23,79;15,93;7,79;15,93;7,79;0;0;
24876;5,86;-16,07;5,86;-16,07;20,58;9,54;20,58;9,54;1;0;
24894;-32,62;-42,55;-32,62;-42,55;23,77;8,88;23,77;8,88;1;0;
24911;-39,79;-45,03;-39,79;-45,03;23,68;9,43;23,68;9,43;1;0;
24927;-39,79;-45,03;-39,79;-45,03;24,14;8,42;24,14;8,42;1;0;
24946;21,11;-43,47;21,11;-43,47;26,7;7,95;26,7;7,95;1;0;
24964;-105,02;-64,97;-105,02;-64,97;31,24;8,87;31,24;8,87;1;0;
24984;5,3;-20,99;5,3;-20,99;27,03;8,03;27,03;8,03;1;0;
25002;32,73;-36,66;32,73;-36,66;34,79;8,27;34,79;8,27;1;0;
25020;-15,76;-34;-15,76;-34;41,71;8,05;41,71;8,05;1;0;
25038;32,84;-27,05;32,84;-27,05;45,25;9,16;45,25;9,16;1;0;
25058;-124,89;-52,09;-124,89;-52,09;48,71;9,63;48,71;9,63;1;0;
25077;63,51;-19,45;63,51;-19,45;50,82;8,24;50,82;8,24;1;0;
25097;8,89;-42,35;8,89;-42,35;48,89;8,81;48,89;8,81;1;0;
25113;-58,33;-42,96;-58,33;-42,96;45,75;8,79;45,75;8,79;1;0;
25130;-58,33;-42,96;-58,33;-42,96;45,75;8,15;45,75;8,15;1;0;
25146;0,49;-45,95;0,49;-45,95;37,75;8,1;37,75;8,1;1;0;
25161;-70,61;-18,25;-70,61;-18,25;31,01;8,82;31,01;8,82;1;0;
25179;-1,22;-48,85;-1,22;-48,85;32,3;7,33;32,3;7,33;1;0;
25196;5,23;-35,21;5,23;-35,21;31,53;7,94;31,53;7,94;1;0;
25215;5,02;-21,77;5,02;-21,77;28,28;8,05;28,28;8,05;0;0;
25232;-26,34;-32,76;-26,34;-32,76;26,55;7,81;26,55;7,81;0;0;
25248;-26,34;-32,76;-26,34;-32,76;27,78;7,65;27,78;7,65;0;0;
25267;-61,21;-39,47;-61,21;-39,47;29,86;7,65;29,86;7,65;0;0;
25284;-31,61;-56,3;-31,61;-56,3;29,52;6,7;29,52;6,7;0;0;
25301;-27,1;-38,39;-27,1;-38,39;27,47;6,87;27,47;6,87;0;0;
25321;-72,49;-56,12;-72,49;-56,12;28,77;7,06;28,77;7,06;0;0;
25338;-44,21;-57;-44,21;-57;30,48;6,87;30,48;6,87;0;0;
25354;-17,43;-13,66;-17,43;-13,66;33,26;8,06;33,26;8,06;0;0;
25373;-32,17;-43,49;-32,17;-43,49;27,24;8,13;27,24;8,13;0;0;
25392;2,44;-55,63;2,44;-55,63;29,78;8,25;29,78;8,25;0;0;
25409;2,44;-55,63;2,44;-55,63;31,27;8,65;31,27;8,65;0;0;
25425;-12,43;-54,11;-12,43;-54,11;30,22;9,62;30,22;9,62;0;0;
25443;-66,41;-26,79;-66,41;-26,79;27,49;9,27;27,49;9,27;0;0;
25462;-38,56;-37,92;-38,56;-37,92;32,35;7,6;32,35;7,6;0;0;
25481;-28,25;-27,94;-28,25;-27,94;34,39;7,86;34,39;7,86;0;0;
25499;-70,74;-45,04;-70,74;-45,04;35,9;7,51;35,9;7,51;0;0;
25516;26,51;-28,81;26,51;-28,81;37,7;6,59;37,7;6,59;0;0;
25533;18,74;-32,04;18,74;-32,04;37,04;7,36;37,04;7,36;0;0;
25549;18,74;-32,04;18,74;-32,04;38,43;8,49;38,43;8,49;0;0;
25564;-67,2;-51,62;-67,2;-51,62;40,75;8,7;40,75;8,7;0;0;
25583;-42,01;-32,99;-42,01;-32,99;42,03;8,95;42,03;8,95;0;0;
25599;-53,66;-27,48;-53,66;-27,48;39,79;9,45;39,79;9,45;0;0;
25617;9,45;-26,88;9,45;-26,88;39,98;9,51;39,98;9,51;0;0;
25633;-13,42;-42,03;-13,42;-42,03;33,59;9,39;33,59;9,39;0;0;
25651;17,59;-51,35;17,59;-51,35;29,56;8,91;29,56;8,91;0;0;
25669;17,59;-51,35;17,59;-51,35;25,4;8,34;25,4;8,34;0;0;
25685;-27,93;-33,95;-27,93;-33,95;22,64;8,7;22,64;8,7;0;0;
25702;-30,75;-47,7;-30,75;-47,7;22,59;7,96;22,59;7,96;0;0;
25721;-36,73;-50,58;-36,73;-50,58;23,47;7,32;23,47;7,32;0;0;
25739;-30,25;-30,63;-30,25;-30,63;20,47;7,8;20,47;7,8;0;0;
25759;28,44;-52,34;28,44;-52,34;22,73;8,98;22,73;8,98;0;0;
25775;-21,82;-51,09;-21,82;-51,09;23,51;9,26;23,51;9,26;0;0;
25793;-18,78;-33,9;-18,78;-33,9;21,72;8,47;21,72;8,47;0;0;
25812;-44,78;-42,3;-44,78;-42,3;15,91;7,75;15,91;7,75;0;0;
25831;-34,6;-34,28;-34,6;-34,28;15,83;7,59;15,83;7,59;0;0;
25848;-34,6;-34,28;-34,6;-34,28;15,84;6,22;15,84;6,22;0;0;
25868;-7,88;-47,66;-7,88;-47,66;11,07;5,29;11,07;5,29;0;0;
25887;-6,9;-42,78;-6,9;-42,78;9,58;5,5;9,58;5,5;0;0;
25903;-31,6;-40,76;-31,6;-40,76;10,48;6,19;10,48;6,19;0;0;
25922;-18,28;-23,55;-18,28;-23,55;9,89;6,8;9,89;6,8;0;0;
25939;-13,4;-31,79;-13,4;-31,79;8,19;8,59;8,19;8,59;0;0;
25956;-22,8;-52,45;-22,8;-52,45;6,63;8,98;6,63;8,98;0;0;
25974;-31,43;-36,72;-31,43;-36,72;7,18;8,85;7,18;8,85;0;0;
25993;-10,62;-15,72;-10,62;-15,72;7,25;9,31;7,25;9,31;0;0;
26013;-35,88;-54,8;-35,88;-54,8;7,48;10,8;7,48;10,8;0;0;
26035;-19,37;-47,64;-19,37;-47,64;7,41;9,48;7,41;9,48;0;0;
26052;-25,13;-30,11;-25,13;-30,11;6,62;8,91;6,62;8,91;0;0;
26068;-25,13;-30,11;-25,13;-30,11;6;8,68;6;8,68;0;0;
26084;-19,97;-50,56;-19,97;-50,56;5,07;9,1;5,07;9,1;0;0;
26101;-23,17;-55,02;-23,17;-55,02;4,02;9,45;4,02;9,45;0;0;
26118;-31,43;-34,68;-31,43;-34,68;3,52;9,5;3,52;9,5;0;0;
26136;-22,73;-33,11;-22,73;-33,11;3,34;9,58;3,34;9,58;0;0;
26153;-31,59;-51,34;-31,59;-51,34;3,67;9,66;3,67;9,66;0;0;
26169;-31,59;-51,34;-31,59;-51,34;4,04;9,41;4,04;9,41;0;0;
26187;-19,62;-44,7;-19,62;-44,7;4,41;8,19;4,41;8,19;0;0;
26206;-51,83;-34,27;-51,83;-34,27;5,1;6,62;5,1;6,62;0;0;
26223;-15,71;-42,19;-15,71;-42,19;7,56;7,06;7,56;7,06;0;0;
26242;-2,26;-43,54;-2,26;-43,54;9,64;6,13;9,64;6,13;0;0;
26259;-22,59;-26,32;-22,59;-26,32;9,92;5,91;9,92;5,91;0;0;
26278;-29,36;-52,66;-29,36;-52,66;9,7;6,83;9,7;6,83;0;0;
26296;-23,72;-36,01;-23,72;-36,01;10,58;7,03;10,58;7,03;0;0;
26314;-26,17;-38,01;-26,17;-38,01;9,69;7,18;9,69;7,18;0;0;
26332;-30,66;-49,99;-30,66;-49,99;7,93;7,24;7,93;7,24;0;0;
26350;-30,66;-49,99;-30,66;-49,99;6,48;7,63;6,48;7,63;0;0;
26367;-13,49;-47,02;-13,49;-47,02;6,67;6,67;6,67;6,67;0;0;
26384;-18,39;-46,15;-18,39;-46,15;6,26;6,95;6,26;6,95;0;0;
26401;-23,58;-32,98;-23,58;-32,98;5,05;7,2;5,05;7,2;0;0;
26418;-31,6;-22,2;-31,6;-22,2;5,74;7,77;5,74;7,77;0;0;
26435;-13,09;-57,02;-13,09;-57,02;6,46;9,42;6,46;9,42;0;0;
26452;-26,82;-52,34;-26,82;-52,34;6,16;10,79;6,16;10,79;0;0;
26469;-26,82;-52,34;-26,82;-52,34;5,6;11,38;5,6;11,38;0;0;
26484;-32,58;-34,59;-32,58;-34,59;5,7;10,49;5,7;10,49;0;0;
26500;-9,71;-41,57;-9,71;-41,57;6,96;10,09;6,96;10,09;0;0;
26518;-19,26;-24,34;-19,26;-24,34;6,76;9,26;6,76;9,26;0;0;
26534;-29,34;-48,57;-29,34;-48,57;6,21;8,66;6,21;8,66;0;0;
26553;-31,41;-49,77;-31,41;-49,77;6,46;7,28;6,46;7,28;0;0;
26570;-31,41;-49,77;-31,41;-49,77;6,66;6,34;6,66;6,34;0;0;
26586;-26,71;-24,69;-26,71;-24,69;6;6,86;6;6,86;0;0;
26607;-27,83;-46,61;-27,83;-46,61;5,07;6,07;5,07;6,07;0;0;
26625;-31,19;-28,36;-31,19;-28,36;4,69;7,23;4,69;7,23;0;0;
26640;-32,63;-39,91;-32,63;-39,91;4,66;7,67;4,66;7,67;0;0;
26659;-69,6;-49,89;-69,6;-49,89;9,83;7,93;9,83;7,93;0;0;
26677;-16,91;-23,46;-16,91;-23,46;12,98;7,82;12,98;7,82;0;0;
26693;-34,96;-25,68;-34,96;-25,68;13,44;8,74;13,44;8,74;0;0;
26712;-32,79;-49,8;-32,79;-49,8;14,16;7,76;14,16;7,76;0;0;
26729;-32,79;-49,8;-32,79;-49,8;14,67;6,1;14,67;6,1;0;0;
26746;-28,14;-31,98;-28,14;-31,98;13,46;6,69;13,46;6,69;0;0;
26763;-20,85;-42,07;-20,85;-42,07;8,56;7,51;8,56;7,51;0;0;
26782;-18,84;-44,4;-18,84;-44,4;6,36;7,1;6,36;7,1;0;0;
26799;-24;-46,15;-24;-46,15;6,47;8,68;6,47;8,68;1;0;
26818;-73,84;-60,29;-73,84;-60,29;8,21;9,49;8,21;9,49;1;0;
26837;-5,53;-28,83;-5,53;-28,83;11,94;10,2;11,94;10,2;1;0;
26856;-32,1;-36,07;-32,1;-36,07;12,08;8,98;12,08;8,98;1;0;
26872;-13,73;-37,71;-13,73;-37,71;11,72;8,36;11,72;8,36;1;0;
26890;-27,29;-28,14;-27,29;-28,14;11,21;7,2;11,21;7,2;1;0;
26906;-27,29;-28,14;-27,29;-28,14;10,67;7;10,67;7;1;0;
26924;-14,73;-31,96;-14,73;-31,96;5,31;6,21;5,31;6,21;1;0;
26941;-35,95;-84,31;-35,95;-84,31;4,74;10,09;4,74;10,09;1;0;
26961;-34,89;-50,06;-34,89;-50,06;4,93;13,62;4,93;13,62;1;0;
26979;-4,29;-23,6;-4,29;-23,6;5,46;14,61;5,46;14,61;1;0;
26996;-90,63;-47,19;-90,63;-47,19;16,32;16;16,32;16;1;0;
27014;22,66;-41,45;22,66;-41,45;27,59;16,09;27,59;16,09;1;0;
27030;-82,97;-45,26;-82,97;-45,26;32,29;16,05;32,29;16,05;1;0;
27046;-82,97;-45,26;-82,97;-45,26;36,89;11,73;36,89;11,73;1;0;
27064;-26,31;-52,11;-26,31;-52,11;46,14;10,37;46,14;10,37;1;0;
27084;-54,54;-29,38;-54,54;-29,38;51,74;9,77;51,74;9,77;1;0;
27100;-40,58;-39;-40,58;-39;49,29;8,82;49,29;8,82;1;0;
27116;-28,53;-36,55;-28,53;-36,55;50,85;8,92;50,85;8,92;1;0;
27134;-111,45;-48,2;-111,45;-48,2;62,16;9,36;62,16;9,36;1;0;
27154;-152,35;-31,14;-152,35;-31,14;63,03;8,96;63,03;8,96;0;0;
27174;-17,65;-40,61;-17,65;-40,61;66,49;9,22;66,49;9,22;0;0;
27191;-82,68;-45,13;-82,68;-45,13;59,2;7,88;59,2;7,88;0;0;
27210;-82,68;-45,13;-82,68;-45,13;59,27;6,81;59,27;6,81;0;0;
27227;-32,84;-31,83;-32,84;-31,83;47,53;6,45;47,53;6,45;0;0;
27247;-24,86;-51,58;-24,86;-51,58;54,53;6,05;54,53;6,05;0;0;
27271;-68,2;-34,96;-68,2;-34,96;48,03;4,69;48,03;4,69;0;0;
27292;8,67;-28,11;8,67;-28,11;48,64;4,47;48,64;4,47;0;0;
27313;52,04;-42,89;52,04;-42,89;49,99;5,36;49,99;5,36;0;0;
27331;-149,52;-38,26;-149,52;-38,26;55,15;5,47;55,15;5,47;0;0;
27348;-149,52;-38,26;-149,52;-38,26;60,82;5,14;60,82;5,14;0;0;
27364;-84,27;-52,07;-84,27;-52,07;59,51;5,94;59,51;5,94;0;0;
27383;68,72;-26,57;68,72;-26,57;62,52;6,72;62,52;6,72;0;0;
27401;-21,94;-37,07;-21,94;-37,07;64,52;6,84;64,52;6,84;0;0;
27420;-5,45;-31,76;-5,45;-31,76;59,73;6,27;59,73;6,27;0;0;
27440;-28,8;-54,2;-28,8;-54,2;50,05;8,16;50,05;8,16;0;0;
27457;-20,88;-40,15;-20,88;-40,15;38,08;8,35;38,08;8,35;0;0;
27475;-229,58;-23,71;-229,58;-23,71;47,93;7,44;47,93;7,44;1;0;
27494;0,23;-29,92;0,23;-29,92;52,96;7,57;52,96;7,57;1;0;
27513;84,92;-29,23;84,92;-29,23;53,81;7,23;53,81;7,23;1;0;
27531;-27,16;-50,52;-27,16;-50,52;53,43;6,62;53,43;6,62;1;0;
27548;-27,16;-50,52;-27,16;-50,52;55,1;5,73;55,1;5,73;1;0;
27565;-37,37;-44,93;-37,37;-44,93;51,12;7,18;51,12;7,18;1;0;
27583;-22,31;-32,16;-22,31;-32,16;30,65;6,57;30,65;6,57;1;0;
27603;56,18;-58,64;56,18;-58,64;39,93;7,56;39,93;7,56;1;0;
27622;84,82;-28,94;84,82;-28,94;49,01;8,58;49,01;8,58;1;0;
27640;-61,97;-38,94;-61,97;-38,94;55,16;8,33;55,16;8,33;1;0;
27663;-74,02;-43,24;-74,02;-43,24;54,44;8,32;54,44;8,32;1;0;
27682;-26,78;-53,87;-26,78;-53,87;63,57;8,77;63,57;8,77;1;0;
27699;-132,55;-30,26;-132,55;-30,26;67,05;10,12;67,05;10,12;1;0;
27716;-30,35;-44,79;-30,35;-44,79;61,38;8,4;61,38;8,4;1;0;
27733;-147,22;-29,77;-147,22;-29,77;57,52;7,83;57,52;7,83;1;0;
27751;-258,6;-25,27;-258,6;-25,27;67,02;7,3;67,02;7,3;1;0;
27771;79,71;-51,04;79,71;-51,04;77,71;8,02;77,71;8,02;1;0;
27789;79,71;-51,04;79,71;-51,04;86,73;7,78;86,73;7,78;1;0;
27807;7,85;-46,47;7,85;-46,47;87,59;6,47;87,59;6,47;1;0;
27823;-138,52;-35,42;-138,52;-35,42;87,74;7,28;87,74;7,28;1;0;
27844;32,74;-43,9;32,74;-43,9;76,67;7,8;76,67;7,8;0;0;
27862;-53,75;-29,83;-53,75;-29,83;62,54;7,75;62,54;7,75;0;0;
27881;6,86;-32,17;6,86;-32,17;59,86;6,91;59,86;6,91;0;0;
27899;69,35;-42,48;69,35;-42,48;58,33;7,03;58,33;7,03;0;0;
27918;-81,79;-39,6;-81,79;-39,6;57,63;6,98;57,63;6,98;0;0;
27935;-79,64;-36,67;-79,64;-36,67;54,15;6,23;54,15;6,23;0;0;
27956;-79,78;-49,78;-79,78;-49,78;54,24;5,68;54,24;5,68;0;0;
27977;4,02;-36,51;4,02;-36,51;53,11;5,39;53,11;5,39;0;0;
27995;116,85;-53,56;116,85;-53,56;46,88;6,46;46,88;6,46;0;0;
28013;40,2;-36,43;40,2;-36,43;44,21;6,24;44,21;6,24;0;0;
28030;-40,77;-34,99;-40,77;-34,99;41,39;6,62;41,39;6,62;0;0;
28046;-40,77;-34,99;-40,77;-34,99;40,67;6,74;40,67;6,74;0;0;
28065;-22,57;-22,35;-22,57;-22,35;40,93;6,65;40,93;6,65;0;0;
28086;14,38;-28,17;14,38;-28,17;38,13;6,68;38,13;6,68;0;0;
28102;-5,87;-47,2;-5,87;-47,2;35,6;7,23;35,6;7,23;0;0;
28121;-95,65;-24,42;-95,65;-24,42;34,37;6,64;34,37;6,64;0;0;
28137;28,41;-39,63;28,41;-39,63;38,17;7,07;38,17;7,07;0;0;
28154;-67,56;-43,78;-67,56;-43,78;42,37;7,29;42,37;7,29;0;0;
28170;-7,44;-38,06;-7,44;-38,06;43,33;7,03;43,33;7,03;0;0;
28186;-7,44;-38,06;-7,44;-38,06;46,2;6,5;46,2;6,5;0;0;
28203;-101,82;-52,43;-101,82;-52,43;49,23;6,91;49,23;6,91;0;0;
28222;-45,9;-35,86;-45,9;-35,86;43,19;7,26;43,19;7,26;0;0;
28240;-108,64;-45,06;-108,64;-45,06;45,18;7;45,18;7;0;0;
28257;-118,24;-32,82;-118,24;-32,82;40,79;6,81;40,79;6,81;0;0;
28275;-79,99;-22,64;-79,99;-22,64;47,24;7,31;47,24;7,31;0;0;
28292;-27,68;-44,47;-27,68;-44,47;53,83;7,29;53,83;7,29;0;0;
28308;-27,68;-44,47;-27,68;-44,47;55,53;7,05;55,53;7,05;0;0;
28324;-41,74;-45,95;-41,74;-45,95;55,19;6,52;55,19;6,52;0;0;
28342;-14,95;-43,77;-14,95;-43,77;58,28;6,01;58,28;6,01;0;0;
28359;-128,47;-29,72;-128,47;-29,72;56,76;5,99;56,76;5,99;0;0;
28377;-7,26;-42,15;-7,26;-42,15;51,52;4,89;51,52;4,89;0;0;
28394;5,05;-44,24;5,05;-44,24;44,59;4,65;44,59;4,65;0;0;
28413;44,65;-50,44;44,65;-50,44;48,31;4,68;48,31;4,68;0;0;
28428;44,65;-50,44;44,65;-50,44;53,74;4,05;53,74;4,05;0;0;
28445;-26,38;-41,34;-26,38;-41,34;65,8;4,52;65,8;4,52;0;0;
28462;-69,57;-44,47;-69,57;-44,47;66,63;4,71;66,63;4,71;0;0;
28479;90,47;-29,08;90,47;-29,08;64,2;4,93;64,2;4,93;0;0;
28497;32,05;-42,91;32,05;-42,91;63,13;5,71;63,13;5,71;0;0;
28516;5,56;-38,15;5,56;-38,15;58,68;5,6;58,68;5,6;0;0;
28533;-65,46;-47,74;-65,46;-47,74;51,88;6;51,88;6;0;0;
28549;-65,46;-47,74;-65,46;-47,74;53,75;6,19;53,75;6,19;0;0;
28565;7,75;-49,33;7,75;-49,33;55,12;5,81;55,12;5,81;0;0;
28582;-78,98;-32,89;-78,98;-32,89;51,91;5,39;51,91;5,39;0;0;
28600;-5,01;-37,77;-5,01;-37,77;49,04;6;49,04;6;0;0;
28619;21,24;-47,74;21,24;-47,74;44,53;6,67;44,53;6,67;0;0;
28636;-95,33;-45,33;-95,33;-45,33;37,18;6,61;37,18;6,61;0;0;
28654;48,77;-48,7;48,77;-48,7;31,83;6,2;31,83;6,2;0;0;
28669;48,77;-48,7;48,77;-48,7;29,9;5,92;29,9;5,92;0;0;
28688;5,4;-42,1;5,4;-42,1;35,28;6,37;35,28;6,37;0;0;
28707;-71,61;-31,06;-71,61;-31,06;37,06;6,66;37,06;6,66;0;0;
28729;-19,64;-54,14;-19,64;-54,14;37,63;7,79;37,63;7,79;1;0;
28745;50,91;-33,03;50,91;-33,03;41,61;8,1;41,61;8,1;1;0;
28762;-9,64;-33,16;-9,64;-33,16;41,23;8,55;41,23;8,55;1;0;
28779;45,95;-60,42;45,95;-60,42;39,05;8,55;39,05;8,55;1;0;
28796;-22,73;-29,89;-22,73;-29,89;36,28;7,84;36,28;7,84;1;0;
28815;-36,98;-45,71;-36,98;-45,71;33,18;7,86;33,18;7,86;1;0;
28832;-108,65;-39,62;-108,65;-39,62;34,46;5,9;34,46;5,9;1;0;
28852;-25,47;-38,56;-25,47;-38,56;33,73;6,69;33,73;6,69;1;0;
28870;-92,52;-20,09;-92,52;-20,09;38,11;6,48;38,11;6,48;1;0;
28889;-92,52;-20,09;-92,52;-20,09;39,31;6,71;39,31;6,71;1;0;
28907;89,22;-36,85;89,22;-36,85;39,47;6,33;39,47;6,33;1;0;
28924;-75,89;-47,74;-75,89;-47,74;41,56;6,67;41,56;6,67;1;0;
28943;-137,56;-33,29;-137,56;-33,29;38,5;6,44;38,5;6,44;1;0;
28960;-75,39;-56,01;-75,39;-56,01;42,22;6,36;42,22;6,36;1;0;
28978;103,47;-25,79;103,47;-25,79;40,81;6,9;40,81;6,9;1;0;
28997;1,36;-31,77;1,36;-31,77;49,14;7,62;49,14;7,62;1;0;
29013;-152,72;-32,83;-152,72;-32,83;50,28;7,11;50,28;7,11;1;0;
29032;-30,04;-37,67;-30,04;-37,67;55,29;6,74;55,29;6,74;1;0;
29048;-30,04;-37,67;-30,04;-37,67;55,82;6,47;55,82;6,47;1;0;
29065;62,08;-36,79;62,08;-36,79;58,77;5,44;58,77;5,44;1;0;
29084;-34,34;-37,78;-34,34;-37,78;58,18;4,17;58,18;4,17;0;0;
29100;-9,55;-57,97;-9,55;-57,97;51,48;5,16;51,48;5,16;0;0;
29117;-47,59;-35,01;-47,59;-35,01;47,27;5,4;47,27;5,4;0;0;
29138;-42,5;-48,13;-42,5;-48,13;43,4;5,63;43,4;5,63;0;0;
29158;38,61;-24,37;38,61;-24,37;39,55;6,62;39,55;6,62;0;0;
29178;-70,84;-45,65;-70,84;-45,65;43,9;7,77;43,9;7,77;0;0;
29198;-25,22;-42,67;-25,22;-42,67;37,79;7,36;37,79;7,36;0;0;
29217;50,05;-53,75;50,05;-53,75;46,31;8,32;46,31;8,32;0;0;
29237;-62,06;-26,59;-62,06;-26,59;51,57;9,41;51,57;9,41;0;0;
29254;-47,13;-29,32;-47,13;-29,32;50,24;9,35;50,24;9,35;0;0;
29271;0,27;-38,79;0,27;-38,79;44,7;9,1;44,7;9,1;0;0;
29293;-16,5;-39,18;-16,5;-39,18;43,84;8,43;43,84;8,43;0;0;
29309;-16,5;-39,18;-16,5;-39,18;39,86;7,96;39,86;7,96;0;0;
29325;7,86;-28,78;7,86;-28,78;34,94;5,79;34,94;5,79;0;0;
29344;-5,09;-50,29;-5,09;-50,29;31,32;5,62;31,32;5,62;0;0;
29362;-13,09;-36,21;-13,09;-36,21;39,08;4,93;39,08;4,93;0;0;
29379;-54;-46;-54;-46;37,53;5,37;37,53;5,37;0;0;
29397;-20,99;-39,83;-20,99;-39,83;34,48;5,14;34,48;5,14;0;0;
29414;119,02;-39,89;119,02;-39,89;38,38;5,02;38,38;5,02;0;0;
29431;36,92;-33,67;36,92;-33,67;39,46;5,29;39,46;5,29;0;0;
29446;36,92;-33,67;36,92;-33,67;36,95;5,13;36,95;5,13;0;0;
29466;-73,05;-39,1;-73,05;-39,1;37,13;5,2;37,13;5,2;0;0;
29483;-100,84;-46,49;-100,84;-46,49;41,25;5,42;41,25;5,42;0;0;
29500;-1,48;-46,93;-1,48;-46,93;39,25;6,08;39,25;6,08;0;0;
29517;35,48;-28,38;35,48;-28,38;32,33;7,15;32,33;7,15;0;0;
29534;-20,87;-42,27;-20,87;-42,27;31,44;6,97;31,44;6,97;0;0;
29551;-41,33;-40,75;-41,33;-40,75;32,06;6,46;32,06;6,46;0;0;
29566;-41,33;-40,75;-41,33;-40,75;28,85;6,24;28,85;6,24;0;0;
29583;-20,13;-43,85;-20,13;-43,85;24,63;6,67;24,63;6,67;0;0;
29601;-29,86;-31,4;-29,86;-31,4;20,37;7,63;20,37;7,63;0;0;
29617;-21,96;-51,89;-21,96;-51,89;22,72;7,1;22,72;7,1;0;0;
29633;-12,47;-39,88;-12,47;-39,88;24;7,19;24;7,19;0;0;
29649;-12,47;-39,88;-12,47;-39,88;24,92;7,52;24,92;7,52;0;0;
29667;-43,66;-33,27;-43,66;-33,27;22,92;6,71;22,92;6,71;0;0;
29684;-21,69;-38,23;-21,69;-38,23;22,79;6,14;22,79;6,14;0;0;
29703;-22,89;-37,66;-22,89;-37,66;19,34;4,82;19,34;4,82;0;0;
29721;-29,41;-40,07;-29,41;-40,07;12,49;5,02;12,49;5,02;0;0;
29740;-10,34;-47,23;-10,34;-47,23;10,25;5,01;10,25;5,01;0;0;
29757;-99,48;-40,91;-99,48;-40,91;10,47;4,86;10,47;4,86;0;0;
29773;-19,22;-40,05;-19,22;-40,05;19,15;5,06;19,15;5,06;0;0;
29793;-24,66;-42,72;-24,66;-42,72;19,14;4,87;19,14;4,87;0;0;
29812;-13,86;-36,94;-13,86;-36,94;19,27;4,39;19,27;4,39;0;0;
29827;-13,86;-36,94;-13,86;-36,94;18,74;3,82;18,74;3,82;0;0;
29844;-12,75;-32,54;-12,75;-32,54;16,42;3,68;16,42;3,68;0;0;
29861;-24,62;-55,28;-24,62;-55,28;10,46;4,86;10,46;4,86;0;0;
29878;-18,59;-30,59;-18,59;-30,59;3,93;5,97;3,93;5,97;0;0;
29895;-26,88;-36,06;-26,88;-36,06;4,37;6,18;4,37;6,18;0;0;
29911;-26;-35,8;-26;-35,8;4;6,67;4;6,67;0;0;
29929;-26;-35,8;-26;-35,8;3,19;6,64;3,19;6,64;0;0;
29948;-25,99;-47,78;-25,99;-47,78;2,59;6,76;2,59;6,76;0;0;
29966;-21,58;-33,2;-21,58;-33,2;2,9;6,68;2,9;6,68;0;0;
29982;-27,18;-44,24;-27,18;-44,24;2,98;6,29;2,98;6,29;0;0;
30000;-19,78;-26,64;-19,78;-26,64;3,17;5,9;3,17;5,9;0;0;
30017;-23,87;-31,51;-23,87;-31,51;3,41;6,92;3,41;6,92;0;0;
30036;-22,15;-36,19;-22,15;-36,19;3,52;7,17;3,52;7,17;0;0;
30053;-31,32;-40,39;-31,32;-40,39;3,31;7,43;3,31;7,43;0;0;
30072;-22,56;-44;-22,56;-44;3,44;6,98;3,44;6,98;0;0;
30089;-22,56;-44;-22,56;-44;3,6;6,61;3,6;6,61;0;0;
30107;-26,94;-35,59;-26,94;-35,59;3,55;6,05;3,55;6,05;0;0;
30125;-20,94;-53,85;-20,94;-53,85;3,79;4,89;3,79;4,89;0;0;
30144;-25,4;3,03;-25,4;3,03;3,7;10,85;3,7;10,85;0;0;
30160;-27,52;-16,94;-27,52;-16,94;3,3;13,97;3,3;13,97;0;0;
30177;-18,21;-44,68;-18,21;-44,68;3,17;18,83;3,17;18,83;0;0;
30195;-27,56;-46,39;-27,56;-46,39;3,07;19,95;3,07;19,95;0;0;
30212;-21,98;-33,7;-21,98;-33,7;3,13;20,07;3,13;20,07;0;0;
30229;-21,98;-33,7;-21,98;-33,7;3,37;16;3,37;16;0;0;
30249;-25,86;-50,53;-25,86;-50,53;4,13;12,97;4,13;12,97;0;0;
30267;-24,26;-94,49;-24,26;-94,49;4,3;9,12;4,3;9,12;0;0;
30284;-21,34;-42,57;-21,34;-42,57;4,03;9,16;4,03;9,16;0;0;
30301;-19,8;-39,56;-19,8;-39,56;4,23;8,72;4,23;8,72;0;0;
30319;-33,1;-33,51;-33,1;-33,51;4,45;8,88;4,45;8,88;0;0;
30337;-13,38;-37,46;-13,38;-37,46;4,3;8,75;4,3;8,75;0;0;
30355;-36,8;-16,02;-36,8;-16,02;4,18;8,71;4,18;8,71;0;0;
30371;-25,33;-34,46;-25,33;-34,46;4,5;6,71;4,5;6,71;0;0;
30387;-25,33;-34,46;-25,33;-34,46;4,97;8,44;4,97;8,44;0;0;
30404;-24,97;-35,02;-24,97;-35,02;4,63;9,51;4,63;9,51;0;0;
30421;-28,89;-42,07;-28,89;-42,07;4,32;9,48;4,32;9,48;0;0;
30439;-27,86;-32,13;-27,86;-32,13;3,67;11,78;3,67;11,78;0;0;
30457;-20,96;-102,64;-20,96;-102,64;3,43;16,83;3,43;16,83;0;0;
30476;-43,96;91,38;-43,96;91,38;3,62;34,48;3,62;34,48;0;0;
30492;-15,43;-56,56;-15,43;-56,56;4,03;40,62;4,03;40,62;0;0;
30509;-15,43;-56,56;-15,43;-56,56;4,66;46,54;4,66;46,54;0;0;
30529;-29,07;-16,2;-29,07;-16,2;4,69;52,91;4,69;52,91;0;0;
30545;-19,89;-29,16;-19,89;-29,16;5,56;50,89;5,56;50,89;0;0;
30564;-15,82;-102,09;-15,82;-102,09;5,84;46,46;5,84;46,46;0;0;
30583;-22,67;-108,34;-22,67;-108,34;5,55;41,49;5,55;41,49;0;0;
30601;-6,42;-186,74;-6,42;-186,74;5,52;43,82;5,52;43,82;0;1;
30620;-20,26;-5,24;-20,26;-5,24;5,97;44,55;5,97;44,55;0;1;
30637;-17,52;48,71;-17,52;48,71;6,27;48,29;6,27;48,29;0;1;
30655;-30,69;-52,82;-30,69;-52,82;6,39;55,84;6,39;55,84;0;1;
30673;-20,03;19,34;-20,03;19,34;6,04;51,56;6,04;51,56;0;1;
30691;-24,3;-62,47;-24,3;-62,47;5,38;47,38;5,38;47,38;0;1;
30711;-6,72;-85,27;-6,72;-85,27;5,63;46,26;5,63;46,26;0;1;
30730;-46,89;-41,34;-46,89;-41,34;6,82;54,85;6,82;54,85;0;1;
30746;-46,89;-41,34;-46,89;-41,34;7,11;58,09;7,11;58,09;0;1;
30763;-36,81;0,76;-36,81;0,76;7,52;62,5;7,52;62,5;0;1;
30780;-15,04;-194,17;-15,04;-194,17;7,97;66,74;7,97;66,74;0;1;
30798;-18,87;8,8;-18,87;8,8;8,11;72,49;8,11;72,49;0;1;
30814;-27,4;-74,2;-27,4;-74,2;7,88;73,74;7,88;73,74;0;1;
30831;-36,39;-68,28;-36,39;-68,28;7,19;66,11;7,19;66,11;0;1;
30848;-36,39;-68,28;-36,39;-68,28;6,71;56,37;6,71;56,37;0;1;
30866;-34,3;-142,85;-34,3;-142,85;7,11;53,79;7,11;53,79;0;1;
30890;-21,56;-68,15;-21,56;-68,15;7,65;45,74;7,65;45,74;0;1;
30907;-9,85;-3,13;-9,85;-3,13;8,45;40,06;8,45;40,06;0;1;
30925;-28,26;4,39;-28,26;4,39;9,28;41,59;9,28;41,59;0;1;
30943;-4,07;-92,28;-4,07;-92,28;11,42;44,19;11,42;44,19;0;0;
30961;-15,17;-21,67;-15,17;-21,67;13,14;52,79;13,14;52,79;0;0;
30977;-22,16;-55,17;-22,16;-55,17;13,6;52;13,6;52;0;0;
30995;-36,33;36,61;-36,33;36,61;13,5;53,38;13,5;53,38;0;0;
31014;3,77;32,08;3,77;32,08;15,22;53;15,22;53;0;0;
31034;-28,46;-75,51;-28,46;-75,51;16,14;55,27;16,14;55,27;0;0;
31052;-34,99;-47,97;-34,99;-47,97;14,99;51,53;14,99;51,53;0;0;
31069;-34,99;-47,97;-34,99;-47,97;13,07;44,53;13,07;44,53;0;0;
31086;-8,08;-27,26;-8,08;-27,26;13,86;51,52;13,86;51,52;0;0;
31104;-54,22;-35,21;-54,22;-35,21;14,51;48,96;14,51;48,96;0;0;
31124;-25,88;-145,9;-25,88;-145,9;12,67;44,74;12,67;44,74;0;0;
31146;-38,83;38,21;-38,83;38,21;13,04;43,33;13,04;43,33;0;0;
31166;-19,3;-125,75;-19,3;-125,75;13,15;44,52;13,15;44,52;0;0;
31185;-32,33;-33,02;-32,33;-33,02;12,08;39,13;12,08;39,13;0;0;
31202;-31,13;-14,74;-31,13;-14,74;11,62;35,71;11,62;35,71;0;0;
31221;-27,02;-91,24;-27,02;-91,24;8,89;34,34;8,89;34,34;0;0;
31237;-22,08;47,37;-22,08;47,37;9,21;38,97;9,21;38,97;0;0;
31253;-42,67;5,73;-42,67;5,73;9,16;35,75;9,16;35,75;0;0;
31269;-42,67;5,73;-42,67;5,73;9,61;31,35;9,61;31,35;0;0;
31285;-25,96;-9,16;-25,96;-9,16;11;38,05;11;38,05;0;0;
31301;-12,69;-18,51;-12,69;-18,51;12,18;38,75;12,18;38,75;0;0;
31318;-21,45;34,07;-21,45;34,07;11,79;33,14;11,79;33,14;0;0;
31334;-12,92;-62,23;-12,92;-62,23;10,42;28,34;10,42;28,34;0;0;
31351;-31,43;-9,89;-31,43;-9,89;9,54;31,68;9,54;31,68;0;0;
31369;-31,43;-9,89;-31,43;-9,89;8,58;30,51;8,58;30,51;0;0;
31387;-19,6;-72,8;-19,6;-72,8;6,94;33,09;6,94;33,09;0;0;
31405;-12,3;-114,79;-12,3;-114,79;7,01;34,24;7,01;34,24;0;0;
31423;-28,69;15,13;-28,69;15,13;7,69;38,48;7,69;38,48;0;0;
31442;-19,63;-46,76;-19,63;-46,76;7,01;37,61;7,01;37,61;0;0;
31459;-28,34;-37,96;-28,34;-37,96;5,92;31,72;5,92;31,72;0;0;
31477;-27,56;-38,88;-27,56;-38,88;5,91;30,49;5,91;30,49;0;0;
31493;-37,21;-22,2;-37,21;-22,2;5,73;24,61;5,73;24,61;0;0;
31511;-37,21;-22,2;-37,21;-22,2;5,72;20,33;5,72;20,33;0;0;
31528;-37,21;-22,2;-37,21;-22,2;5,81;18,94;5,81;18,94;0;0;
31545;-12,85;-57,08;-12,85;-57,08;6,79;21,52;6,79;21,52;0;0;
31566;-24,18;-31,43;-24,18;-31,43;6,79;18,63;6,79;18,63;0;0;
31584;-26,28;-70,32;-26,28;-70,32;6,36;16,22;6,36;16,22;0;0;
31602;-24,01;-30,3;-24,01;-30,3;5,46;14,25;5,46;14,25;0;0;
31619;-21,11;-40,98;-21,11;-40,98;5,51;10,82;5,51;10,82;0;0;
31635;-25,98;-19,71;-25,98;-19,71;5;10,34;5;10,34;0;0;
31653;-16,41;-38,89;-16,41;-38,89;5,1;9,32;5,1;9,32;0;0;
31668;-16,41;-38,89;-16,41;-38,89;5,58;10,05;5,58;10,05;0;0;
31684;-16,44;-39,24;-16,44;-39,24;5,99;8,7;5,99;8,7;0;0;
31701;-22,06;-43,32;-22,06;-43,32;6,27;8,11;6,27;8,11;0;0;
31718;-21,43;-32,12;-21,43;-32,12;5,73;7,45;5,73;7,45;0;0;
31737;-25,04;-39,38;-25,04;-39,38;4,54;5,29;4,54;5,29;0;0;
31753;-25,04;-39,38;-25,04;-39,38;3,78;4,17;3,78;4,17;0;0;
31771;-25,98;-46,25;-25,98;-46,25;3,47;4,54;3,47;4,54;0;0;
31787;-25,98;-46,25;-25,98;-46,25;3,15;5,63;3,15;5,63;0;0;
31804;-19,75;-34,48;-19,75;-34,48;2,85;5,82;2,85;5,82;0;0;
31821;-22,35;-37,25;-22,35;-37,25;3,03;5,53;3,03;5,53;0;0;
31839;-27,65;-42,9;-27,65;-42,9;3,39;5,96;3,39;5,96;0;0;
31856;-23,54;-31,48;-23,54;-31,48;3,65;6,2;3,65;6,2;0;0;
31873;-16,62;-43,82;-16,62;-43,82;3,51;5,25;3,51;5,25;0;0;
31892;-22,03;-48,33;-22,03;-48,33;4,47;5,4;4,47;5,4;0;0;
31907;-22,03;-48,33;-22,03;-48,33;5,38;5,6;5,38;5,6;0;0;
31925;-28,09;-37,57;-28,09;-37,57;4,91;6,51;4,91;6,51;0;0;
31942;-58,08;-39,28;-58,08;-39,28;6,76;6,79;6,76;6,79;0;0;
31961;-63,25;-49,74;-63,25;-49,74;12,84;6,31;12,84;6,31;0;0;
31978;-19,48;-42,68;-19,48;-42,68;13,95;6,24;13,95;6,24;0;0;
31995;-23,98;-30,58;-23,98;-30,58;13,32;5,8;13,32;5,8;0;0;
32013;-11,45;-34,62;-11,45;-34,62;13,52;4,9;13,52;4,9;0;0;
32030;-23,55;-44,16;-23,55;-44,16;14,58;5,11;14,58;5,11;0;0;
32047;-23,55;-44,16;-23,55;-44,16;13,49;5,44;13,49;5,44;0;0;
32065;-45,36;-49,54;-45,36;-49,54;9,81;6,43;9,81;6,43;0;0;
32082;4,87;-27,65;4,87;-27,65;12,66;7,2;12,66;7,2;0;0;
32098;1,56;-42,7;1,56;-42,7;20,71;7,05;20,71;7,05;0;0;
32116;-27,92;-42,6;-27,92;-42,6;21,41;7,09;21,41;7,09;0;0;
32133;32,85;-38,12;32,85;-38,12;24,9;6,17;24,9;6,17;0;0;
32151;-43,03;-32,91;-43,03;-32,91;28,69;5,32;28,69;5,32;0;0;
32168;-43,03;-32,91;-43,03;-32,91;32,09;4,57;32,09;4,57;0;0;
32185;-30,03;-50,64;-30,03;-50,64;26,02;3,83;26,02;3,83;0;0;
32202;-46,56;-33,73;-46,56;-33,73;23,75;3,87;23,75;3,87;0;0;
32221;47,99;-34,57;47,99;-34,57;25,92;4,39;25,92;4,39;0;0;
32237;-17,99;-35,82;-17,99;-35,82;25,07;5,38;25,07;5,38;0;0;
32255;-7,71;-29,65;-7,71;-29,65;22,68;5,2;22,68;5,2;0;0;
32272;-33,49;-43,3;-33,49;-43,3;22,5;5,72;22,5;5,72;0;0;
32286;-33,49;-43,3;-33,49;-43,3;23,87;5,92;23,87;5,92;0;0;
32303;-23,47;-42,33;-23,47;-42,33;24,54;5,88;24,54;5,88;0;0;
32321;-26,01;-34,22;-26,01;-34,22;20,8;4,88;20,8;4,88;0;0;
32337;19,74;-38,15;19,74;-38,15;17,04;4,55;17,04;4,55;0;0;
32355;-34,76;-48,69;-34,76;-48,69;23,77;4,31;23,77;4,31;0;0;
32374;2,29;-37,33;2,29;-37,33;24,64;3,62;24,64;3,62;0;0;
32392;-17,49;-33,17;-17,49;-33,17;23,81;3,39;23,81;3,39;0;0;
32408;-17,49;-33,17;-17,49;-33,17;22,99;3,74;22,99;3,74;0;0;
32425;-66,67;-44,75;-66,67;-44,75;24,4;4,63;24,4;4,63;0;0;
32443;-34,99;-36,93;-34,99;-36,93;25,72;5,85;25,72;5,85;0;0;
32463;20,72;-39,79;20,72;-39,79;21,23;5,76;21,23;5,76;0;0;
32484;20,72;-39,79;20,72;-39,79;22,14;5,93;22,14;5,93;1;0;
32501;-4,08;-35,46;-4,08;-35,46;35,84;5,81;35,84;5,81;1;0;
32520;13,88;-45,37;13,88;-45,37;35,3;4,91;35,3;4,91;1;0;
32537;-10,26;-34,5;-10,26;-34,5;34,24;4,45;34,24;4,45;1;0;
32554;-11,16;-36,91;-11,16;-36,91;31,61;3,89;31,61;3,89;1;0;
32573;-18,95;-43,29;-18,95;-43,29;29,29;4,01;29,29;4,01;1;0;
32589;-18,95;-43,29;-18,95;-43,29;18,81;3,92;18,81;3,92;1;0;
32606;-2,66;-32,22;-2,66;-32,22;11,03;4,33;11,03;4,33;1;0;
32626;-56,59;-39,19;-56,59;-39,19;11,23;4,05;11,23;4,05;1;0;
32642;-24,61;-39,3;-24,61;-39,3;10,46;3,89;10,46;3,89;1;0;
32659;-35,12;-39,06;-35,12;-39,06;14,14;3,81;14,14;3,81;1;0;
32677;-43,55;-32,55;-43,55;-32,55;14,96;3,68;14,96;3,68;1;0;
32694;-52,68;-35,62;-52,68;-35,62;17,4;3,93;17,4;3,93;1;0;
32711;-28,66;-41,51;-28,66;-41,51;18,23;2,96;18,23;2,96;1;0;
32729;-28,66;-41,51;-28,66;-41,51;18,22;2,84;18,22;2,84;1;0;
32746;-93,65;-43,09;-93,65;-43,09;19,48;2,68;19,48;2,68;1;0;
32764;-59,21;-51;-59,21;-51;24,99;3,24;24,99;3,24;1;0;
32781;-44,29;-34,97;-44,29;-34,97;23,55;3,34;23,55;3,34;1;0;
32800;-28,62;-36;-28,62;-36;24,93;3,89;24,93;3,89;1;0;
32816;-32,81;-33,85;-32,81;-33,85;26,34;4,33;26,34;4,33;0;0;
32832;-2,9;-48,48;-2,9;-48,48;27,45;4,74;27,45;4,74;0;0;
32849;-2,9;-48,48;-2,9;-48,48;21,73;4,99;21,73;4,99;0;0;
32867;-52,37;-40,51;-52,37;-40,51;21,61;4,19;21,61;4,19;0;0;
32885;30,65;-28,63;30,65;-28,63;21,7;4,32;21,7;4,32;0;0;
32903;16,1;-33,12;16,1;-33,12;20,96;4,59;20,96;4,59;0;0;
32923;-40,59;-38,52;-40,59;-38,52;19,48;4,37;19,48;4,37;0;0;
32940;-3,94;-43,89;-3,94;-43,89;22,1;4,79;22,1;4,79;0;0;
32957;37;-31,82;37;-31,82;25,2;4,92;25,2;4,92;0;0;
32972;39,66;-37,31;39,66;-37,31;28,01;5,32;28,01;5,32;0;0;
32988;39,66;-37,31;39,66;-37,31;30,72;5,2;30,72;5,2;0;0;
33007;-30,28;-40,8;-30,28;-40,8;35,28;5,02;35,28;5,02;0;0;
33028;-60,68;-29,33;-60,68;-29,33;35,15;5,1;35,15;5,1;0;0;
33045;-3,9;-28,85;-3,9;-28,85;36,56;5,38;36,56;5,38;0;0;
33065;-29,82;-47,92;-29,82;-47,92;32,96;5,8;32,96;5,8;0;0;
33083;-18,79;-35,22;-18,79;-35,22;29,43;5,74;29,43;5,74;0;0;
33099;-29,75;-36,07;-29,75;-36,07;28,09;5,65;28,09;5,65;0;0;
33116;-33,52;-45,02;-33,52;-45,02;26,79;5,58;26,79;5,58;0;0;
33135;-40,07;-38,58;-40,07;-38,58;28,11;5,51;28,11;5,51;0;0;
33153;-27,67;-37,49;-27,67;-37,49;36,91;5,21;36,91;5,21;0;0;
33170;-55,1;-26,83;-55,1;-26,83;39,57;5,03;39,57;5,03;0;0;
33188;-55,1;-26,83;-55,1;-26,83;36,44;5,54;36,44;5,54;0;0;
33204;-50,06;-42,08;-50,06;-42,08;34,44;5,73;34,44;5,73;0;0;
33222;-25,73;-37,23;-25,73;-37,23;33,9;6,01;33,9;6,01;0;0;
33239;44,95;-37,13;44,95;-37,13;31,74;5,52;31,74;5,52;0;0;
33257;-31,32;-39,5;-31,32;-39,5;27,51;5,54;27,51;5,54;0;0;
33276;-119,97;-26,92;-119,97;-26,92;34,67;5,98;34,67;5,98;0;0;
33293;34,28;-50,46;34,28;-50,46;38,44;6,15;38,44;6,15;0;0;
33310;61,69;-30,8;61,69;-30,8;41,46;6,11;41,46;6,11;0;0;
33329;61,69;-30,8;61,69;-30,8;45,27;6,15;45,27;6,15;0;0;
33344;-147,87;-29,77;-147,87;-29,77;47,18;6,16;47,18;6,16;0;0;
33361;-36,57;-47,52;-36,57;-47,52;46,92;6,71;46,92;6,71;0;0;
33380;56,08;-39,19;56,08;-39,19;46,79;6;46,79;6;0;0;
33398;-72,21;-34,36;-72,21;-34,36;47,06;5,49;47,06;5,49;0;0;
33414;-38,27;-46,68;-38,27;-46,68;44,16;6,27;44,16;6,27;0;0;
33431;-11,83;-36,71;-11,83;-36,71;44,31;6,41;44,31;6,41;0;0;
33448;-11,83;-36,71;-11,83;-36,71;41,12;6,08;41,12;6,08;0;0;
33467;-51,61;-42,24;-51,61;-42,24;37,81;6,21;37,81;6,21;0;0;
33485;-24,69;-43,66;-24,69;-43,66;31,39;5,92;31,39;5,92;0;0;
33501;1,44;-40,97;1,44;-40,97;27,15;5,31;27,15;5,31;0;0;
33520;-26,23;-36,94;-26,23;-36,94;24,07;4,39;24,07;4,39;0;0;
33537;-25,26;-30,23;-25,26;-30,23;16,04;4,35;16,04;4,35;0;0;
33556;119,49;-43,42;119,49;-43,42;15,79;3,81;15,79;3,81;0;0;
33573;-27,38;-45,35;-27,38;-45,35;16,5;3,7;16,5;3,7;0;0;
33589;-27,38;-45,35;-27,38;-45,35;18,1;3,73;18,1;3,73;0;0;
33606;-22,22;-44,78;-22,22;-44,78;18,41;4,22;18,41;4,22;0;0;
33623;-17,78;-36,88;-17,78;-36,88;17,11;4,55;17,11;4,55;0;0;
33639;47,39;-46;47,39;-46;17,95;4,98;17,95;4,98;0;0;
33658;47,39;-46;47,39;-46;19,6;4,86;19,6;4,86;0;0;
33675;-39,95;-39,29;-39,95;-39,29;11,86;4,76;11,86;4,76;0;0;
33692;-35,92;-39,22;-35,92;-39,22;10,78;5,29;10,78;5,29;0;0;
33711;-17,05;-42,68;-17,05;-42,68;12,5;5,43;12,5;5,43;0;0;
33727;-17,05;-42,68;-17,05;-42,68;14,18;5,53;14,18;5,53;0;0;
33743;-23,66;-48,36;-23,66;-48,36;12,48;5,03;12,48;5,03;0;0;
33763;-23,55;-37,29;-23,55;-37,29;14,56;5,1;14,56;5,1;0;0;
33780;-64,62;-39,07;-64,62;-39,07;19,7;5,32;19,7;5,32;0;0;
33799;-30,78;-41,58;-30,78;-41,58;21,97;5,52;21,97;5,52;0;0;
33816;-37,95;-43,55;-37,95;-43,55;21,75;4,91;21,75;4,91;0;0;
33833;-27,52;-32,04;-27,52;-32,04;21,75;5,01;21,75;5,01;0;0;
33852;-22,31;-31,66;-22,31;-31,66;18,84;5,2;18,84;5,2;0;0;
33870;-4,99;-30,39;-4,99;-30,39;18,32;4,73;18,32;4,73;0;0;
33888;-4,99;-30,39;-4,99;-30,39;13,5;3,92;13,5;3,92;0;0;
33903;-36,45;-38,59;-36,45;-38,59;14,6;4,67;14,6;4,67;0;0;
33921;-26,63;-28,89;-26,63;-28,89;13,81;4,82;13,81;4,82;0;0;
33937;-14,65;-37,4;-14,65;-37,4;13,78;4,83;13,78;4,83;0;0;
33956;-22,53;-36,6;-22,53;-36,6;13,69;4,71;13,69;4,71;0;0;
33973;-21,33;-42,35;-21,33;-42,35;11;4,48;11;4,48;0;0;
33990;-23,97;-34,93;-23,97;-34,93;5,02;3,84;5,02;3,84;0;0;
34006;-23,97;-34,93;-23,97;-34,93;3,23;3,82;3,23;3,82;0;0;
34022;-27,49;-31,7;-27,49;-31,7;3,22;3,89;3,22;3,89;0;0;
34040;-25,19;-37,65;-25,19;-37,65;2,84;3,89;2,84;3,89;0;0;
34057;-20,97;-45,28;-20,97;-45,28;2,83;4,54;2,83;4,54;0;0;
34084;-24,49;-26,56;-24,49;-26,56;3;4,71;3;4,71;0;0;
34103;-30,26;-46,55;-30,26;-46,55;2,98;4,89;2,98;4,89;0;0;
34124;-25,41;-35,98;-25,41;-35,98;2,91;5,35;2,91;5,35;0;0;
34144;-23,5;-41,86;-23,5;-41,86;2,92;4,7;2,92;4,7;0;0;
34161;-24,5;-38,22;-24,5;-38,22;2,7;4,97;2,7;4,97;0;0;
34180;-23,03;-38,91;-23,03;-38,91;2,56;5,12;2,56;5,12;0;0;
34198;-26,08;-33,27;-26,08;-33,27;2,77;5,06;2,77;5,06;0;0;
34215;-26,93;-34,93;-26,93;-34,93;2,83;4,01;2,83;4,01;0;0;
34232;-24,37;-42,08;-24,37;-42,08;2,68;4,12;2,68;4,12;0;0;
34250;-24,37;-42,08;-24,37;-42,08;2,25;3,7;2,25;3,7;0;0;
34269;-14,92;57,49;-14,92;57,49;3,21;10,87;3,21;10,87;0;0;
34287;-17,23;-54,98;-17,23;-54,98;3,59;17,39;3,59;17,39;0;0;
34304;-23,8;-40,49;-23,8;-40,49;3,6;17,13;3,6;17,13;0;0;
34322;-24,02;-43,22;-24,02;-43,22;4,11;17,17;4,11;17,17;0;0;
34338;-23,59;-35,15;-23,59;-35,15;4,29;16,93;4,29;16,93;0;0;
34355;-22,64;-35,71;-22,64;-35,71;4,01;17,05;4,01;17,05;0;0;
34371;-24,99;-47,15;-24,99;-47,15;3,14;5,6;3,14;5,6;0;0;
34387;-24,99;-47,15;-24,99;-47,15;2,69;3,8;2,69;3,8;0;0;
34404;-23,38;-74,1;-23,38;-74,1;2,33;5,59;2,33;5,59;0;1;
34423;-23,37;-50,32;-23,37;-50,32;2,34;6,04;2,34;6,04;0;1;
34442;-27,31;-38,12;-27,31;-38,12;2,48;6,12;2,48;6,12;0;1;
34458;-19,61;-38,6;-19,61;-38,6;2,31;5,99;2,31;5,99;0;1;
34474;-20,7;-33,39;-20,7;-33,39;2,35;5,78;2,35;5,78;0;1;
34491;-21,11;-44,24;-21,11;-44,24;2,77;5,15;2,77;5,15;0;1;
34506;-21,11;-44,24;-21,11;-44,24;3,23;4,01;3,23;4,01;0;1;
34522;-25,41;-42,45;-25,41;-42,45;3,45;3,64;3,45;3,64;0;1;
34540;-28,58;-39,29;-28,58;-39,29;3,6;3,56;3,6;3,56;0;1;
34558;-17,77;-93,21;-17,77;-93,21;3,88;10,41;3,88;10,41;0;1;
34575;-27,96;-124,27;-27,96;-124,27;4,03;25,03;4,03;25,03;0;1;
34590;-27,45;-27,6;-27,45;-27,6;3,88;30,56;3,88;30,56;0;1;
34609;-27,45;-27,6;-27,45;-27,6;3,85;36,31;3,85;36,31;0;1;
34625;-9,09;20,4;-9,09;20,4;4,04;43,25;4,04;43,25;0;1;
34642;-31,57;-96,3;-31,57;-96,3;4,75;44,89;4,75;44,89;0;1;
34662;-15,65;-62,29;-15,65;-62,29;5,63;46,09;5,63;46,09;0;1;
34679;-40,27;-100,69;-40,27;-100,69;6,84;41,06;6,84;41,06;0;1;
34694;-24,9;-15,75;-24,9;-15,75;7,08;41,7;7,08;41,7;0;1;
34713;7,87;7,42;7,87;7,42;7,59;43,86;7,59;43,86;0;1;
34732;-25,13;-26,2;-25,13;-26,2;8,03;42,3;8,03;42,3;0;1;
34750;-14,95;-47,82;-14,95;-47,82;8,92;41,33;8,92;41,33;0;0;
34766;-14,95;-47,82;-14,95;-47,82;9,2;38,52;9,2;38,52;0;0;
34784;-25,49;-15,89;-25,49;-15,89;8,52;38,04;8,52;38,04;0;0;
34801;-11,7;-252,5;-11,7;-252,5;8,87;41,82;8,87;41,82;0;0;
34819;-33,21;-68,93;-33,21;-68,93;8,16;38,4;8,16;38,4;0;0;
34837;-26,98;-106,97;-26,98;-106,97;8,09;41,29;8,09;41,29;0;0;
34858;-12,73;-32,32;-12,73;-32,32;7,52;44,95;7,52;44,95;0;0;
34876;-19,87;-104,26;-19,87;-104,26;8,2;52,77;8,2;52,77;0;0;
34896;-37,61;90,26;-37,61;90,26;9,05;53,35;9,05;53,35;0;0;
34915;-9,22;-107,77;-9,22;-107,77;8,79;51,36;8,79;51,36;0;0;
34934;-33,21;-67,85;-33,21;-67,85;7,95;53,72;7,95;53,72;0;0;
34951;-26,71;-21,16;-26,71;-21,16;8,36;54,74;8,36;54,74;0;0;
34969;-26,71;-21,16;-26,71;-21,16;8,97;54,08;8,97;54,08;0;0;
34986;-26,87;48,92;-26,87;48,92;8,96;56,88;8,96;56,88;0;0;
35003;-23,12;-97,54;-23,12;-97,54;10,67;53,93;10,67;53,93;0;0;
35019;-20,45;-62,39;-20,45;-62,39;11,27;54,59;11,27;54,59;0;0;
35036;-16,05;-51,6;-16,05;-51,6;10,96;49,65;10,96;49,65;0;0;
35053;-37,85;-119,12;-37,85;-119,12;10,55;47,68;10,55;47,68;0;0;
35072;-29,95;-75,18;-29,95;-75,18;10,67;44,45;10,67;44,45;0;0;
35088;-29,95;-75,18;-29,95;-75,18;10;33,19;10;33,19;0;0;
35102;-24,26;-75,79;-24,26;-75,79;8,52;32,75;8,52;32,75;0;0;
35121;-27,94;-58,99;-27,94;-58,99;7,98;29,94;7,98;29,94;1;0;
35138;-22,58;-39,12;-22,58;-39,12;7,67;26,96;7,67;26,96;1;0;
35156;-27,44;-43,42;-27,44;-43,42;7,04;21,93;7,04;21,93;1;0;
35172;-14,55;141,98;-14,55;141,98;6,25;24,12;6,25;24,12;1;0;
35189;-14,55;141,98;-14,55;141,98;5,27;24,91;5,27;24,91;1;0;
35206;-49,65;63,82;-49,65;63,82;8,29;35,75;8,29;35,75;1;0;
35224;-22,05;-31,86;-22,05;-31,86;7,14;43,57;7,14;43,57;1;0;
35242;-21,76;-58,12;-21,76;-58,12;7,54;47,35;7,54;47,35;1;0;
35262;-17,2;-26,7;-17,2;-26,7;7,97;50,56;7,97;50,56;1;0;
35279;-24,47;-34,25;-24,47;-34,25;7,95;44,53;7,95;44,53;1;0;
35294;-27,24;-46,44;-27,24;-46,44;7,19;34,6;7,19;34,6;1;0;
35309;-27,24;-46,44;-27,24;-46,44;5,11;15,83;5,11;15,83;1;0;
35326;-16,81;-25,09;-16,81;-25,09;5,33;13,88;5,33;13,88;1;0;
35345;-31,7;-90,55;-31,7;-90,55;5,72;17,13;5,72;17,13;1;0;
35364;-35,78;-38,17;-35,78;-38,17;6,16;24,3;6,16;24,3;1;0;
35381;-19,89;-33,72;-19,89;-33,72;7,09;25,72;7,09;25,72;1;0;
35402;-19,78;-43,07;-19,78;-43,07;6,66;25,45;6,66;25,45;1;0;
35418;-24,5;-32,9;-24,5;-32,9;5,88;25,4;5,88;25,4;1;0;
35435;-16,5;-41,23;-16,5;-41,23;5,69;18,48;5,69;18,48;1;0;
35452;-28,41;-41,1;-28,41;-41,1;4,35;9,55;4,35;9,55;1;0;
35469;-28,41;-41,1;-28,41;-41,1;3,78;3,83;3,78;3,83;1;0;
35487;-23,3;-39,39;-23,3;-39,39;3,27;3,09;3,27;3,09;0;0;
35503;-7,4;-38,27;-7,4;-38,27;4,09;3,25;4,09;3,25;0;0;
35521;28,21;-35,96;28,21;-35,96;10,55;3,54;10,55;3,54;0;0;
35537;-145,42;-44;-145,42;-44;17,99;3,64;17,99;3,64;0;0;
35555;15,18;-40,88;15,18;-40,88;37,07;4,06;37,07;4,06;0;0;
35575;53,35;-28,88;53,35;-28,88;48,43;4,84;48,43;4,84;0;0;
35593;-32,19;-51,97;-32,19;-51,97;56,31;6,19;56,31;6,19;0;0;
35609;-32,19;-51,97;-32,19;-51,97;60,88;6,84;60,88;6,84;0;0;
35626;-55,89;-31,35;-55,89;-31,35;56,98;8,53;56,98;8,53;0;0;
35644;-18,49;-49,51;-18,49;-49,51;45,66;8,79;45,66;8,79;0;0;
35664;-11,85;-41,51;-11,85;-41,51;38,75;9,1;38,75;9,1;0;0;
35688;-12,32;-34,26;-12,32;-34,26;25,2;8,79;25,2;8,79;0;0;
35706;-12,12;-31,34;-12,12;-31,34;17,66;7,85;17,66;7,85;0;0;
35726;-65,71;-37,53;-65,71;-37,53;16,78;6,68;16,78;6,68;0;0;
35742;-33,1;-28,74;-33,1;-28,74;14,27;4,92;14,27;4,92;0;0;
35760;-33,1;-28,74;-33,1;-28,74;12,06;3,77;12,06;3,77;0;0;
35779;-34,76;-46,75;-34,76;-46,75;13,05;3,92;13,05;3,92;0;0;
35795;-37,84;-28,75;-37,84;-28,75;13,19;4,11;13,19;4,11;0;0;
35812;-19,03;-35,28;-19,03;-35,28;17,22;4,5;17,22;4,5;0;0;
35827;-19,03;-35,28;-19,03;-35,28;19,33;5,1;19,33;5,1;0;0;
35843;-87,45;-36,87;-87,45;-36,87;21,42;5,17;21,42;5,17;0;0;
35863;-33,36;-35,24;-33,36;-35,24;23,05;4,95;23,05;4,95;0;0;
35883;-46,76;-41,5;-46,76;-41,5;33,04;4,9;33,04;4,9;0;0;
35900;30,23;-35,76;30,23;-35,76;35,02;4,76;35,02;4,76;0;0;
35919;-23,17;-35,73;-23,17;-35,73;36,34;4,15;36,34;4,15;0;0;
35937;13,07;-41,57;13,07;-41,57;35,93;4,44;35,93;4,44;0;0;
35954;7,63;-36,69;7,63;-36,69;35,14;4,26;35,14;4,26;0;0;
35972;-21,55;-35;-21,55;-35;31,94;4,61;31,94;4,61;0;0;
35989;-28,87;-45,58;-28,87;-45,58;27,89;4,94;27,89;4,94;0;0;
36006;-28,87;-45,58;-28,87;-45,58;25,72;5,05;25,72;5,05;0;0;
36022;-4,34;-41,58;-4,34;-41,58;27,5;5,34;27,5;5,34;0;0;
36040;49,54;-28,13;49,54;-28,13;30,16;5,19;30,16;5,19;0;0;
36066;-34,83;-32,21;-34,83;-32,21;28,37;5,39;28,37;5,39;0;0;
36087;-34,59;-44,6;-34,59;-44,6;29,14;5,19;29,14;5,19;0;0;
36105;-61,98;-50,13;-61,98;-50,13;26,71;5,52;26,71;5,52;0;0;
36122;-15,45;-38,33;-15,45;-38,33;23,9;5,08;23,9;5,08;0;0;
36139;-69,64;-38,7;-69,64;-38,7;25,81;5,67;25,81;5,67;0;0;
36157;-4,74;-43,32;-4,74;-43,32;24,37;5,69;24,37;5,69;0;0;
36173;-20,96;-40,64;-20,96;-40,64;25,24;5,52;25,24;5,52;0;0;
36188;-20,96;-40,64;-20,96;-40,64;26,26;5,76;26,26;5,76;0;0;
36205;-24,79;-30,77;-24,79;-30,77;27,61;5,61;27,61;5,61;0;0;
36222;-35,2;-50,53;-35,2;-50,53;29,27;5,62;29,27;5,62;0;0;
36239;47;-49,08;47;-49,08;29,8;6,03;29,8;6,03;0;0;
36257;-71,99;-40,52;-71,99;-40,52;33,43;6,3;33,43;6,3;0;0;
36274;-37,36;-44,87;-37,36;-44,87;33,21;6,68;33,21;6,68;0;0;
36288;-37,36;-44,87;-37,36;-44,87;31,5;7,17;31,5;7,17;0;0;
36305;-36,47;-34,37;-36,47;-34,37;27,21;6,47;27,21;6,47;0;1;
36323;-46,37;-39,56;-46,37;-39,56;29,22;6,52;29,22;6,52;0;1;
36340;-15,04;-47,64;-15,04;-47,64;28,03;5,66;28,03;5,66;0;1;
36359;-28,51;-41,64;-28,51;-41,64;28,41;5,39;28,41;5,39;0;1;
36375;10,8;-34,25;10,8;-34,25;28,63;4,46;28,63;4,46;0;1;
36392;-31,86;-39,26;-31,86;-39,26;28,32;3,99;28,32;3,99;0;1;
36410;-22,04;-36,78;-22,04;-36,78;27,25;4,13;27,25;4,13;0;1;
36428;-22,04;-36,78;-22,04;-36,78;18,32;4,12;18,32;4,12;0;1;
36444;-71,05;-37,55;-71,05;-37,55;15,95;3,7;15,95;3,7;0;1;
36461;-2,67;-38,61;-2,67;-38,61;16,37;4,21;16,37;4,21;0;1;
36478;-33,11;-36,45;-33,11;-36,45;14,52;4;14,52;4;0;1;
36497;-29,99;-43,51;-29,99;-43,51;14,32;4,05;14,32;4,05;0;1;
36514;-25,85;-35,06;-25,85;-35,06;13,87;3,54;13,87;3,54;0;1;
36533;-14,14;-36,71;-14,14;-36,71;13,42;3,46;13,42;3,46;0;1;
36551;-24,14;-36,31;-24,14;-36,31;8,65;3,3;8,65;3,3;0;1;
36569;-24,14;-36,31;-24,14;-36,31;5,04;3,15;5,04;3,15;0;1;
36586;-24,85;-28,57;-24,85;-28,57;4,43;3,77;4,43;3,77;0;1;
36604;-32,18;-34,45;-32,18;-34,45;3,68;3,75;3,68;3,75;0;1;
36622;-27,35;-49,03;-27,35;-49,03;3,89;3,92;3,89;3,92;0;1;
36638;-23,67;-36,8;-23,67;-36,8;4,17;3,89;4,17;3,89;0;1;
36655;-26,33;-46,72;-26,33;-46,72;4;4,69;4;4,69;0;0;
36674;-20,55;-33,55;-20,55;-33,55;3,59;4,7;3,59;4,7;0;0;
36691;-17,87;-43,29;-17,87;-43,29;3,48;5,23;3,48;5,23;0;0;
36709;-17,87;-43,29;-17,87;-43,29;2,74;6,17;2,74;6,17;0;0;
36730;-26,68;-114,55;-26,68;-114,55;2,56;11,97;2,56;11,97;0;0;
36746;-11,94;-16,4;-11,94;-16,4;2,95;19,22;2,95;19,22;0;0;
36763;-28,8;-57,72;-28,8;-57,72;3,53;27,39;3,53;27,39;0;0;
36778;-31,95;57,38;-31,95;57,38;4,61;32,91;4,61;32,91;0;0;
36797;-28,69;163,12;-28,69;163,12;5,5;49,02;5,5;49,02;0;0;
36816;-26,16;-260,98;-26,16;-260,98;7;60,23;7;60,23;0;0;
36835;-17,74;-65,12;-17,74;-65,12;8,67;71,48;8,67;71,48;0;0;
36852;-23,9;57,15;-23,9;57,15;8,9;70,1;8,9;70,1;0;0;
