Time;EMG1;EMG2;EMG3;EMG4;EMG1_F;EMG2_F;EMG3_F;EMG4_F;Note_R;Note_V;;Level 3;Joueur;Score;Notes hit;% Reussite R;Offset EMG1;Onset EMG1;% Reussite V;Offset EMG2;Onset EMG2
9;-18,98;-40,51;-18,98;-40,51;3,29;3,02;3,29;3,02;0;0;;;1;2200;22;18,18182;-24,43942;41,62749;4,040404;-39,47203;11,50049
30;-26,76;-43,13;-26,76;-43,13;3,4;2,8;3,4;2,8;0;0;;;2;3400;34;21,21212;-24,43942;41,62749;13,13131;-39,47203;11,50049
51;-25,08;-41,6;-25,08;-41,6;3,62;2,99;3,62;2,99;0;0;
71;-26,67;-35,74;-26,67;-35,74;3,36;2,85;3,36;2,85;0;0;
88;-21,17;-43,61;-21,17;-43,61;3,11;2,79;3,11;2,79;0;0;
107;-20,24;-40,93;-20,24;-40,93;3,06;2,58;3,06;2,58;0;0;
123;-23,96;-34,34;-23,96;-34,34;3,16;2,77;3,16;2,77;0;0;
140;-23,96;-34,34;-23,96;-34,34;3,46;2,98;3,46;2,98;0;0;
158;-18,88;-38,44;-18,88;-38,44;3,3;2,86;3,3;2,86;0;0;
176;-20,04;-37,91;-20,04;-37,91;3,27;3,02;3,27;3,02;0;0;
194;-28,41;-38,55;-28,41;-38,55;3,49;2,94;3,49;2,94;0;0;
211;-37,58;-43,02;-37,58;-43,02;3,41;3,17;3,41;3,17;0;0;
228;-23,79;-46,36;-23,79;-46,36;3,98;2,96;3,98;2,96;0;0;
245;-21,79;-35,21;-21,79;-35,21;4,2;2,95;4,2;2,95;0;0;
263;-24,47;-45,02;-24,47;-45,02;3,75;3,18;3,75;3,18;0;0;
279;-24,47;-45,02;-24,47;-45,02;3,4;3,46;3,4;3,46;0;0;
296;-23,18;-31,93;-23,18;-31,93;3,64;3,73;3,64;3,73;0;0;
317;-23,86;-41,65;-23,86;-41,65;3,16;3,66;3,16;3,66;0;0;
336;-32,45;-37,33;-32,45;-37,33;2,93;3,62;2,93;3,62;0;0;
353;-21,45;-36,9;-21,45;-36,9;2,74;3,47;2,74;3,47;0;0;
372;-32,36;-37,51;-32,36;-37,51;2,97;3,41;2,97;3,41;0;0;
392;-24,97;-41,64;-24,97;-41,64;3,14;3,1;3,14;3,1;0;0;
413;-31,6;-38,06;-31,6;-38,06;2,84;2,96;2,84;2,96;0;0;
431;-24,53;-38,97;-24,53;-38,97;2,88;3,08;2,88;3,08;0;0;
451;-25,95;-39,19;-25,95;-39,19;3,79;2,93;3,79;2,93;0;0;
471;-33,13;-40,1;-33,13;-40,1;4,16;2,78;4,16;2,78;0;0;
488;-30,05;-39,76;-30,05;-39,76;6,72;2,92;6,72;2,92;0;0;
506;-27,82;-37,86;-27,82;-37,86;7,11;2,85;7,11;2,85;0;0;
525;-29,42;-39,27;-29,42;-39,27;7,09;3,09;7,09;3,09;0;0;
542;-29,42;-39,27;-29,42;-39,27;7,76;3,28;7,76;3,28;0;0;
560;-17,17;-45,51;-17,17;-45,51;6,3;3,51;6,3;3,51;0;0;
577;-23,19;-37,17;-23,19;-37,17;4,88;3,23;4,88;3,23;0;0;
595;-29,28;-40,9;-29,28;-40,9;4,62;3,58;4,62;3,58;0;0;
613;-25,07;-33,54;-25,07;-33,54;3,89;3,58;3,89;3,58;0;0;
628;-28,42;-33,14;-28,42;-33,14;3,23;3,62;3,23;3,62;0;0;
645;-31,38;-41,38;-31,38;-41,38;3,01;3,58;3,01;3,58;0;0;
662;-14,85;-46,62;-14,85;-46,62;3,57;4,04;3,57;4,04;0;0;
679;-14,85;-46,62;-14,85;-46,62;3,96;4,59;3,96;4,59;0;0;
695;-27,38;-33,84;-27,38;-33,84;4,23;4,32;4,23;4,32;0;0;
714;-26,3;-36,85;-26,3;-36,85;4,63;4,5;4,63;4,5;0;0;
736;-29,85;-39,57;-29,85;-39,57;4,68;4,14;4,68;4,14;0;0;
754;-14,77;-38,8;-14,77;-38,8;4,52;3,56;4,52;3,56;0;0;
773;-23,39;-40,95;-23,39;-40,95;4,55;3,11;4,55;3,11;0;0;
793;-35,97;-41,09;-35,97;-41,09;4,51;3,36;4,51;3,36;0;0;
811;-21,8;-31,29;-21,8;-31,29;5,24;3,14;5,24;3,14;0;0;
829;-30,67;-44,86;-30,67;-44,86;5,29;3,13;5,29;3,13;0;0;
846;-25,49;-34,53;-25,49;-34,53;5,19;3,08;5,19;3,08;0;0;
862;-20,8;-39,13;-20,8;-39,13;4,47;3,05;4,47;3,05;0;0;
886;-24,98;-42,24;-24,98;-42,24;5,06;2,98;5,06;2,98;0;0;
903;-20,73;-36,76;-20,73;-36,76;5,34;2,85;5,34;2,85;0;0;
921;-20,73;-36,76;-20,73;-36,76;6,46;2,71;6,46;2,71;0;0;
939;9,54;-42,75;9,54;-42,75;10,62;2,69;10,62;2,69;0;0;
955;-28,29;-38,84;-28,29;-38,84;13,46;2,84;13,46;2,84;0;0;
973;-26,48;-48,96;-26,48;-48,96;15,41;3,03;15,41;3,03;0;0;
992;15,76;-36,32;15,76;-36,32;17,35;2,87;17,35;2,87;0;0;
1011;-35,67;-36,74;-35,67;-36,74;17,66;3,08;17,66;3,08;0;0;
1030;-11,09;-35,1;-11,09;-35,1;18,61;3,15;18,61;3,15;0;0;
1048;-16,31;-38,19;-16,31;-38,19;14,08;3,15;14,08;3,15;0;0;
1068;-11,81;-32,22;-11,81;-32,22;15,6;3,18;15,6;3,18;0;0;
1085;-36,43;-40,35;-36,43;-40,35;14,93;3,49;14,93;3,49;0;0;
1102;-60,02;-39,12;-60,02;-39,12;14,12;3,56;14,12;3,56;0;0;
1120;-60,02;-39,12;-60,02;-39,12;14,73;3,46;14,73;3,46;0;0;
1135;-35,62;-43,08;-35,62;-43,08;15,32;3,16;15,32;3,16;0;0;
1153;-33,55;-41,29;-33,55;-41,29;14,45;3,18;14,45;3,18;0;0;
1172;-14,63;-36,27;-14,63;-36,27;13,97;3,05;13,97;3,05;0;0;
1191;-23,89;-42,57;-23,89;-42,57;12,1;2,89;12,1;2,89;0;0;
1208;-28,16;-39,98;-28,16;-39,98;9,74;2,73;9,74;2,73;0;0;
1226;-25,59;-39,8;-25,59;-39,8;6,7;2,83;6,7;2,83;0;0;
1244;-5,48;-40,59;-5,48;-40,59;6,55;2,8;6,55;2,8;0;0;
1260;-5,48;-40,59;-5,48;-40,59;8,71;2,71;8,71;2,71;0;0;
1278;-30,13;-38,57;-30,13;-38,57;10,27;2,58;10,27;2,58;0;0;
1295;-67,9;-36;-67,9;-36;12,77;2,84;12,77;2,84;0;0;
1315;-23,17;-41,26;-23,17;-41,26;16,52;2,96;16,52;2,96;0;0;
1332;-24,67;-35,8;-24,67;-35,8;17,09;3,16;17,09;3,16;0;0;
1349;-13,69;-44,52;-13,69;-44,52;14,99;3,38;14,99;3,38;0;0;
1366;-30,84;-41,51;-30,84;-41,51;12,81;3,49;12,81;3,49;0;0;
1388;-22,02;-40,18;-22,02;-40,18;10,9;3,51;10,9;3,51;0;0;
1406;-15,06;-42,8;-15,06;-42,8;6,11;3,55;6,11;3,55;0;0;
1423;-24,62;-38,67;-24,62;-38,67;4,91;3,69;4,91;3,69;0;0;
1443;-24,79;-40,59;-24,79;-40,59;3,51;3,99;3,51;3,99;0;0;
1463;-23,26;-40,83;-23,26;-40,83;3,96;3,83;3,96;3,83;0;0;
1484;-22,99;-42,57;-22,99;-42,57;3,91;3,91;3,91;3,91;0;0;
1500;-22,99;-42,57;-22,99;-42,57;3,9;3,97;3,9;3,97;0;0;
1518;-21,78;-45,57;-21,78;-45,57;3,72;3,92;3,72;3,92;0;0;
1535;-30,21;-40,09;-30,21;-40,09;4,01;4,01;4,01;4,01;0;0;
1554;-20,57;-36,97;-20,57;-36,97;4,18;3,58;4,18;3,58;0;0;
1573;-23,05;-38,8;-23,05;-38,8;4,54;3,6;4,54;3,6;0;0;
1592;-21,43;-39,35;-21,43;-39,35;4,84;3,59;4,84;3,59;0;0;
1610;-25,33;-39,81;-25,33;-39,81;4,59;3,51;4,59;3,51;0;0;
1629;-27,45;-38,18;-27,45;-38,18;4,75;3,21;4,75;3,21;0;0;
1647;-24,28;-40,25;-24,28;-40,25;4,55;2,9;4,55;2,9;0;0;
1663;-19,82;-41,33;-19,82;-41,33;4,22;3,01;4,22;3,01;0;0;
1680;-19,82;-41,33;-19,82;-41,33;3,94;3,09;3,94;3,09;0;0;
1698;-28,06;-33,29;-28,06;-33,29;3,89;3,46;3,89;3,46;0;0;
1718;-18,79;-42,86;-18,79;-42,86;4,01;3,45;4,01;3,45;0;0;
1734;-26,94;-40,24;-26,94;-40,24;3,38;3,14;3,38;3,14;0;0;
1753;-24,87;-39,75;-24,87;-39,75;3,51;3,37;3,51;3,37;0;0;
1770;-24,69;-40,42;-24,69;-40,42;3,6;3,21;3,6;3,21;0;0;
1792;-33,09;-38,16;-33,09;-38,16;3,91;2,55;3,91;2,55;0;0;
1810;-25,86;-44,19;-25,86;-44,19;4,06;2,76;4,06;2,76;0;0;
1828;-23,97;-41,74;-23,97;-41,74;3,81;2,94;3,81;2,94;0;0;
1847;-28,88;-38,06;-28,88;-38,06;4,05;3,14;4,05;3,14;0;0;
1866;-26,46;-35,62;-26,46;-35,62;3,97;3,31;3,97;3,31;0;0;
1882;-26,17;-35,62;-26,17;-35,62;3,44;3,66;3,44;3,66;0;0;
1902;-28,02;-37,9;-28,02;-37,9;3,43;3,9;3,43;3,9;0;0;
1920;-28,02;-37,9;-28,02;-37,9;3,67;4,11;3,67;4,11;0;0;
1936;-25,12;-40,25;-25,12;-40,25;3,86;3,79;3,86;3,79;0;0;
1953;-27,58;-43,71;-27,58;-43,71;3,65;3,51;3,65;3,51;0;0;
1971;-27,46;-31,05;-27,46;-31,05;3,73;4,07;3,73;4,07;0;0;
1990;-26,37;-45,95;-26,37;-45,95;6,69;3,65;6,69;3,65;0;0;
2008;-9,85;-31,99;-9,85;-31,99;8,33;3,64;8,33;3,64;0;0;
2025;-12,4;-36,52;-12,4;-36,52;9,49;3,58;9,49;3,58;0;0;
2044;-29,62;-40,38;-29,62;-40,38;9,67;3,85;9,67;3,85;0;0;
2063;-36,32;-37,07;-36,32;-37,07;10,12;3,05;10,12;3,05;0;0;
2082;-27,98;-45,93;-27,98;-45,93;8,48;2,81;8,48;2,81;0;0;
2098;-27,98;-45,93;-27,98;-45,93;6,72;2,59;6,72;2,59;0;0;
2118;-23,41;-34,24;-23,41;-34,24;4,59;2,34;4,59;2,34;0;0;
2135;-30,55;-36,56;-30,55;-36,56;3,6;2,49;3,6;2,49;0;0;
2154;-21,93;-38,3;-21,93;-38,3;4,11;2,56;4,11;2,56;0;0;
2170;-17,78;-45,24;-17,78;-45,24;3,85;2,84;3,85;2,84;0;0;
2189;-14,96;-40,47;-14,96;-40,47;3,99;3,13;3,99;3,13;0;0;
2206;-30,49;-38,65;-30,49;-38,65;4,26;3,2;4,26;3,2;0;0;
2223;-29,88;-39,39;-29,88;-39,39;4,55;3,07;4,55;3,07;0;0;
2240;-29,88;-39,39;-29,88;-39,39;4,82;2,83;4,82;2,83;0;0;
2257;-18,23;-28,78;-18,23;-28,78;4,45;3,21;4,45;3,21;0;0;
2275;-29,07;-37,16;-29,07;-37,16;4,15;3,06;4,15;3,06;0;0;
2292;-27,68;-37,4;-27,68;-37,4;4,02;3,04;4,02;3,04;0;0;
2310;-29,87;-49,42;-29,87;-49,42;3,66;3,12;3,66;3,12;0;0;
2328;-23,49;-35,13;-23,49;-35,13;3,52;3,34;3,52;3,34;0;0;
2345;-24,97;-40,86;-24,97;-40,86;3,27;3,28;3,27;3,28;0;0;
2362;-19,86;-33,62;-19,86;-33,62;3,04;3,27;3,04;3,27;0;0;
2380;-19,86;-33,62;-19,86;-33,62;2,54;3,61;2,54;3,61;0;0;
2399;-25,2;-36,63;-25,2;-36,63;2,48;3,67;2,48;3,67;0;0;
2418;-31,57;-38,86;-31,57;-38,86;2,37;3,79;2,37;3,79;0;0;
2436;-17,88;-40,6;-17,88;-40,6;2,49;4,04;2,49;4,04;0;0;
2454;-28,77;-32,65;-28,77;-32,65;2,73;4,14;2,73;4,14;0;0;
2471;-18,13;-40,37;-18,13;-40,37;2,94;3,74;2,94;3,74;0;0;
2489;-30,47;-37,7;-30,47;-37,7;2,92;3,49;2,92;3,49;0;0;
2507;-23,46;-30,38;-23,46;-30,38;3,09;3,28;3,09;3,28;0;0;
2530;-26,48;-43,17;-26,48;-43,17;3,43;3,09;3,43;3,09;0;0;
2548;-31,47;-43,44;-31,47;-43,44;3,53;2,94;3,53;2,94;0;0;
2564;-21,8;-39,11;-21,8;-39,11;3,37;2,59;3,37;2,59;0;0;
2581;-21,8;-39,11;-21,8;-39,11;3,34;2,62;3,34;2,62;0;0;
2599;-26,53;-44,81;-26,53;-44,81;3,07;2,56;3,07;2,56;0;0;
2618;-22,8;-35,23;-22,8;-35,23;3,21;2,61;3,21;2,61;0;0;
2636;-22,52;-43,94;-22,52;-43,94;2,37;2,92;2,37;2,92;0;0;
2654;-30,73;-43,79;-30,73;-43,79;2,38;3,51;2,38;3,51;0;0;
2672;-21,34;-35,09;-21,34;-35,09;2,42;3,58;2,42;3,58;0;0;
2689;-25,01;-37,36;-25,01;-37,36;2,67;3,71;2,67;3,71;0;0;
2706;-26,18;-33,87;-26,18;-33,87;3,05;4,02;3,05;4,02;0;0;
2726;-32,14;-44,56;-32,14;-44,56;3,55;3,52;3,55;3,52;0;0;
2743;-22,78;-35,97;-22,78;-35,97;3,7;3,59;3,7;3,59;0;0;
2760;-22,78;-35,97;-22,78;-35,97;3,27;3,51;3,27;3,51;0;0;
2777;-27,41;-39,17;-27,41;-39,17;3,36;3,71;3,36;3,71;0;0;
2796;-33,3;-43,8;-33,3;-43,8;3,36;3,48;3,36;3,48;0;0;
2816;-17,55;-41,5;-17,55;-41,5;4,08;3,25;4,08;3,25;0;0;
2833;-25,08;-36,34;-25,08;-36,34;3,81;2,88;3,81;2,88;0;0;
2853;-21,25;-38,32;-21,25;-38,32;4,09;2,45;4,09;2,45;0;0;
2872;-18,3;-40,63;-18,3;-40,63;4,29;2,29;4,29;2,29;0;0;
2888;-27,57;-46,75;-27,57;-46,75;4,44;2,45;4,44;2,45;0;0;
2906;-36,11;-33,3;-36,11;-33,3;4,05;2,9;4,05;2,9;0;0;
2925;-19,04;-44,13;-19,04;-44,13;3,28;3,47;3,28;3,47;0;0;
2942;-17,87;-33,28;-17,87;-33,28;2,96;3,65;2,96;3,65;0;0;
2958;-17,87;-33,28;-17,87;-33,28;3,03;3,65;3,03;3,65;0;0;
2975;-23,87;-44,89;-23,87;-44,89;2,73;3,7;2,73;3,7;0;0;
2996;-23,68;-38,8;-23,68;-38,8;2,86;3,36;2,86;3,36;0;0;
3014;-23,68;-38,8;-23,68;-38,8;2,84;3,13;2,84;3,13;0;0;
3033;-30,9;-39,92;-30,9;-39,92;2,74;3,02;2,74;3,02;0;0;
3053;-23,29;-35,73;-23,29;-35,73;2,86;3,04;2,86;3,04;0;0;
3073;-23,2;-39,57;-23,2;-39,57;2,8;3,24;2,8;3,24;0;0;
3090;-24,87;-35,36;-24,87;-35,36;2,76;3,16;2,76;3,16;0;0;
3108;-25,92;-42,42;-25,92;-42,42;3,04;3,34;3,04;3,34;0;0;
3127;-29,39;-35,23;-29,39;-35,23;2,96;3,16;2,96;3,16;0;0;
3146;-23,39;-33,25;-23,39;-33,25;2,87;3,44;2,87;3,44;0;0;
3162;-21,04;-41,09;-21,04;-41,09;3,26;3,69;3,26;3,69;0;0;
3179;-21,04;-41,09;-21,04;-41,09;3,56;3,96;3,56;3,96;0;0;
3198;-28,32;-40,79;-28,32;-40,79;3,56;3,68;3,56;3,68;0;0;
3216;-23,16;-37,95;-23,16;-37,95;3,6;3,84;3,6;3,84;0;0;
3235;-24,5;-36,28;-24,5;-36,28;3,39;3,75;3,39;3,75;0;0;
3255;-27,97;-34,02;-27,97;-34,02;3,32;3,73;3,32;3,73;0;0;
3275;-20,45;-34,6;-20,45;-34,6;3,17;3,49;3,17;3,49;0;0;
3292;-21,53;-40,4;-21,53;-40,4;3,23;3,64;3,23;3,64;0;0;
3311;-23,25;-34,88;-23,25;-34,88;3,23;3,81;3,23;3,81;0;0;
3330;-26,85;-35,92;-26,85;-35,92;3,05;3,71;3,05;3,71;0;0;
3348;-32,57;-43,02;-32,57;-43,02;3,14;3,54;3,14;3,54;0;0;
3365;-32,57;-43,02;-32,57;-43,02;3,16;3,07;3,16;3,07;0;0;
3385;-28,07;-31,82;-28,07;-31,82;3,48;3,2;3,48;3,2;0;0;
3405;-25,36;-39,15;-25,36;-39,15;3,36;3,08;3,36;3,08;0;0;
3423;-21,82;-31,68;-21,82;-31,68;3,05;3,31;3,05;3,31;0;0;
3442;-19,86;-38,44;-19,86;-38,44;3,38;3,36;3,38;3,36;0;0;
3458;-19,86;-38,44;-19,86;-38,44;3,68;3,36;3,68;3,36;0;0;
3475;-24,84;-35,26;-24,84;-35,26;3,46;3,13;3,46;3,13;0;0;
3491;-19,13;-34,48;-19,13;-34,48;3,45;2,81;3,45;2,81;0;0;
3510;-24,98;-45,03;-24,98;-45,03;3,95;3,01;3,95;3,01;0;0;
3529;-22,42;-38,59;-22,42;-38,59;3,95;3;3,95;3;0;0;
3547;-26,73;-43,2;-26,73;-43,2;3,39;3,26;3,39;3,26;0;0;
3565;-22,29;-41,83;-22,29;-41,83;3,13;3,2;3,13;3,2;0;0;
3586;-23,48;-37,29;-23,48;-37,29;2,71;3,28;2,71;3,28;0;0;
3603;-29,35;-43,22;-29,35;-43,22;2,75;2,69;2,75;2,69;0;0;
3622;-28,47;-37,21;-28,47;-37,21;2,97;2,87;2,97;2,87;0;0;
3638;-28,47;-37,21;-28,47;-37,21;3,19;3,14;3,19;3,14;0;0;
3657;-28,18;-37,88;-28,18;-37,88;3,37;3,02;3,37;3,02;0;0;
3674;-21,03;-44,54;-21,03;-44,54;3,6;3,23;3,6;3,23;0;0;
3691;-24,72;-34,22;-24,72;-34,22;3,71;3,16;3,71;3,16;0;0;
3710;-27,29;-37,5;-27,29;-37,5;3,73;3,26;3,73;3,26;0;0;
3729;-23,44;-36,54;-23,44;-36,54;3,36;3,32;3,36;3,32;0;0;
3746;-33,32;-37,9;-33,32;-37,9;2,98;2,98;2,98;2,98;0;0;
3766;-22,51;-40,28;-22,51;-40,28;3,05;2,8;3,05;2,8;0;0;
3787;-30,36;-40,55;-30,36;-40,55;3,24;3,01;3,24;3,01;0;0;
3805;-23,09;-41,84;-23,09;-41,84;3,27;2,9;3,27;2,9;0;0;
3824;-20,74;-41,77;-20,74;-41,77;3,45;2,57;3,45;2,57;0;0;
3841;-20,74;-41,77;-20,74;-41,77;3,48;2,45;3,48;2,45;0;0;
3860;-29,03;-35,14;-29,03;-35,14;3,4;2,58;3,4;2,58;0;0;
3879;-22,25;-38;-22,25;-38;3,07;2,83;3,07;2,83;0;0;
3897;-20,69;-32,79;-20,69;-32,79;3,06;2,48;3,06;2,48;0;0;
3918;-26,21;-39,96;-26,21;-39,96;2,83;2,67;2,83;2,67;0;0;
3940;-26,73;-33,41;-26,73;-33,41;2,88;2,69;2,88;2,69;0;0;
3957;-25,35;-37,06;-25,35;-37,06;2,64;2,71;2,64;2,71;0;0;
3975;-27,36;-36,96;-27,36;-36,96;2,51;2,66;2,51;2,66;0;0;
3994;-25,03;-37,64;-25,03;-37,64;2,51;2,77;2,51;2,77;0;0;
4011;-23,79;-37,86;-23,79;-37,86;2,93;2,89;2,93;2,89;0;0;
4029;-26,44;-38,1;-26,44;-38,1;2,87;3,08;2,87;3,08;0;0;
4046;-28,5;-38;-28,5;-38;3,01;3,13;3,01;3,13;0;0;
4067;-21,3;-38,1;-21,3;-38,1;3;3,23;3;3,23;0;0;
4085;-27,52;-36,18;-27,52;-36,18;3,33;3,56;3,33;3,56;0;0;
4100;-27,52;-36,18;-27,52;-36,18;3,28;3,91;3,28;3,91;0;0;
4119;-27,17;-32,62;-27,17;-32,62;3,15;3,78;3,15;3,78;0;0;
4139;-21,45;-29,73;-21,45;-29,73;3,19;4,06;3,19;4,06;0;0;
4159;-30,74;-40,7;-30,74;-40,7;3,61;3,9;3,61;3,9;0;0;
4181;-29,12;-43,35;-29,12;-43,35;3,63;4;3,63;4;0;0;
4201;-24,06;-39,26;-24,06;-39,26;3,22;3,47;3,22;3,47;0;0;
4222;-29,15;-40,1;-29,15;-40,1;2,81;3,22;2,81;3,22;0;0;
4242;-27,44;-38,98;-27,44;-38,98;2,83;3,33;2,83;3,33;0;0;
4259;-29,38;-38,52;-29,38;-38,52;2,83;3,21;2,83;3,21;0;0;
4278;-24,39;-39,92;-24,39;-39,92;2,39;2,9;2,39;2,9;0;0;
4296;-27,01;-39,09;-27,01;-39,09;2,38;3;2,38;3;0;0;
4317;-19,6;-38,02;-19,6;-38,02;2,42;3,57;2,42;3,57;0;0;
4333;-26,66;-40,65;-26,66;-40,65;2,79;3,46;2,79;3,46;0;0;
4349;-29,06;-34,6;-29,06;-34,6;2,86;3,24;2,86;3,24;0;0;
4367;-20,11;-35,89;-20,11;-35,89;3,88;3,16;3,88;3,16;0;0;
4387;-44,76;-33;-44,76;-33;5,87;3,52;5,87;3,52;0;0;
4406;22,8;-31,07;22,8;-31,07;9,97;3,21;9,97;3,21;0;0;
4426;-49,94;-51,02;-49,94;-51,02;13,88;3,39;13,88;3,39;0;0;
4444;-10,27;-43,58;-10,27;-43,58;17,25;3,73;17,25;3,73;0;0;
4460;-10,27;-43,58;-10,27;-43,58;20,15;4,01;20,15;4,01;0;0;
4479;-15,38;-33,03;-15,38;-33,03;20,97;4,07;20,97;4,07;0;0;
4497;-32,3;-37,88;-32,3;-37,88;18,25;4,46;18,25;4,46;0;0;
4518;-32,3;-37,88;-32,3;-37,88;13,22;4,96;13,22;4,96;0;0;
4539;-13,68;-45,96;-13,68;-45,96;11,91;6,09;11,91;6,09;0;0;
4557;-49,29;-32,62;-49,29;-32,62;11,76;6,09;11,76;6,09;0;0;
4574;-16,82;-44,54;-16,82;-44,54;12,59;6,02;12,59;6,02;0;0;
4592;-26,56;-43,98;-26,56;-43,98;11,91;5,66;11,91;5,66;0;0;
4612;-24,86;-36,76;-24,86;-36,76;11,84;5,43;11,84;5,43;0;0;
4629;-26,64;-38,91;-26,64;-38,91;9,63;4,13;9,63;4,13;0;0;
4647;-38,78;-36,73;-38,78;-36,73;6,57;3,6;6,57;3,6;0;0;
4666;-19,75;-47,8;-19,75;-47,8;6,19;4;6,19;4;0;0;
4685;-30,31;-36,35;-30,31;-36,35;5,48;4,13;5,48;4,13;0;0;
4705;-31,23;-42,86;-31,23;-42,86;5,77;4,14;5,77;4,14;0;0;
4721;-31,23;-42,86;-31,23;-42,86;6,07;3,66;6,07;3,66;0;0;
4738;-25,9;-39,64;-25,9;-39,64;6,03;3,62;6,03;3,62;0;0;
4754;-28,03;-40,85;-28,03;-40,85;4,97;3,59;4,97;3,59;0;0;
4771;-29,77;-41,14;-29,77;-41,14;3,29;3,7;3,29;3,7;0;0;
4790;-21,45;-22,45;-21,45;-22,45;2,84;3,89;2,84;3,89;0;0;
4808;-27,17;-35,69;-27,17;-35,69;2,83;4,66;2,83;4,66;0;0;
4830;-30,14;-43,23;-30,14;-43,23;2,98;5,39;2,98;5,39;0;0;
4848;-19,53;-91,72;-19,53;-91,72;3,51;7,2;3,51;7,2;0;0;
4868;-23,58;-28,74;-23,58;-28,74;4,16;9,59;4,16;9,59;0;0;
4885;-25,21;-24,84;-25,21;-24,84;3,99;9,54;3,99;9,54;0;0;
4901;-25,21;-24,84;-25,21;-24,84;3,97;9,73;3,97;9,73;0;0;
4920;-21,88;11,25;-21,88;11,25;4,06;12,54;4,06;12,54;0;0;
4937;-29,61;-39,51;-29,61;-39,51;4,19;12,99;4,19;12,99;0;0;
4954;-10,43;-11,02;-10,43;-11,02;4,15;11,94;4,15;11,94;0;0;
4972;-34,43;-80,03;-34,43;-80,03;4,55;12,63;4,55;12,63;0;0;
4990;-17,79;-46,24;-17,79;-46,24;5,3;14,21;5,3;14,21;0;0;
5009;-29,45;-63;-29,45;-63;5,4;13,35;5,4;13,35;0;0;
5028;-26,15;-27,91;-26,15;-27,91;5,84;13,47;5,84;13,47;0;0;
5047;-29,34;-37,95;-29,34;-37,95;5,17;15,59;5,17;15,59;0;0;
5065;-20,24;-13,16;-20,24;-13,16;5,01;15,06;5,01;15,06;0;0;
5084;-20,22;-33,95;-20,22;-33,95;4,57;13,39;4,57;13,39;0;0;
5100;-20,22;-33,95;-20,22;-33,95;4,41;14,01;4,41;14,01;0;0;
5118;-21,62;-55,45;-21,62;-55,45;4,19;13,11;4,19;13,11;0;0;
5136;-33,82;-41,39;-33,82;-41,39;4,05;12,68;4,05;12,68;0;0;
5154;-22,78;-53,77;-22,78;-53,77;4,19;10,69;4,19;10,69;0;0;
5171;-16,61;-62,75;-16,61;-62,75;4,1;9,7;4,1;9,7;0;0;
5191;-17,45;-42,43;-17,45;-42,43;4,58;11,01;4,58;11,01;0;0;
5210;-23,53;-60,66;-23,53;-60,66;4,94;11,09;4,94;11,09;0;0;
5227;-24,2;-50,73;-24,2;-50,73;5,34;12,52;5,34;12,52;0;0;
5247;-24,34;-40,93;-24,34;-40,93;5,22;11,94;5,22;11,94;0;0;
5268;-18,73;-27,03;-18,73;-27,03;5,01;11,36;5,01;11,36;0;0;
5285;-27,28;-33,58;-27,28;-33,58;5,25;11,61;5,25;11,61;0;0;
5303;-30,73;-53,55;-30,73;-53,55;4,88;11,98;4,88;11,98;0;0;
5321;-30,73;-53,55;-30,73;-53,55;4,32;10,25;4,32;10,25;0;0;
5338;-33,2;-48,06;-33,2;-48,06;4,27;10,44;4,27;10,44;0;0;
5357;-31,56;-37,19;-31,56;-37,19;5,01;11,34;5,01;11,34;0;0;
5373;-15,09;-34,9;-15,09;-34,9;4,7;11,07;4,7;11,07;0;1;
5391;-29,3;-28,76;-29,3;-28,76;4,56;10,83;4,56;10,83;0;1;
5409;-21,22;-28,41;-21,22;-28,41;4,29;10,47;4,29;10,47;0;1;
5427;-17;-32,89;-17;-32,89;4,42;10,2;4,42;10,2;0;1;
5446;-35,37;-38,57;-35,37;-38,57;4,84;9,72;4,84;9,72;0;1;
5466;-21,5;-27,43;-21,5;-27,43;4,94;10,91;4,94;10,91;0;1;
5482;-15,91;-49,26;-15,91;-49,26;5,22;9,98;5,22;9,98;0;1;
5500;-15,91;-49,26;-15,91;-49,26;5,5;10,6;5,5;10,6;0;1;
5519;-35,93;-40,59;-35,93;-40,59;5,88;9,94;5,88;9,94;0;1;
5537;-36,02;-27,33;-36,02;-27,33;5,58;11,02;5,58;11,02;0;1;
5557;-36,93;-46,57;-36,93;-46,57;5,71;10,21;5,71;10,21;0;1;
5575;-22,64;-67,58;-22,64;-67,58;6,06;9,16;6,06;9,16;0;1;
5593;-24,68;-59,05;-24,68;-59,05;5,93;9,3;5,93;9,3;0;1;
5611;-27,15;-45,46;-27,15;-45,46;5,49;10,57;5,49;10,57;0;1;
5630;-11,27;-26,67;-11,27;-26,67;5,49;12,35;5,49;12,35;0;1;
5650;-29,22;-39,3;-29,22;-39,3;5,52;12,27;5,52;12,27;0;1;
5668;-33,84;-51,04;-33,84;-51,04;4,82;13,72;4,82;13,72;0;1;
5686;-19,45;-41,33;-19,45;-41,33;4,76;13,36;4,76;13,36;0;1;
5704;-15,32;-45,3;-15,32;-45,3;5,17;14,29;5,17;14,29;0;0;
5725;-31,85;-44,93;-31,85;-44,93;6,42;12,93;6,42;12,93;0;0;
5741;-31,85;-44,93;-31,85;-44,93;6,93;12,17;6,93;12,17;0;0;
5757;-27,38;-46,06;-27,38;-46,06;7,06;12,08;7,06;12,08;0;0;
5775;-20,04;-38,68;-20,04;-38,68;7,29;12,99;7,29;12,99;0;0;
5794;-38,81;-40,98;-38,81;-40,98;7,75;11,9;7,75;11,9;0;0;
5814;-25,7;-51,12;-25,7;-51,12;6,86;11,19;6,86;11,19;0;0;
5840;-32,86;-50,39;-32,86;-50,39;6,31;10,99;6,31;10,99;0;0;
5859;-21,05;-26,45;-21,05;-26,45;5,3;10,34;5,3;10,34;0;0;
5879;-23,27;-27,68;-23,27;-27,68;5,67;8,67;5,67;8,67;0;0;
5896;-23,49;-36,06;-23,49;-36,06;5,91;9,93;5,91;9,93;0;0;
5914;-20,82;-65,75;-20,82;-65,75;5,54;10,45;5,54;10,45;0;0;
5932;-32,73;-29,58;-32,73;-29,58;5,35;10,37;5,35;10,37;0;0;
5949;-24,51;-34,21;-24,51;-34,21;5,1;10,07;5,1;10,07;0;0;
5967;-23,6;-37,55;-23,6;-37,55;5,1;9,76;5,1;9,76;0;0;
5990;-21,41;-50,48;-21,41;-50,48;4,56;9,17;4,56;9,17;0;0;
6009;-25,62;-43,08;-25,62;-43,08;3,82;7,66;3,82;7,66;0;0;
6028;-28,15;-49,36;-28,15;-49,36;3,82;6,22;3,82;6,22;0;0;
6046;-20,2;-45,91;-20,2;-45,91;3,83;6,13;3,83;6,13;0;0;
6065;-32,54;-38,12;-32,54;-38,12;4,34;8,01;4,34;8,01;0;0;
6084;-32,03;-36,43;-32,03;-36,43;4,72;7,9;4,72;7,9;0;0;
6103;-27,31;-36,44;-27,31;-36,44;4,9;7,53;4,9;7,53;0;0;
6124;-24,96;-34,09;-24,96;-34,09;4,62;9,29;4,62;9,29;0;0;
6143;-19,4;-35,14;-19,4;-35,14;4,14;8,18;4,14;8,18;0;0;
6160;-19,4;-35,14;-19,4;-35,14;3,35;7,08;3,35;7,08;0;0;
6177;-14,18;-46,14;-14,18;-46,14;2,99;6,64;2,99;6,64;0;0;
6194;-31,06;-37,23;-31,06;-37,23;3;6,13;3;6,13;0;0;
6212;-24,74;-32,62;-24,74;-32,62;3,42;4,57;3,42;4,57;0;0;
6232;-19,93;-45,68;-19,93;-45,68;3,85;4,83;3,85;4,83;0;0;
6250;-27,16;-53,87;-27,16;-53,87;3,97;5,53;3,97;5,53;0;0;
6270;-19,57;-39,5;-19,57;-39,5;3,5;5,24;3,5;5,24;0;0;
6288;-20,95;-31,01;-20,95;-31,01;3,2;5,82;3,2;5,82;0;0;
6309;-32,14;-32,31;-32,14;-32,31;3,35;5,84;3,35;5,84;0;0;
6327;-22,21;-36,37;-22,21;-36,37;3,66;5,23;3,66;5,23;0;0;
6345;-27,47;-37,76;-27,47;-37,76;3,46;4,2;3,46;4,2;0;0;
6363;-21,76;-38,03;-21,76;-38,03;3,46;3,73;3,46;3,73;0;0;
6381;-21,76;-38,03;-21,76;-38,03;3,61;3,89;3,61;3,89;0;0;
6399;-21,22;-43,3;-21,22;-43,3;3,43;3,42;3,43;3,42;0;0;
6417;-22,12;-36,05;-22,12;-36,05;3,15;3,43;3,15;3,43;0;0;
6438;-23,72;-35,19;-23,72;-35,19;3,08;3,24;3,08;3,24;0;0;
6458;-27,35;-28,74;-27,35;-28,74;3,41;3,85;3,41;3,85;0;0;
6477;-27,88;-30,94;-27,88;-30,94;3,49;5,14;3,49;5,14;0;0;
6494;-29,14;-40,99;-29,14;-40,99;3,61;5,61;3,61;5,61;0;0;
6513;-21,57;-41,11;-21,57;-41,11;3,38;5,59;3,38;5,59;0;0;
6533;-22,04;-35,42;-22,04;-35,42;3,24;5,61;3,24;5,61;0;0;
6552;-25,5;-36;-25,5;-36;3,19;5,62;3,19;5,62;0;0;
6572;-26,64;-38,1;-26,64;-38,1;2,84;4,26;2,84;4,26;0;0;
6591;-21,01;-39,43;-21,01;-39,43;2,97;3,79;2,97;3,79;0;0;
6609;-29,76;-40,11;-29,76;-40,11;3,11;3,13;3,11;3,13;0;0;
6629;-31,53;-25,71;-31,53;-25,71;3,28;4,33;3,28;4,33;0;0;
6649;-19,44;-56,12;-19,44;-56,12;3,46;5,64;3,46;5,64;0;0;
6667;-20,65;-24,34;-20,65;-24,34;3,79;6,23;3,79;6,23;0;0;
6685;-27,97;-34,81;-27,97;-34,81;3,86;6,17;3,86;6,17;0;0;
6702;-26,1;-35,2;-26,1;-35,2;3,91;5,89;3,91;5,89;0;0;
6722;-25,28;-40,86;-25,28;-40,86;3,62;5,38;3,62;5,38;0;0;
6740;-25,28;-40,86;-25,28;-40,86;3,51;3,93;3,51;3,93;0;0;
6761;-26,3;-39,89;-26,3;-39,89;3;3,13;3;3,13;0;0;
6779;-20,47;-45,44;-20,47;-45,44;2,63;3,04;2,63;3,04;0;0;
6797;-28,99;-38,3;-28,99;-38,3;2,25;2,95;2,25;2,95;0;0;
6815;-28,09;-32,79;-28,09;-32,79;2,28;3,15;2,28;3,15;0;0;
6835;-25,2;-61,8;-25,2;-61,8;2,18;4,14;2,18;4,14;0;0;
6853;-21,77;-39,98;-21,77;-39,98;2,86;5,05;2,86;5,05;0;0;
6873;-26,57;-34,16;-26,57;-34,16;2,92;4,96;2,92;4,96;0;0;
6889;-22,29;-31,84;-22,29;-31,84;3,27;5,35;3,27;5,35;0;0;
6905;-21,51;-44,13;-21,51;-44,13;3,35;5,66;3,35;5,66;0;0;
6924;-24,49;-34,52;-24,49;-34,52;3,49;5,64;3,49;5,64;0;0;
6942;-22,17;-45,64;-22,17;-45,64;3,26;4,43;3,26;4,43;0;0;
6959;-22,17;-45,64;-22,17;-45,64;3,27;4,86;3,27;4,86;0;0;
6978;-22,66;-26,42;-22,66;-26,42;3,29;4,46;3,29;4,46;0;0;
6996;-27,36;-35,43;-27,36;-35,43;3,1;4,64;3,1;4,64;0;0;
7014;-16,78;-44,41;-16,78;-44,41;3,02;4,43;3,02;4,43;0;0;
7033;-20,43;-37,21;-20,43;-37,21;3,29;4,1;3,29;4,1;0;0;
7049;-28,8;-35,71;-28,8;-35,71;3,12;3,86;3,12;3,86;0;0;
7071;-24,72;-43,56;-24,72;-43,56;3,22;3,82;3,22;3,82;0;0;
7090;-22,44;-38,97;-22,44;-38,97;3,05;3,34;3,05;3,34;0;0;
7110;-19,2;-32,04;-19,2;-32,04;3,36;3,23;3,36;3,23;0;0;
7126;-30,84;-41,42;-30,84;-41,42;3,29;3,21;3,29;3,21;0;0;
7144;-29,11;-45,6;-29,11;-45,6;3,09;3,57;3,09;3,57;0;0;
7162;-22,09;-38,62;-22,09;-38,62;2,87;3,26;2,87;3,26;0;0;
7179;-22,09;-38,62;-22,09;-38,62;2,72;3,12;2,72;3,12;0;0;
7196;-29,15;-42,6;-29,15;-42,6;2,62;3,37;2,62;3,37;0;0;
7214;-21,66;-36,17;-21,66;-36,17;1,99;2,99;1,99;2,99;0;0;
7232;-26,2;-38,2;-26,2;-38,2;2,28;3,04;2,28;3,04;0;0;
7251;-21,64;-41,75;-21,64;-41,75;2,6;2,96;2,6;2,96;0;0;
7272;-26,79;-40,38;-26,79;-40,38;3,04;2,92;3,04;2,92;0;0;
7289;-25,45;-41,01;-25,45;-41,01;3,06;2,87;3,06;2,87;0;0;
7307;-24,26;-43,34;-24,26;-43,34;3,26;3,08;3,26;3,08;0;0;
7328;-25,71;-43,53;-25,71;-43,53;3,12;3,4;3,12;3,4;0;0;
7345;-29,21;-48,65;-29,21;-48,65;2,79;3,6;2,79;3,6;0;0;
7363;-21,59;-31,12;-21,59;-31,12;2,57;3,75;2,57;3,75;0;0;
7380;-21,59;-31,12;-21,59;-31,12;2,41;3,96;2,41;3,96;0;0;
7396;-23,55;-40,72;-23,55;-40,72;2,47;3,95;2,47;3,95;0;0;
7415;-29,26;-43,17;-29,26;-43,17;2,45;3,91;2,45;3,91;0;0;
7435;-29,37;-39,8;-29,37;-39,8;2,77;3,97;2,77;3,97;0;0;
7458;-27,17;-41,54;-27,17;-41,54;2,76;3,71;2,76;3,71;0;0;
7478;-22,72;-37,56;-22,72;-37,56;3,16;3,34;3,16;3,34;0;0;
7496;-23,96;-41,71;-23,96;-41,71;3,22;2,73;3,22;2,73;0;0;
7521;-21,25;-34,27;-21,25;-34,27;3,69;2,79;3,69;2,79;0;0;
7538;-25,63;-42,53;-25,63;-42,53;4,06;2,87;4,06;2,87;0;0;
7556;-25,41;-35,6;-25,41;-35,6;4,03;2,66;4,03;2,66;0;0;
7575;-27,17;-40,96;-27,17;-40,96;3,77;2,61;3,77;2,61;0;0;
7593;-21,97;-37,09;-21,97;-37,09;3,76;2,89;3,76;2,89;0;0;
7611;-20,56;-43,62;-20,56;-43,62;4,31;3,01;4,31;3,01;0;0;
7631;-26,4;-38,65;-26,4;-38,65;3,38;3,05;3,38;3,05;0;0;
7650;-33,15;-39,66;-33,15;-39,66;3,2;2,58;3,2;2,58;0;0;
7667;-24,32;-36,39;-24,32;-36,39;3,24;2,85;3,24;2,85;0;0;
7688;-26,17;-41,62;-26,17;-41,62;3,16;3,02;3,16;3,02;0;0;
7705;-22,08;-36,89;-22,08;-36,89;2,77;3,13;2,77;3,13;0;0;
7723;-25,35;-34,78;-25,35;-34,78;3,6;2,99;3,6;2,99;0;0;
7744;-26,39;-43,04;-26,39;-43,04;3,79;2,98;3,79;2,98;0;0;
7763;-23,51;-28,68;-23,51;-28,68;3,55;3,15;3,55;3,15;0;0;
7782;-26,44;-39,43;-26,44;-39,43;3,8;3,35;3,8;3,35;0;1;
7799;-26,44;-39,43;-26,44;-39,43;4,05;3,74;4,05;3,74;0;1;
7816;-24,75;-79,14;-24,75;-79,14;3,56;4,83;3,56;4,83;0;1;
7835;-21,98;-43,29;-21,98;-43,29;3,4;5;3,4;5;0;1;
7853;-26,69;-45;-26,69;-45;3,83;6,49;3,83;6,49;0;1;
7872;-29,76;-36,26;-29,76;-36,26;3,8;6,73;3,8;6,73;0;1;
7891;-27,3;-33,76;-27,3;-33,76;4,63;6,48;4,63;6,48;0;1;
7911;-25,89;-27,27;-25,89;-27,27;4,93;7,45;4,93;7,45;0;1;
7929;-30,72;-32,75;-30,72;-32,75;4,76;7,58;4,76;7,58;0;1;
7949;-23,51;-23,56;-23,51;-23,56;5,1;8,73;5,1;8,73;0;1;
7966;-29,18;-41,94;-29,18;-41,94;5,16;9,21;5,16;9,21;0;1;
7983;-39,65;-58,49;-39,65;-58,49;5,52;10,27;5,52;10,27;0;1;
8003;-9,34;-21,18;-9,34;-21,18;6,29;11,13;6,29;11,13;0;1;
8020;-9,34;-21,18;-9,34;-21,18;7,75;11,5;7,75;11,5;0;1;
8039;-33,28;-44,38;-33,28;-44,38;8,01;10,96;8,01;10,96;0;1;
8059;-22,6;-43,99;-22,6;-43,99;8,19;9,67;8,19;9,67;0;1;
8078;-25,19;-64,68;-25,19;-64,68;8,39;10,74;8,39;10,74;0;1;
8100;-25,65;-54,56;-25,65;-54,56;7,21;8,97;7,21;8,97;0;1;
8122;-33,1;-23,72;-33,1;-23,72;5,96;8,48;5,96;8,48;0;1;
8144;-32,11;-32,72;-32,11;-32,72;5,41;8,2;5,41;8,2;0;0;
8162;-18,8;-52,06;-18,8;-52,06;5,1;8,68;5,1;8,68;0;0;
8180;-18,8;-52,06;-18,8;-52,06;4,73;8,82;4,73;8,82;0;0;
8198;-26,03;-11,57;-26,03;-11,57;4,57;8,59;4,57;8,59;0;0;
8216;-33,71;-34,49;-33,71;-34,49;5,02;9,18;5,02;9,18;0;0;
8234;-30,63;-48,97;-30,63;-48,97;4,52;9,43;4,52;9,43;0;0;
8256;-22,56;-21,21;-22,56;-21,21;5,08;9,86;5,08;9,86;0;0;
8275;-40,39;-36,87;-40,39;-36,87;5,65;9,84;5,65;9,84;0;0;
8294;-21,94;-44,81;-21,94;-44,81;6,58;9,59;6,58;9,59;0;0;
8312;-17,38;-50,71;-17,38;-50,71;6,35;9,4;6,35;9,4;0;0;
8334;-26,3;-34,85;-26,3;-34,85;6,47;9,06;6,47;9,06;0;0;
8354;-25,94;-29,38;-25,94;-29,38;5,78;8,22;5,78;8,22;0;0;
8375;-27,31;-36,62;-27,31;-36,62;5,66;8,28;5,66;8,28;0;0;
8394;-33,84;-40,33;-33,84;-40,33;4,99;9,12;4,99;9,12;0;0;
8412;-18,16;-44,15;-18,16;-44,15;4,86;9,57;4,86;9,57;0;0;
8432;-22,62;-40,97;-22,62;-40,97;4,82;7,99;4,82;7,99;0;0;
8449;-21,48;-52,29;-21,48;-52,29;6;8,6;6;8,6;0;0;
8467;-20,44;-45,24;-20,44;-45,24;6,44;8,21;6,44;8,21;0;0;
8488;-11,97;-22,44;-11,97;-22,44;6,43;7,94;6,43;7,94;0;0;
8509;-29,61;-33,1;-29,61;-33,1;6,19;7,3;6,19;7,3;0;0;
8529;-14,27;-41,74;-14,27;-41,74;6,26;7,57;6,26;7,57;1;0;
8547;-30,77;-40,65;-30,77;-40,65;5,66;6,8;5,66;6,8;1;0;
8565;-19,3;-36,44;-19,3;-36,44;5,2;7,03;5,2;7,03;1;0;
8583;-26,92;-25,04;-26,92;-25,04;4,99;6,64;4,99;6,64;1;0;
8600;-26,92;-25,04;-26,92;-25,04;4,33;5,81;4,33;5,81;1;0;
8617;-28,19;-25,08;-28,19;-25,08;4,27;6,09;4,27;6,09;1;0;
8637;-10,12;-38,51;-10,12;-38,51;5,09;6,59;5,09;6,59;1;0;
8659;-25,21;-44,55;-25,21;-44,55;5,25;5,99;5,25;5,99;1;0;
8680;-29,18;-39,88;-29,18;-39,88;4,43;5,8;4,43;5,8;1;0;
8700;-29,71;-42,74;-29,71;-42,74;4,56;5,94;4,56;5,94;1;0;
8719;-30,41;-32,81;-30,41;-32,81;4,27;6,09;4,27;6,09;1;0;
8736;-28,27;-38,42;-28,27;-38,42;4,66;4,58;4,66;4,58;1;0;
8753;-21,01;-36,31;-21,01;-36,31;4,32;4,93;4,32;4,93;1;0;
8771;-24,2;-40,82;-24,2;-40,82;4,07;4,6;4,07;4,6;1;0;
8791;-32,97;-50,27;-32,97;-50,27;5,14;4,19;5,14;4,19;1;0;
8808;-28,45;-25,26;-28,45;-25,26;4,97;3,98;4,97;3,98;1;0;
8825;-19,72;-27,99;-19,72;-27,99;4,81;4,63;4,81;4,63;1;0;
8841;-19,72;-27,99;-19,72;-27,99;4,72;5,36;4,72;5,36;1;0;
8860;-31,71;-37,23;-31,71;-37,23;4,52;5,47;4,52;5,47;1;0;
8882;-24,22;-42,34;-24,22;-42,34;5,38;5,58;5,38;5,58;0;0;
8900;-24,22;-42,34;-24,22;-42,34;5,17;5,48;5,17;5,48;0;0;
8921;-27,08;-40,31;-27,08;-40,31;5,34;4,78;5,34;4,78;0;0;
8939;-24,35;-39,05;-24,35;-39,05;4,74;3,92;4,74;3,92;0;0;
8960;-16,76;-42,24;-16,76;-42,24;4,35;3,85;4,35;3,85;0;0;
8980;-23,78;-36,66;-23,78;-36,66;4,04;7,02;4,04;7,02;0;0;
8998;-15,72;-44,78;-15,72;-44,78;3,72;8,92;3,72;8,92;0;0;
9014;-29,63;-39,29;-29,63;-39,29;3,74;9,07;3,74;9,07;0;0;
9035;-2,97;-58,41;-2,97;-58,41;4,37;9,45;4,37;9,45;0;0;
9056;-31,09;-28,91;-31,09;-28,91;5,46;9,89;5,46;9,89;0;0;
9075;-22,33;-60,24;-22,33;-60,24;6,55;9,14;6,55;9,14;0;0;
9092;-22,69;-44,77;-22,69;-44,77;7,13;6,59;7,13;6,59;0;0;
9111;-19,76;-38,42;-19,76;-38,42;7,13;6,67;7,13;6,67;0;0;
9130;-30,06;-42,15;-30,06;-42,15;7,06;6,94;7,06;6,94;0;0;
9148;-26,14;-33,14;-26,14;-33,14;5,84;6,83;5,84;6,83;0;0;
9168;-32,97;-38,69;-32,97;-38,69;5,14;6,77;5,14;6,77;0;0;
9187;-26,57;-41,19;-26,57;-41,19;4,51;5,66;4,51;5,66;0;0;
9204;-29,92;-52,38;-29,92;-52,38;4,49;4,7;4,49;4,7;0;0;
9225;-33,14;-27,94;-33,14;-27,94;4,55;4,1;4,55;4,1;0;0;
9242;-18,79;-41,77;-18,79;-41,77;5,46;4,17;5,46;4,17;0;0;
9259;-18,79;-41,77;-18,79;-41,77;6,4;3,69;6,4;3,69;0;0;
9277;-28,31;-43,84;-28,31;-43,84;6,54;3,68;6,54;3,68;0;0;
9294;-16,98;-56,04;-16,98;-56,04;6,41;4,51;6,41;4,51;0;0;
9312;-31,27;-44,79;-31,27;-44,79;7,06;4,92;7,06;4,92;0;0;
9330;-22,6;-40,66;-22,6;-40,66;6,66;4,63;6,66;4,63;0;0;
9349;-19,08;-42,27;-19,08;-42,27;5,82;4,47;5,82;4,47;0;0;
9366;-21,13;-32,36;-21,13;-32,36;5,68;4,37;5,68;4,37;0;0;
9385;-20,1;-43,78;-20,1;-43,78;5,47;4,52;5,47;4,52;0;0;
9403;-13,67;-40,37;-13,67;-40,37;4,59;3,42;4,59;3,42;0;0;
9420;-13,67;-40,37;-13,67;-40,37;4,38;3,5;4,38;3,5;0;0;
9438;-12,62;-29,49;-12,62;-29,49;5,59;5,1;5,59;5,1;0;0;
9455;-18,52;-48,3;-18,52;-48,3;5,63;6,14;5,63;6,14;0;0;
9474;-36,97;-55,33;-36,97;-55,33;5,8;6,3;5,8;6,3;0;0;
9491;-21,43;-50,08;-21,43;-50,08;6,13;7,33;6,13;7,33;0;0;
9509;-34,16;-42,06;-34,16;-42,06;6,12;7,15;6,12;7,15;0;0;
9529;-41,23;-33,77;-41,23;-33,77;6,72;7,11;6,72;7,11;0;0;
9546;-47,4;-44,44;-47,4;-44,44;9,38;5,65;9,38;5,65;0;0;
9563;-16,61;-39,87;-16,61;-39,87;12,2;5,91;12,2;5,91;0;0;
9581;-16,61;-39,87;-16,61;-39,87;14,98;5,82;14,98;5,82;0;0;
9600;-36,82;-44,92;-36,82;-44,92;19,19;5,41;19,19;5,41;0;0;
9616;20,16;-27,51;20,16;-27,51;22,05;6,09;22,05;6,09;0;0;
9633;7,96;-30,58;7,96;-30,58;29,49;7,35;29,49;7,35;0;0;
9651;-83,77;-45,58;-83,77;-45,58;28,91;7,06;28,91;7,06;0;0;
9670;-49,19;-43,9;-49,19;-43,9;30,05;6,69;30,05;6,69;0;0;
9689;-52;-31,28;-52;-31,28;29,31;6,55;29,31;6,55;0;0;
9708;-136,16;-38,98;-136,16;-38,98;37,65;6,32;37,65;6,32;1;0;
9727;-11,19;-39,84;-11,19;-39,84;39,12;5,04;39,12;5,04;1;0;
9746;-0,65;-45,78;-0,65;-45,78;36,57;4,27;36,57;4,27;1;0;
9768;-39,81;-32,94;-39,81;-32,94;35,19;4,88;35,19;4,88;1;0;
9786;-66,43;-44,57;-66,43;-44,57;38,35;5,16;38,35;5,16;1;0;
9808;-56,32;-38,36;-56,32;-38,36;33,02;5,37;33,02;5,37;1;0;
9827;-7,57;-45,81;-7,57;-45,81;33,45;5,13;33,45;5,13;1;0;
9844;-26,08;-37,46;-26,08;-37,46;35,02;5,19;35,02;5,19;1;0;
9865;4,23;-32,9;4,23;-32,9;37,73;4,14;37,73;4,14;1;0;
9882;24,48;-31,74;24,48;-31,74;38,02;4,06;38,02;4,06;1;0;
9903;-55,69;-36,47;-55,69;-36,47;41,95;4,14;41,95;4,14;1;0;
9924;-82,27;-49,13;-82,27;-49,13;41,47;4,49;41,47;4,49;0;0;
9946;-37,79;-36,99;-37,79;-36,99;39,41;4,85;39,41;4,85;0;0;
9987;-19,1;-36,44;-19,1;-36,44;41,84;5,13;41,84;5,13;0;0;
10007;-74,25;-34,27;-74,25;-34,27;43,41;4,94;43,41;4,94;0;0;
10028;-56,32;-32,01;-56,32;-32,01;45,9;5,21;45,9;5,21;0;0;
10048;-44,43;-43,13;-44,43;-43,13;42,96;5,15;42,96;5,15;0;0;
10068;-27,31;-33,97;-27,31;-33,97;39,61;4,81;39,61;4,81;0;0;
10085;-76,11;-63,11;-76,11;-63,11;41,79;5,24;41,79;5,24;0;0;
10104;-53,64;-40,11;-53,64;-40,11;39,91;5,69;39,91;5,69;0;0;
10125;-44;-44,89;-44;-44,89;38,23;5,98;38,23;5,98;0;0;
10145;-15,13;-36,71;-15,13;-36,71;37,02;5,52;37,02;5,52;0;0;
10162;-35,85;-43,92;-35,85;-43,92;39,55;5,32;39,55;5,32;0;0;
10180;-35,85;-43,92;-35,85;-43,92;41,78;5,13;41,78;5,13;0;0;
10197;-64,46;-38,39;-64,46;-38,39;37,21;3,99;37,21;3,99;0;0;
10214;-84;-32,23;-84;-32,23;38,43;3,67;38,43;3,67;0;0;
10232;-33,91;-33,21;-33,91;-33,21;38,99;3,87;38,99;3,87;0;0;
10250;-1,51;-35,91;-1,51;-35,91;38,74;4,15;38,74;4,15;0;0;
10268;-67,8;-51,02;-67,8;-51,02;39,81;4,04;39,81;4,04;0;0;
10284;-49,08;-43,79;-49,08;-43,79;41,07;4,32;41,07;4,32;0;0;
10301;-49,08;-43,79;-49,08;-43,79;37,82;4,64;37,82;4,64;0;0;
10320;-150,01;-34,36;-150,01;-34,36;39,66;4,94;39,66;4,94;0;0;
10338;-30,65;-39,72;-30,65;-39,72;40,59;4,2;40,59;4,2;0;0;
10357;-15,54;-29,11;-15,54;-29,11;38,67;4,36;38,67;4,36;0;0;
10375;-36,74;-46,32;-36,74;-46,32;33,99;4,43;33,99;4,43;0;0;
10394;7,61;-41;7,61;-41;32,93;4;32,93;4;0;0;
10412;55,82;-40,79;55,82;-40,79;34,35;3,5;34,35;3,5;0;0;
10429;34,16;-38,54;34,16;-38,54;26,26;3,61;26,26;3,61;0;0;
10448;-27,99;-46,37;-27,99;-46,37;24,28;3,9;24,28;3,9;0;0;
10466;-27,26;-38,62;-27,26;-38,62;23,93;3,59;23,93;3,59;0;0;
10484;-38,16;-31,15;-38,16;-31,15;20,4;3,78;20,4;3,78;0;0;
10502;-12,41;-49,05;-12,41;-49,05;21,25;4,4;21,25;4,4;0;0;
10521;-12,41;-49,05;-12,41;-49,05;21,96;4,63;21,96;4,63;0;0;
10541;-57,15;-40,99;-57,15;-40,99;18,86;4,62;18,86;4,62;0;0;
10560;59,45;-39,82;59,45;-39,82;18,94;4,76;18,94;4,76;0;0;
10578;-54,64;-37,54;-54,64;-37,54;24,1;4,59;24,1;4,59;0;0;
10599;-26,7;-31,61;-26,7;-31,61;22,03;4,43;22,03;4,43;0;0;
10616;-21,31;-46,9;-21,31;-46,9;18,91;4,02;18,91;4,02;0;0;
10634;-30,83;-40,84;-30,83;-40,84;16,79;3,81;16,79;3,81;0;0;
10653;-17,3;-39,88;-17,3;-39,88;15,32;3,79;15,32;3,79;0;0;
10670;-17,48;-35,16;-17,48;-35,16;9,31;4,09;9,31;4,09;0;0;
10689;-24,8;-47,37;-24,8;-47,37;7,06;4,15;7,06;4,15;0;0;
10708;1,35;-38,7;1,35;-38,7;7,14;4,06;7,14;4,06;0;0;
10728;-25,98;-40,36;-25,98;-40,36;7,45;4,02;7,45;4,02;0;0;
10746;-22,81;-39,34;-22,81;-39,34;7,47;4,09;7,47;4,09;0;0;
10763;-16,93;-35,3;-16,93;-35,3;7,23;3,99;7,23;3,99;0;0;
10780;-16,93;-35,3;-16,93;-35,3;7,2;3,97;7,2;3,97;0;0;
10798;-21,01;-44,8;-21,01;-44,8;7,09;3,56;7,09;3,56;0;0;
10815;-21,82;-45,56;-21,82;-45,56;4,28;3,78;4,28;3,78;0;0;
10831;-31,55;-50,12;-31,55;-50,12;3,61;4,16;3,61;4,16;0;0;
10851;-37,34;-36,5;-37,34;-36,5;3,86;5,18;3,86;5,18;0;0;
10871;-20,21;-38,45;-20,21;-38,45;4,06;5,3;4,06;5,3;0;0;
10895;-35,25;-42,51;-35,25;-42,51;4,57;5,34;4,57;5,34;0;0;
10913;-19,15;-52,81;-19,15;-52,81;5,18;5,89;5,18;5,89;0;0;
10934;-23,53;-43,73;-23,53;-43,73;5,7;5,77;5,7;5,77;0;0;
10951;-16,57;-47,03;-16,57;-47,03;5,1;5,5;5,1;5,5;0;0;
10969;-30,59;-40,32;-30,59;-40,32;4,68;4,36;4,68;4,36;0;0;
10987;-22,93;-47,17;-22,93;-47,17;4,86;4,33;4,86;4,33;0;0;
11005;-27,52;-40,94;-27,52;-40,94;3,62;4,21;3,62;4,21;0;0;
11024;-22,9;-40,2;-22,9;-40,2;3,28;3,41;3,28;3,41;0;0;
11040;-22,9;-40,2;-22,9;-40,2;3,66;3,11;3,66;3,11;0;0;
11056;-28,36;-40,62;-28,36;-40,62;3,72;2,81;3,72;2,81;0;0;
11074;-32,22;-44,18;-32,22;-44,18;3,24;3,08;3,24;3,08;0;0;
11092;-17,53;-37,75;-17,53;-37,75;3,78;3,28;3,78;3,28;0;0;
11113;-23,02;-48,42;-23,02;-48,42;3,53;3,53;3,53;3,53;0;0;
11133;-19,44;-39,35;-19,44;-39,35;3,49;3,46;3,49;3,46;0;0;
11153;-22,46;-41,12;-22,46;-41,12;4,25;3,24;4,25;3,24;0;0;
11173;-17,06;-36,37;-17,06;-36,37;5,01;3,1;5,01;3,1;0;0;
11194;-21,57;-39,97;-21,57;-39,97;4,88;3,19;4,88;3,19;0;0;
11211;-29,91;-36,5;-29,91;-36,5;4,8;2,85;4,8;2,85;0;0;
11229;-17,76;-40,22;-17,76;-40,22;4,89;3,08;4,89;3,08;0;0;
11246;-25,04;-38,06;-25,04;-38,06;4,51;3,78;4,51;3,78;0;0;
11267;-27,83;-39,01;-27,83;-39,01;3,95;3,8;3,95;3,8;0;0;
11286;-24,65;-44,24;-24,65;-44,24;3,21;4,16;3,21;4,16;0;0;
11303;-25,22;-41,73;-25,22;-41,73;3,13;3,81;3,13;3,81;0;0;
11324;-28,45;-35,18;-28,45;-35,18;3,19;3,83;3,19;3,83;0;0;
11341;-28,45;-35,18;-28,45;-35,18;3,06;3,21;3,06;3,21;0;0;
11358;-25,33;-39,54;-25,33;-39,54;3;3,13;3;3,13;0;0;
11375;-22,73;-39,64;-22,73;-39,64;3,13;3,22;3,13;3,22;0;0;
11395;-24,85;-33,62;-24,85;-33,62;2,95;3,03;2,95;3,03;0;0;
11414;-23,82;-35,42;-23,82;-35,42;2,84;3,16;2,84;3,16;0;0;
11432;-23,71;-38,81;-23,71;-38,81;2,38;3,08;2,38;3,08;0;0;
11452;-21,72;-37,24;-21,72;-37,24;2,22;3,19;2,22;3,19;0;0;
11471;-21,25;-43,45;-21,25;-43,45;2,45;3,12;2,45;3,12;0;0;
11488;-20,08;-32,96;-20,08;-32,96;2,76;3,07;2,76;3,07;0;0;
11508;-31,46;-43,11;-31,46;-43,11;3,38;3,14;3,38;3,14;0;0;
11529;-17,15;-41,68;-17,15;-41,68;3,7;3,49;3,7;3,49;0;0;
11548;-35,82;-36,47;-35,82;-36,47;3,92;3,45;3,92;3,45;0;0;
11566;-12,17;-35,05;-12,17;-35,05;6,04;3,45;6,04;3,45;1;0;
11588;-30,69;-38,35;-30,69;-38,35;11,32;4;11,32;4;1;0;
11609;-22,78;-44,03;-22,78;-44,03;14,55;3,95;14,55;3,95;1;0;
11626;-46,69;-31,91;-46,69;-31,91;16,4;3,94;16,4;3,94;1;0;
11645;2,45;-49,33;2,45;-49,33;22,29;3,94;22,29;3,94;1;0;
11663;-16,41;-29,34;-16,41;-29,34;23,43;4,17;23,43;4,17;1;0;
11686;-26,5;-38;-26,5;-38;19,79;4,11;19,79;4,11;1;0;
11705;-24,92;-35,27;-24,92;-35,27;16,46;3,58;16,46;3,58;1;0;
11727;-27,7;-39,55;-27,7;-39,55;12,58;3,75;12,58;3,75;1;0;
11747;26,17;-41,33;26,17;-41,33;13,45;3,69;13,45;3,69;1;0;
11766;-7,23;-39,23;-7,23;-39,23;12,97;3,27;12,97;3,27;1;0;
11785;-12,03;-47,29;-12,03;-47,29;15,51;3,32;15,51;3,32;1;0;
11805;-38,59;-44,76;-38,59;-44,76;19,45;3,5;19,45;3,5;1;0;
11825;-37,59;-40,18;-37,59;-40,18;25,82;3,63;25,82;3,63;1;0;
11843;-50,95;-34,61;-50,95;-34,61;29,46;3,57;29,46;3,57;1;0;
11862;51,36;-28,69;51,36;-28,69;33,05;4,16;33,05;4,16;1;0;
11879;51,36;-28,69;51,36;-28,69;37,26;4,9;37,26;4,9;1;0;
11898;-95,42;-41,99;-95,42;-41,99;36,23;4,97;36,23;4,97;1;0;
11918;-38,97;-37,82;-38,97;-37,82;40,24;4,57;40,24;4,57;1;0;
11939;4,22;-38,08;4,22;-38,08;39,17;4,55;39,17;4,55;0;0;
11963;-19,87;-36,57;-19,87;-36,57;40,26;4,18;40,26;4,18;0;0;
11991;-0,46;-38,19;-0,46;-38,19;36,86;3,84;36,86;3,84;0;0;
12009;-84,11;-35,23;-84,11;-35,23;35,53;3,98;35,53;3,98;0;0;
12029;39,8;-36,63;39,8;-36,63;35,52;4,01;35,52;4,01;0;0;
12048;-60,45;-47,62;-60,45;-47,62;34,09;4,35;34,09;4,35;0;0;
12068;-60,8;-41,77;-60,8;-41,77;41,81;5,24;41,81;5,24;0;0;
12087;-67,76;-44,08;-67,76;-44,08;42,72;5,23;42,72;5,23;0;0;
12108;-77,68;-50,6;-77,68;-50,6;49,5;5,36;49,5;5,36;0;0;
12126;7,21;-38,72;7,21;-38,72;51,48;5,17;51,48;5,17;0;0;
12145;-101,23;-44,99;-101,23;-44,99;55,19;5,42;55,19;5,42;0;0;
12164;-44,08;-40,23;-44,08;-40,23;51,95;4,97;51,95;4,97;0;0;
12185;-9,12;-32,7;-9,12;-32,7;48,29;4,61;48,29;4,61;0;0;
12203;-42,97;-44,89;-42,97;-44,89;45,26;4,46;45,26;4,46;0;0;
12220;-42,97;-44,89;-42,97;-44,89;43,21;4,49;43,21;4,49;0;0;
12240;-95,27;-37,57;-95,27;-37,57;44,3;4,22;44,3;4,22;0;0;
12260;-74,64;-31,78;-74,64;-31,78;38,51;4,41;38,51;4,41;0;0;
12278;-30,12;-53,73;-30,12;-53,73;39,85;4,6;39,85;4,6;0;0;
12311;-10,46;-35,58;-10,46;-35,58;43,86;5,22;43,86;5,22;0;0;
12341;19,15;-40,48;19,15;-40,48;41,01;5,03;41,01;5,03;0;0;
12361;-47,75;-30,37;-47,75;-30,37;43,02;4,63;43,02;4,63;0;0;
12380;-18,47;-45,52;-18,47;-45,52;36,88;4,96;36,88;4,96;0;0;
12397;-24,5;-34,1;-24,5;-34,1;30,55;4,64;30,55;4,64;0;0;
12414;-18,9;-39,62;-18,9;-39,62;25,25;4,29;25,25;4,29;0;0;
12431;-58,72;-40,36;-58,72;-40,36;18,32;3,85;18,32;3,85;0;0;
12449;-30,61;-36,67;-30,61;-36,67;12,64;3,86;12,64;3,86;0;0;
12468;-54,29;-34,41;-54,29;-34,41;8,9;3,59;8,9;3,59;0;0;
12485;-71,3;-38,41;-71,3;-38,41;10,71;3,27;10,71;3,27;0;0;
12504;-23,52;-31,78;-23,52;-31,78;12,55;3,07;12,55;3,07;0;0;
12527;-24,7;-41,1;-24,7;-41,1;12,71;2,87;12,71;2,87;0;0;
12545;-21,9;-44,28;-21,9;-44,28;12,37;2,72;12,37;2,72;0;0;
12562;-19,87;-40,51;-19,87;-40,51;12,73;2,9;12,73;2,9;0;0;
12581;-19,87;-40,51;-19,87;-40,51;11,79;3,08;11,79;3,08;0;0;
12600;-22,23;-34,01;-22,23;-34,01;6,8;3,39;6,8;3,39;0;0;
12619;-20,24;-39,29;-20,24;-39,29;6,73;3,1;6,73;3,1;0;0;
12639;-26,47;-39,65;-26,47;-39,65;8,17;3,01;8,17;3,01;0;0;
12657;28,57;-40,15;28,57;-40,15;13,28;2,92;13,28;2,92;0;0;
12675;-46,04;-46,99;-46,04;-46,99;14,86;3,06;14,86;3,06;0;0;
12695;-22,28;-45,81;-22,28;-45,81;14,44;3,39;14,44;3,39;0;0;
12714;-18,96;-37,64;-18,96;-37,64;14,25;3,78;14,25;3,78;0;0;
12732;-19,93;-24,67;-19,93;-24,67;13,51;4,81;13,51;4,81;0;0;
12749;-21,39;-34,2;-21,39;-34,2;11,57;5,61;11,57;5,61;0;0;
12768;-21,62;-37;-21,62;-37;4,77;6,75;4,77;6,75;0;0;
12786;-7,79;-43,37;-7,79;-43,37;4,02;6,45;4,02;6,45;0;0;
12803;-25,64;-36,98;-25,64;-36,98;4,34;6,47;4,34;6,47;0;0;
12824;-20,82;-35,57;-20,82;-35,57;4,47;7,49;4,47;7,49;0;0;
12846;-31,94;-42,07;-31,94;-42,07;4,28;6,48;4,28;6,48;0;0;
12866;-20,21;-37,18;-20,21;-37,18;4,34;6,44;4,34;6,44;0;0;
12886;-31,08;-32,32;-31,08;-32,32;5,09;6,12;5,09;6,12;0;0;
12906;-13,03;-42,94;-13,03;-42,94;5,93;6,08;5,93;6,08;0;0;
12925;-23,78;-28,26;-23,78;-28,26;5,78;5,57;5,78;5,57;0;0;
12942;-19,56;-37,28;-19,56;-37,28;5,68;4,73;5,68;4,73;0;0;
12963;-28,97;-41,03;-28,97;-41,03;5,51;4,17;5,51;4,17;0;0;
12982;-19,47;-36,72;-19,47;-36,72;5,41;3,71;5,41;3,71;0;0;
13002;-28,33;-31,55;-28,33;-31,55;4,75;3,46;4,75;3,46;0;0;
13020;-28,33;-31,55;-28,33;-31,55;3,49;3,55;3,49;3,55;0;0;
13043;-25,33;-31,55;-25,33;-31,55;3,23;3,02;3,23;3,02;0;0;
13069;-23,73;-38,56;-23,73;-38,56;2,79;2,87;2,79;2,87;0;0;
13087;-25,4;-39,96;-25,4;-39,96;2,63;3,46;2,63;3,46;0;0;
13108;-21,29;-37,92;-21,29;-37,92;2,49;3,7;2,49;3,7;0;0;
13126;-25,33;-33,24;-25,33;-33,24;3,17;3,58;3,17;3,58;0;0;
13143;-27,36;-38,17;-27,36;-38,17;3,57;3,66;3,57;3,66;0;0;
13162;-27,06;-43,23;-27,06;-43,23;3,69;3,31;3,69;3,31;0;0;
13183;-16,89;-46,87;-16,89;-46,87;4,02;3,75;4,02;3,75;0;0;
13202;-30,48;-37,42;-30,48;-37,42;4,01;2,89;4,01;2,89;0;0;
13224;-16,53;-38,58;-16,53;-38,58;4,23;3,23;4,23;3,23;0;0;
13243;-21,91;-41,6;-21,91;-41,6;4,52;3,31;4,52;3,31;0;0;
13261;-21,91;-41,6;-21,91;-41,6;4,59;3,4;4,59;3,4;0;0;
13282;-21,06;-44,81;-21,06;-44,81;4,82;3,63;4,82;3,63;0;0;
13299;-28,54;-39,6;-28,54;-39,6;4,36;3,59;4,36;3,59;0;0;
13321;-25,58;-42,75;-25,58;-42,75;4,02;4,01;4,02;4,01;0;0;
13338;-23,47;-40,31;-23,47;-40,31;3,69;4,17;3,69;4,17;0;0;
13358;-23,05;-34,59;-23,05;-34,59;3,33;4,2;3,33;4,2;0;0;
13378;-29;-47,66;-29;-47,66;3,53;3,79;3,53;3,79;0;0;
13395;-19,28;-35,04;-19,28;-35,04;3,83;3,73;3,83;3,73;0;0;
13413;-17,7;-41,1;-17,7;-41,1;3,74;3,38;3,74;3,38;0;0;
13432;-16,12;-36,68;-16,12;-36,68;4,05;2,92;4,05;2,92;0;0;
13452;-36,71;-39,63;-36,71;-39,63;3,74;2,97;3,74;2,97;0;0;
13475;-21,48;-40,19;-21,48;-40,19;3,87;2,76;3,87;2,76;1;0;
13492;-22,98;-41,95;-22,98;-41,95;3,14;2,85;3,14;2,85;1;0;
13510;-39,31;-40,85;-39,31;-40,85;3,98;2,91;3,98;2,91;1;0;
13528;-88,28;-37,58;-88,28;-37,58;10,76;3,18;10,76;3,18;1;0;
13548;-50,46;-36,95;-50,46;-36,95;14,94;3,59;14,94;3,59;1;0;
13567;-15,75;-45,58;-15,75;-45,58;16,43;3,53;16,43;3,53;1;0;
13584;23,79;-44,49;23,79;-44,49;20,34;3,62;20,34;3,62;1;0;
13602;-27,17;-36,97;-27,17;-36,97;23,34;4,1;23,34;4,1;1;0;
13620;-27,17;-36,97;-27,17;-36,97;22,69;4,86;22,69;4,86;1;0;
13639;-89,87;-42,9;-89,87;-42,9;25,29;5,49;25,29;5,49;1;0;
13659;-8,85;-33,24;-8,85;-33,24;28,96;5,48;28,96;5,48;1;0;
13678;-13,73;-55,91;-13,73;-55,91;30,65;5,58;30,65;5,58;1;0;
13698;2,72;-40,85;2,72;-40,85;34,26;5,53;34,26;5,53;1;0;
13719;32,56;-39,05;32,56;-39,05;31,85;4,74;31,85;4,74;1;0;
13738;4,61;-46,34;4,61;-46,34;30,96;4,14;30,96;4,14;1;0;
13758;-23,35;-51,64;-23,35;-51,64;31,7;4,77;31,7;4,77;1;0;
13778;-109,38;-36,96;-109,38;-36,96;32,55;4,44;32,55;4,44;1;0;
13796;-8,47;-34,55;-8,47;-34,55;31,33;4,33;31,33;4,33;1;0;
13817;-97,93;-39,59;-97,93;-39,59;29,77;4,46;29,77;4,46;1;0;
13835;28,92;-49,11;28,92;-49,11;33,12;4,58;33,12;4,58;0;0;
13858;10,2;-38,26;10,2;-38,26;32,85;4,62;32,85;4,62;0;0;
13877;54,14;-34,16;54,14;-34,16;36,95;4,42;36,95;4,42;0;0;
13900;-4,68;-37,08;-4,68;-37,08;37,38;4,92;37,38;4,92;0;0;
13921;-29,04;-36,96;-29,04;-36,96;42,57;4,69;42,57;4,69;0;0;
13940;-57,65;-43,14;-57,65;-43,14;39,66;4,64;39,66;4,64;0;0;
13958;36,03;-38,78;36,03;-38,78;39,4;4,71;39,4;4,71;0;0;
13978;1,39;-44,46;1,39;-44,46;37,07;4,69;37,07;4,69;0;0;
14000;-20,03;-38,19;-20,03;-38,19;28,84;4,5;28,84;4,5;0;0;
14017;-51,56;-39,61;-51,56;-39,61;31,63;3,79;31,63;3,79;0;0;
14037;-27,95;-40,27;-27,95;-40,27;27,17;3,8;27,17;3,8;0;0;
14057;-31,71;-34,31;-31,71;-34,31;23,56;3,79;23,56;3,79;0;0;
14075;-26,25;-36,35;-26,25;-36,35;19,55;3,67;19,55;3,67;0;0;
14094;-30,67;-37,31;-30,67;-37,31;15,99;3,87;15,99;3,87;0;0;
14114;-24,88;-40,61;-24,88;-40,61;12,53;3,17;12,53;3,17;0;0;
14131;-16,8;-40,37;-16,8;-40,37;6,86;3,29;6,86;3,29;0;0;
14149;-49,96;-38,81;-49,96;-38,81;10,26;3,51;10,26;3,51;0;0;
14168;-49,96;-38,81;-49,96;-38,81;14,51;3,41;14,51;3,41;0;0;
14185;-27,83;-28,74;-27,83;-28,74;15,48;3,17;15,48;3,17;0;0;
14204;-28,89;-40,69;-28,89;-40,69;13,97;3,42;13,97;3,42;0;0;
14224;-27,92;-49,41;-27,92;-49,41;13,52;3,96;13,52;3,96;0;0;
14243;-26,44;-39,57;-26,44;-39,57;10,98;4,35;10,98;4,35;0;0;
14259;-26,44;-39,57;-26,44;-39,57;6,31;4,5;6,31;4,5;0;0;
14278;-31,46;-39,4;-31,46;-39,4;3,88;4,05;3,88;4,05;0;0;
14295;-22,11;-41,34;-22,11;-41,34;3,55;3,88;3,55;3,88;0;0;
14315;-20,92;-37,61;-20,92;-37,61;3,8;4,04;3,8;4,04;0;0;
14333;-32,5;-41,97;-32,5;-41,97;4,12;3,96;4,12;3,96;0;0;
14354;-24,04;-40,48;-24,04;-40,48;5,34;3,99;5,34;3,99;0;0;
14370;-27,14;-36,63;-27,14;-36,63;5,36;4,15;5,36;4,15;0;0;
14389;-23,18;-36,06;-23,18;-36,06;5,08;4,51;5,08;4,51;0;0;
14408;-22,54;-27,34;-22,54;-27,34;5,06;4,41;5,06;4,41;1;0;
14434;-7,4;-43,56;-7,4;-43,56;5,9;4,51;5,9;4,51;1;0;
14456;-28,53;-42,03;-28,53;-42,03;6,63;4,2;6,63;4,2;1;0;
14473;-41,04;-35,97;-41,04;-35,97;7,53;4,15;7,53;4,15;1;0;
14491;-6,12;-35,47;-6,12;-35,47;7,74;4,02;7,74;4,02;1;0;
14588;-38,64;-29,15;-38,64;-29,15;32,76;4,62;32,76;4,62;1;0;
14688;-147,43;-36,48;-147,43;-36,48;41,96;5,22;41,96;5,22;1;0;
14788;-10,92;-26,81;-10,92;-26,81;36,52;8;36,52;8;0;0;
14814;18,68;-40,67;18,68;-40,67;30,05;8,07;30,05;8,07;0;0;
14837;114,3;-32,9;114,3;-32,9;35,67;7,12;35,67;7,12;0;0;
14857;23,38;-37,69;23,38;-37,69;35,23;6,02;35,23;6,02;0;0;
14878;-100,91;-31,57;-100,91;-31,57;41,97;4,68;41,97;4,68;0;0;
14899;-49,01;-47,61;-49,01;-47,61;35,6;4,44;35,6;4,44;0;0;
14917;-13,25;-40,03;-13,25;-40,03;39,76;4,37;39,76;4,37;0;0;
14936;14,81;-44,92;14,81;-44,92;40,61;4,19;40,61;4,19;0;0;
14959;-52,14;-38,03;-52,14;-38,03;37,87;4,13;37,87;4,13;0;0;
14980;-59,66;-36,99;-59,66;-36,99;34,29;4,06;34,29;4,06;0;0;
14999;-64,84;-34,57;-64,84;-34,57;34,17;3,69;34,17;3,69;0;0;
15021;-85,74;-28;-85,74;-28;39,04;3,93;39,04;3,93;0;0;
15039;-162,62;-45,31;-162,62;-45,31;40,68;3,71;40,68;3,71;0;0;
15056;-49,59;-45,87;-49,59;-45,87;43,13;4,3;43,13;4,3;0;0;
15075;-47,54;-39,86;-47,54;-39,86;41,87;4,23;41,87;4,23;0;0;
15091;-12,35;-32,41;-12,35;-32,41;40,85;4,88;40,85;4,88;0;0;
15110;-150,91;-45,13;-150,91;-45,13;41,8;4,74;41,8;4,74;0;0;
15130;5,19;-27,47;5,19;-27,47;40,52;4,81;40,52;4,81;0;0;
15150;-11,32;-40,2;-11,32;-40,2;37,55;4,62;37,55;4,62;0;0;
15167;-88,22;-48,39;-88,22;-48,39;40,82;4,51;40,82;4,51;0;0;
15185;-4,64;-31,95;-4,64;-31,95;40,84;4,54;40,84;4,54;0;0;
15206;-49,06;-39,91;-49,06;-39,91;39,13;4,57;39,13;4,57;0;0;
15230;-40,25;-35,58;-40,25;-35,58;33,77;4,61;33,77;4,61;0;0;
15253;24,82;-36,45;24,82;-36,45;28,32;4,17;28,32;4,17;0;0;
15276;-17,66;-40,42;-17,66;-40,42;27,11;4,12;27,11;4,12;0;0;
15298;12;-28,55;12;-28,55;24,83;4,02;24,83;4,02;0;0;
15324;21,57;-41,22;21,57;-41,22;24,28;3,78;24,28;3,78;0;0;
15348;-55,77;-44,78;-55,77;-44,78;26,2;3,66;26,2;3,66;0;0;
15370;25,58;-36,12;25,58;-36,12;24,15;3,58;24,15;3,58;0;0;
15388;-32,28;-43,3;-32,28;-43,3;25,22;3,93;25,22;3,93;0;0;
15406;-41,05;-40,99;-41,05;-40,99;24,96;3,57;24,96;3,57;1;0;
15423;-27,18;-47,67;-27,18;-47,67;25,13;3,35;25,13;3,35;1;0;
15444;24,4;-41,72;24,4;-41,72;28,51;3,67;28,51;3,67;1;0;
15464;-66,97;-41,79;-66,97;-41,79;29,8;3,9;29,8;3,9;1;0;
15481;-66,97;-41,79;-66,97;-41,79;28,94;3,9;28,94;3,9;1;0;
15497;-24,73;-43,08;-24,73;-43,08;27,3;3,73;27,3;3,73;1;0;
15516;-2,89;-40,52;-2,89;-40,52;26,24;4,11;26,24;4,11;1;0;
15533;-30,5;-41,7;-30,5;-41,7;20,8;3,84;20,8;3,84;1;0;
15555;-23,01;-31,24;-23,01;-31,24;18,01;4,13;18,01;4,13;1;0;
15577;-29,34;-38,05;-29,34;-38,05;14,27;3,91;14,27;3,91;1;0;
15599;-18,39;-34,66;-18,39;-34,66;10,77;3,91;10,77;3,91;1;0;
15626;-13,69;-43,83;-13,69;-43,83;8,76;3,65;8,76;3,65;1;0;
15645;-106,49;-40,24;-106,49;-40,24;10,29;3,42;10,29;3,42;1;0;
15663;-12,8;-31,35;-12,8;-31,35;12,72;3,25;12,72;3,25;1;0;
15681;-12,8;-31,35;-12,8;-31,35;15,31;3,06;15,31;3,06;1;0;
15697;-24,38;-41,62;-24,38;-41,62;17,7;2,93;17,7;2,93;1;0;
15715;-16,79;-33,02;-16,79;-33,02;17,37;3,27;17,37;3,27;1;0;
15739;-26,76;-33,79;-26,76;-33,79;18,19;3,69;18,19;3,69;1;0;
15756;-120,49;-49,5;-120,49;-49,5;29,24;4,94;29,24;4,94;1;0;
15778;-36,61;-36,44;-36,61;-36,44;32,34;4,84;32,34;4,84;0;0;
15800;-54,17;-30,54;-54,17;-30,54;35,07;4,84;35,07;4,84;0;0;
15820;2,01;-40,48;2,01;-40,48;41,06;4,76;41,06;4,76;0;0;
15839;-87,56;-39,71;-87,56;-39,71;43,37;4,61;43,37;4,61;0;0;
15862;1,21;-44,58;1,21;-44,58;37,27;4,1;37,27;4,1;0;0;
15885;-56,17;-44,77;-56,17;-44,77;30,67;3,94;30,67;3,94;0;0;
15904;-26,99;-41,2;-26,99;-41,2;30,13;4,06;30,13;4,06;0;0;
15931;-87,59;-31,31;-87,59;-31,31;34,45;4,32;34,45;4,32;0;0;
15953;-75,6;-29,31;-75,6;-29,31;36,29;4,78;36,29;4,78;0;0;
15973;13,17;-44,34;13,17;-44,34;40,07;5,08;40,07;5,08;0;0;
15989;-40,64;-48,2;-40,64;-48,2;43,87;5,35;43,87;5,35;0;0;
16006;-7,09;-32,75;-7,09;-32,75;42,71;5,61;42,71;5,61;0;0;
16024;-48,68;-33,16;-48,68;-33,16;37,5;5,65;37,5;5,65;0;0;
16043;-8,36;-36,01;-8,36;-36,01;34,04;5,01;34,04;5,01;0;0;
16061;-8,36;-36,01;-8,36;-36,01;29,46;4,53;29,46;4,53;0;0;
16081;-47,8;-40,34;-47,8;-40,34;25,38;4,21;25,38;4,21;0;0;
16098;-48,82;-42,19;-48,82;-42,19;21,26;3,65;21,26;3,65;0;0;
16116;-27,9;-38,91;-27,9;-38,91;14,71;3,62;14,71;3,62;0;0;
16133;-21,94;-31,68;-21,94;-31,68;11,31;3,28;11,31;3,28;0;0;
16151;-20,48;-41,38;-20,48;-41,38;8,04;3,28;8,04;3,28;0;0;
16167;-22,25;-40,29;-22,25;-40,29;6,12;3,01;6,12;3,01;0;0;
16186;-36,05;-36,63;-36,05;-36,63;5,66;3,18;5,66;3,18;0;0;
16204;-26,88;-41,45;-26,88;-41,45;4,52;3,03;4,52;3,03;0;0;
16224;-51,93;-31,99;-51,93;-31,99;6,7;3,3;6,7;3,3;0;0;
16249;-77,44;-37,17;-77,44;-37,17;10,06;2,96;10,06;2,96;0;0;
16269;-43,9;-35,54;-43,9;-35,54;13,43;3,37;13,43;3,37;0;0;
16287;28,13;-41,34;28,13;-41,34;16,65;3,44;16,65;3,44;0;0;
16308;4,47;-36,74;4,47;-36,74;17,67;3,49;17,67;3,49;0;0;
16333;-39,88;-39;-39,88;-39;18,15;3,28;18,15;3,28;0;0;
16355;-23,49;-52,88;-23,49;-52,88;15,34;4,28;15,34;4,28;0;0;
16376;-24,51;-47,42;-24,51;-47,42;12,29;4,1;12,29;4,1;0;0;
16400;-8,88;-40,62;-8,88;-40,62;9,85;3,97;9,85;3,97;0;0;
16421;-26,65;-36,29;-26,65;-36,29;6,6;3,95;6,6;3,95;0;0;
16440;-20,38;-37,15;-20,38;-37,15;5,45;3,92;5,45;3,92;0;0;
16458;-40,8;-44,17;-40,8;-44,17;5,8;3,58;5,8;3,58;0;0;
16475;-27,36;-46,42;-27,36;-46,42;5,68;3,15;5,68;3,15;0;0;
16495;-20,16;-40,03;-20,16;-40,03;6,39;4,13;6,39;4,13;0;0;
16517;-28,17;-43,45;-28,17;-43,45;5,54;4,71;5,54;4,71;0;0;
16536;-27,28;-39,44;-27,28;-39,44;5,3;5,05;5,3;5,05;0;0;
16554;-15,41;-74,31;-15,41;-74,31;4,86;7,29;4,86;7,29;0;0;
16572;-19,59;-28,6;-19,59;-28,6;4,02;8,5;4,02;8,5;0;0;
16591;-25,57;-36,38;-25,57;-36,38;3,82;8,17;3,82;8,17;0;0;
16610;-32,81;-37,08;-32,81;-37,08;3,61;8,07;3,61;8,07;0;0;
16634;-25,09;-36,75;-25,09;-36,75;3,59;7,83;3,59;7,83;0;0;
16650;-24,15;-44,42;-24,15;-44,42;4,08;7,5;4,08;7,5;0;0;
16669;-16,88;-45,98;-16,88;-45,98;4,04;6,34;4,04;6,34;0;0;
16688;-23,01;-36,23;-23,01;-36,23;3,91;4,95;3,91;4,95;0;0;
16711;-32,91;-41,91;-32,91;-41,91;4,08;4,53;4,08;4,53;0;0;
16731;-25,49;-39,42;-25,49;-39,42;4,22;4,52;4,22;4,52;0;0;
16748;-30,35;-46,42;-30,35;-46,42;3,4;4,81;3,4;4,81;0;0;
16765;-31,14;-33,06;-31,14;-33,06;3,92;4,62;3,92;4,62;0;0;
16786;-18,3;-32,63;-18,3;-32,63;4,28;3,99;4,28;3,99;0;0;
16802;-26,48;-49,03;-26,48;-49,03;4,22;4,66;4,22;4,66;0;0;
16845;-23,01;-47,68;-23,01;-47,68;4,09;4,81;4,09;4,81;0;0;
16867;-21,27;-38,49;-21,27;-38,49;3,73;4,85;3,73;4,85;0;0;
16884;-28,54;-38,99;-28,54;-38,99;3,38;4,6;3,38;4,6;0;0;
16901;-28,54;-38,99;-28,54;-38,99;3,06;4,58;3,06;4,58;0;0;
16919;-16,78;-30,43;-16,78;-30,43;2,58;4,6;2,58;4,6;0;0;
16938;-22,97;-39,29;-22,97;-39,29;2,92;4,14;2,92;4,14;0;0;
16955;-28,99;-38,88;-28,99;-38,88;2,73;3,48;2,73;3,48;0;0;
16973;-26,86;-32,6;-26,86;-32,6;2,85;3,58;2,85;3,58;0;0;
16991;-19,05;-40,33;-19,05;-40,33;3,26;4,07;3,26;4,07;0;0;
17008;-31,52;-43,14;-31,52;-43,14;3,92;4,42;3,92;4,42;0;0;
17027;-33,1;-33,92;-33,1;-33,92;3,89;4,04;3,89;4,04;0;0;
17047;-26,88;-38,55;-26,88;-38,55;3,63;4,22;3,63;4,22;0;0;
17067;-19,49;-33,4;-19,49;-33,4;3,76;4,27;3,76;4,27;0;0;
17084;-27,34;-40,78;-27,34;-40,78;4,49;3,84;4,49;3,84;0;0;
17100;-27,34;-40,78;-27,34;-40,78;4,81;3,16;4,81;3,16;0;0;
17117;-29,14;-39,05;-29,14;-39,05;3,95;2,43;3,95;2,43;0;0;
17136;-29,6;-42,58;-29,6;-42,58;4,1;2,9;4,1;2,9;0;0;
17162;-21,2;-31,44;-21,2;-31,44;4,67;3,06;4,67;3,06;0;0;
17179;-21,2;-31,44;-21,2;-31,44;4,77;3,22;4,77;3,22;0;0;
17198;-24,73;-42,49;-24,73;-42,49;3,97;3,46;3,97;3,46;0;0;
17216;-23,96;-47,63;-23,96;-47,63;4,05;3,8;4,05;3,8;0;0;
17240;7,39;-40,88;7,39;-40,88;6,23;3,61;6,23;3,61;0;0;
17298;-26,43;-46,02;-26,43;-46,02;5,61;3,86;5,61;3,86;1;0;
17324;-30,54;-39,15;-30,54;-39,15;5,28;3,71;5,28;3,71;1;0;
17352;-19,91;-35,98;-19,91;-35,98;5,51;3,5;5,51;3,5;1;0;
17368;-30,13;-30,56;-30,13;-30,56;6,8;3,38;6,8;3,38;1;0;
17390;-25,37;-47,74;-25,37;-47,74;10,08;3,75;10,08;3,75;1;0;
17410;44,53;-46,36;44,53;-46,36;13,59;3,55;13,59;3,55;1;0;
17431;51,7;-45,26;51,7;-45,26;22,4;3,74;22,4;3,74;1;0;
17449;-28,28;-39,87;-28,28;-39,87;25,82;4,27;25,82;4,27;1;0;
17467;-59,47;-53,07;-59,47;-53,07;27,47;4,87;27,47;4,87;1;0;
17485;-22,76;-33,63;-22,76;-33,63;24,31;5,05;24,31;5,05;1;0;
17513;-20,08;-35,73;-20,08;-35,73;23,59;5,1;23,59;5,1;1;0;
17531;-17,43;-34,87;-17,43;-34,87;21,27;5,11;21,27;5,11;1;0;
17549;-39,6;-29,05;-39,6;-29,05;18,91;5,1;18,91;5,1;1;0;
17567;3,52;-38,36;3,52;-38,36;20,31;5,52;20,31;5,52;1;0;
17588;40,3;-43;40,3;-43;24,53;4,8;24,53;4,8;1;0;
17606;-49,83;-38,66;-49,83;-38,66;28,15;4,53;28,15;4,53;1;0;
17626;-63,44;-18,72;-63,44;-18,72;32,35;4,86;32,35;4,86;1;0;
17648;-49,12;-48,34;-49,12;-48,34;35,76;5,12;35,76;5,12;0;0;
17674;0,09;-38,03;0,09;-38,03;38,03;4,61;38,03;4,61;0;0;
17692;-71,05;-45,79;-71,05;-45,79;40,5;4,76;40,5;4,76;0;0;
17711;21,32;-33,03;21,32;-33,03;38,37;4,72;38,37;4,72;0;0;
17734;-89,55;-46,71;-89,55;-46,71;41,63;4,49;41,63;4,49;0;0;
17756;-95,49;-46,34;-95,49;-46,34;37,69;4,01;37,69;4,01;0;0;
17774;-24,31;-38,86;-24,31;-38,86;40,72;4,16;40,72;4,16;0;0;
17793;50,58;-44,47;50,58;-44,47;38,93;4,24;38,93;4,24;0;0;
17813;-9,05;-32,68;-9,05;-32,68;40,16;4,18;40,16;4,18;0;0;
17843;47,82;-41,83;47,82;-41,83;42,2;4,33;42,2;4,33;0;0;
17867;-32,32;-37,47;-32,32;-37,47;39,67;4,43;39,67;4,43;0;0;
17886;-31,94;-36,3;-31,94;-36,3;35,02;4,12;35,02;4,12;0;0;
17903;-113,97;-45,4;-113,97;-45,4;40,34;4,02;40,34;4,02;0;0;
17920;-113,97;-45,4;-113,97;-45,4;38,72;3,67;38,72;3,67;0;0;
17935;-107,76;-39,19;-107,76;-39,19;38,2;3,72;38,2;3,72;0;0;
17953;20,41;-32,19;20,41;-32,19;38,37;3,98;38,37;3,98;0;0;
17974;-62,67;-47,71;-62,67;-47,71;40,07;3,94;40,07;3,94;0;0;
17999;-56,06;-41,14;-56,06;-41,14;39,94;3,62;39,94;3,62;0;0;
18017;32,74;-36,9;32,74;-36,9;40,49;3,38;40,49;3,38;0;0;
18035;-42,99;-37,85;-42,99;-37,85;37,09;2,96;37,09;2,96;0;0;
18054;-17,51;-40,18;-17,51;-40,18;34,73;2,77;34,73;2,77;0;0;
18074;-46,77;-47,69;-46,77;-47,69;31,67;3,13;31,67;3,13;0;0;
18092;25,1;-37,68;25,1;-37,68;29,16;3,41;29,16;3,41;0;0;
18112;-22,51;-30,09;-22,51;-30,09;32,27;3,9;32,27;3,9;0;0;
18130;16,8;-48,24;16,8;-48,24;29,31;4,32;29,31;4,32;0;0;
18169;-21,8;-38,92;-21,8;-38,92;28,16;4,35;28,16;4,35;0;0;
18188;-23,9;-43,87;-23,9;-43,87;24,31;4,01;24,31;4,01;0;0;
18208;-26,89;-38,4;-26,89;-38,4;21,95;3,74;21,95;3,74;0;0;
18225;-26,01;-43,49;-26,01;-43,49;17,81;3,5;17,81;3,5;0;0;
18244;-25,07;-45,31;-25,07;-45,31;7,76;2,99;7,76;2,99;0;0;
18265;-13,19;-41,85;-13,19;-41,85;5,92;2,74;5,92;2,74;0;0;
18287;-72,27;-38,84;-72,27;-38,84;8,68;2,69;8,68;2,69;0;0;
18314;-52,46;-36,39;-52,46;-36,39;10,03;2,72;10,03;2,72;0;0;
18334;-46,3;-34,33;-46,3;-34,33;12,45;2,8;12,45;2,8;0;0;
18354;-22,98;-41,04;-22,98;-41,04;12,26;3,28;12,26;3,28;0;0;
18372;-24,52;-51,46;-24,52;-51,46;11,01;4,22;11,01;4,22;0;0;
18391;-27,1;-36,79;-27,1;-36,79;9,25;4,89;9,25;4,89;0;0;
18414;-26,76;-50,18;-26,76;-50,18;6,78;5,73;6,78;5,73;0;0;
18433;-26,06;-26,9;-26,06;-26,9;5,78;5,79;5,78;5,79;0;0;
18454;-26,04;-54,06;-26,04;-54,06;3,56;6,09;3,56;6,09;0;0;
18480;-23,7;-35,15;-23,7;-35,15;3,69;6,12;3,69;6,12;0;0;
18498;-21,8;-54,53;-21,8;-54,53;3,88;5,42;3,88;5,42;0;0;
18519;-23,38;-53,79;-23,38;-53,79;4,1;6,21;4,1;6,21;0;0;
18538;-26,4;-33,73;-26,4;-33,73;4,79;6,37;4,79;6,37;0;0;
18562;-22,68;-42,53;-22,68;-42,53;4,01;6,01;4,01;6,01;0;0;
18582;-26,83;-44,24;-26,83;-44,24;4,14;5,03;4,14;5,03;0;0;
18603;-28,77;-49,21;-28,77;-49,21;3,82;4,81;3,82;4,81;0;0;
18630;-29,38;-35,63;-29,38;-35,63;3,82;4,54;3,82;4,54;0;0;
18647;-21,03;-37,44;-21,03;-37,44;3,25;3,46;3,25;3,46;0;0;
18666;-22,19;-44,01;-22,19;-44,01;2,72;3,65;2,72;3,65;0;0;
18685;-31,57;-39,01;-31,57;-39,01;3,04;3,81;3,04;3,81;0;0;
18703;-23,87;-40,65;-23,87;-40,65;3,1;4,53;3,1;4,53;0;0;
18720;-23,87;-40,65;-23,87;-40,65;2,97;4,81;2,97;4,81;0;0;
18738;-25,9;-35,42;-25,9;-35,42;2,95;4,62;2,95;4,62;0;0;
18757;-28,53;-38,56;-28,53;-38,56;3,03;4,59;3,03;4,59;0;0;
18787;-29,77;-44,67;-29,77;-44,67;3,03;4,95;3,03;4,95;0;0;
18805;-25,21;-36,74;-25,21;-36,74;3,11;5,29;3,11;5,29;0;0;
18824;-33,24;-63,8;-33,24;-63,8;3,31;5,63;3,31;5,63;0;0;
18849;-26,89;-37,74;-26,89;-37,74;3,67;5,95;3,67;5,95;0;0;
18871;-33,43;-41,47;-33,43;-41,47;4,2;6,36;4,2;6,36;0;0;
18889;-20,25;-42,85;-20,25;-42,85;4,46;6,33;4,46;6,33;0;0;
18908;-26,05;-43,69;-26,05;-43,69;4,37;5,65;4,37;5,65;0;0;
18944;-31,08;-44,29;-31,08;-44,29;4,22;5,05;4,22;5,05;0;0;
18993;-26,45;-41,4;-26,45;-41,4;3,97;4,02;3,97;4,02;0;0;
19018;-31,32;-38,01;-31,32;-38,01;3,24;4,43;3,24;4,43;0;0;
19036;-15,17;-32,7;-15,17;-32,7;3,28;4,31;3,28;4,31;0;0;
19055;-24,3;-45,26;-24,3;-45,26;2,76;4,12;2,76;4,12;0;0;
19076;-23,78;-40,88;-23,78;-40,88;2,84;4,13;2,84;4,13;0;0;
19107;-25,47;-38,6;-25,47;-38,6;2,99;4,5;2,99;4,5;0;0;
19125;-19,54;-44,84;-19,54;-44,84;3,66;4,47;3,66;4,47;0;0;
19145;-30,88;-35,64;-30,88;-35,64;3,57;4,4;3,57;4,4;0;0;
19160;-30,88;-35,64;-30,88;-35,64;3,6;4,58;3,6;4,58;0;0;
19180;-25,92;-47,44;-25,92;-47,44;4,06;4,36;4,06;4,36;0;0;
19201;-26,05;-35,32;-26,05;-35,32;3,89;4,2;3,89;4,2;0;1;
19218;3,03;-29,84;3,03;-29,84;5,31;4,19;5,31;4,19;0;1;
19235;-34,5;-39,82;-34,5;-39,82;6,45;3,98;6,45;3,98;0;1;
19265;-60,16;-54,27;-60,16;-54,27;11,55;4,01;11,55;4,01;0;1;
19282;-34,14;-47,63;-34,14;-47,63;12,56;3,48;12,56;3,48;0;1;
19299;-34,14;-47,63;-34,14;-47,63;13,82;3,62;13,82;3,62;0;1;
19319;-28,93;-25,41;-28,93;-25,41;13,94;5,57;13,94;5,57;0;1;
19335;-32,9;-10,52;-32,9;-10,52;12,57;7,41;12,57;7,41;0;1;
19354;-14,22;-26,2;-14,22;-26,2;10,35;9,05;10,35;9,05;0;1;
19372;-20,08;-26,55;-20,08;-26,55;6,85;9,14;6,85;9,14;0;1;
19393;-30,63;-52,69;-30,63;-52,69;5,91;10,52;5,91;10,52;0;1;
19419;-23,14;-18,19;-23,14;-18,19;6,12;12,84;6,12;12,84;0;1;
19436;-28,36;-40,75;-28,36;-40,75;5,26;11,91;5,26;11,91;0;1;
19457;-17,53;-41,02;-17,53;-41,02;5,05;10,9;5,05;10,9;0;1;
19474;-19,54;-58,03;-19,54;-58,03;4,96;10,91;4,96;10,91;0;1;
19493;-23,72;-27,89;-23,72;-27,89;4,75;11,72;4,75;11,72;0;1;
19514;-20,63;-51,21;-20,63;-51,21;5,16;12,61;5,16;12,61;0;1;
19530;-25,72;-27,03;-25,72;-27,03;5,04;11,07;5,04;11,07;0;0;
19550;-31,8;-27,31;-31,8;-27,31;5,86;12,83;5,86;12,83;0;0;
19579;-39,04;-8,87;-39,04;-8,87;6,39;14,64;6,39;14,64;0;0;
19596;-15,67;-22,01;-15,67;-22,01;6,94;12,91;6,94;12,91;0;0;
19615;-23,31;-38,72;-23,31;-38,72;7,46;13,89;7,46;13,89;0;0;
19641;-21,73;-37;-21,73;-37;7,51;13,95;7,51;13,95;0;0;
19672;-25,23;-46,46;-25,23;-46,46;6,78;13,51;6,78;13,51;0;0;
19694;-25,62;-55,34;-25,62;-55,34;6;12,95;6;12,95;0;0;
19715;-23,17;-42,52;-23,17;-42,52;5,63;11,25;5,63;11,25;0;0;
19750;-29,71;-52,58;-29,71;-52,58;4,78;9,51;4,78;9,51;0;0;
19776;-23,21;-26,69;-23,21;-26,69;4,52;8,63;4,52;8,63;0;0;
19794;-25,3;-37,49;-25,3;-37,49;4,2;7,43;4,2;7,43;0;0;
19812;-19,97;-35,62;-19,97;-35,62;4,45;7,96;4,45;7,96;0;0;
19830;-25,17;-40,16;-25,17;-40,16;4,44;6,78;4,44;6,78;0;0;
19850;-28,51;-34,68;-28,51;-34,68;4,42;7,07;4,42;7,07;0;0;
19871;-29,7;-44,43;-29,7;-44,43;4,69;6,65;4,69;6,65;0;0;
19901;-24,89;-43,68;-24,89;-43,68;4,61;5,55;4,61;5,55;0;0;
19921;-19,72;-40,63;-19,72;-40,63;4,4;4,77;4,4;4,77;1;0;
19939;-24,96;-44,77;-24,96;-44,77;4,33;4,07;4,33;4,07;1;0;
19959;-22,17;-42,84;-22,17;-42,84;4,14;3,84;4,14;3,84;1;0;
19981;-27;-39,14;-27;-39,14;3,64;2,92;3,64;2,92;1;0;
20000;-23,06;-44,51;-23,06;-44,51;3,25;3,07;3,25;3,07;1;0;
20018;-14,29;-59,49;-14,29;-59,49;3,54;4,55;3,54;4,55;1;0;
20037;-23,24;-44,54;-23,24;-44,54;6,59;4,77;6,59;4,77;1;0;
20065;-23,59;-34,28;-23,59;-34,28;9,98;5,27;9,98;5,27;1;0;
20085;-32,18;-40,72;-32,18;-40,72;11,12;5,8;11,12;5,8;1;0;
20104;-32,85;-40,59;-32,85;-40,59;15,79;6,39;15,79;6,39;1;0;
20122;-48,89;-29,52;-48,89;-29,52;20,69;6,2;20,69;6,2;1;0;
20140;-48,89;-29,52;-48,89;-29,52;23,4;5,6;23,4;5,6;1;0;
20156;-39,9;-35,71;-39,9;-35,71;23,67;5,58;23,67;5,58;1;0;
20175;-20,7;-34,51;-20,7;-34,51;26,26;5,81;26,26;5,81;1;0;
20194;-20,83;-38,24;-20,83;-38,24;27,32;6,21;27,32;6,21;1;0;
20220;-68,57;-49,54;-68,57;-49,54;37,17;5,77;37,17;5,77;1;0;
20239;-15,65;-34,34;-15,65;-34,34;36,31;5,67;36,31;5,67;1;0;
20256;-76,23;-33,92;-76,23;-33,92;43,32;5,77;43,32;5,77;0;0;
20275;-67,16;-35,67;-67,16;-35,67;48,5;5,09;48,5;5,09;0;0;
20295;-42,5;-36,08;-42,5;-36,08;51,47;4,47;51,47;4,47;0;0;
20314;-98,95;-50,07;-98,95;-50,07;49,05;4,85;49,05;4,85;0;0;
20333;-50,18;-40,19;-50,18;-40,19;43,73;5,46;43,73;5,46;0;0;
20359;-30,39;-38,99;-30,39;-38,99;42,64;4,79;42,64;4,79;0;0;
20393;50,29;-36,78;50,29;-36,78;37,93;4,45;37,93;4,45;0;0;
20414;-25,72;-34,97;-25,72;-34,97;36,45;4,86;36,45;4,86;0;0;
20438;18,36;-35,97;18,36;-35,97;39,23;4,69;39,23;4,69;0;0;
20484;34,79;-41,31;34,79;-41,31;42,35;5,58;42,35;5,58;0;0;
20512;74,18;-38,34;74,18;-38,34;45,89;5,63;45,89;5,63;0;0;
20540;-37,83;-40,76;-37,83;-40,76;43,86;5,97;43,86;5,97;0;0;
20558;2,4;-42,64;2,4;-42,64;45,89;6,35;45,89;6,35;0;0;
20575;-45,3;-42,61;-45,3;-42,61;45,83;6,17;45,83;6,17;0;0;
20595;-17,73;-42,35;-17,73;-42,35;42,31;5,64;42,31;5,64;0;0;
20613;29,15;-38,38;29,15;-38,38;39,57;4,24;39,57;4,24;0;0;
20632;-83,04;-45,47;-83,04;-45,47;43,5;4,31;43,5;4,31;0;0;
20653;-6,31;-40,84;-6,31;-40,84;38,96;4,31;38,96;4,31;0;0;
20674;-96,88;-32,25;-96,88;-32,25;36,12;4,33;36,12;4,33;0;0;
20699;-26,23;-40,79;-26,23;-40,79;34,31;4,4;34,31;4,4;0;0;
20718;-63,38;-40,62;-63,38;-40,62;35,07;4,62;35,07;4,62;0;0;
20737;-41,41;-41,32;-41,41;-41,32;31,45;4,54;31,45;4,54;0;0;
20756;-39,19;-33,01;-39,19;-33,01;27,93;4,31;27,93;4,31;0;0;
20783;-29,44;-38,52;-29,44;-38,52;30,64;4,37;30,64;4,37;0;0;
20804;39,1;-31,2;39,1;-31,2;28,8;3,66;28,8;3,66;0;0;
20833;-36,93;-38,95;-36,93;-38,95;31,39;3,45;31,39;3,45;0;0;
20869;60,42;-33,33;60,42;-33,33;30,91;3,97;30,91;3,97;0;0;
20889;-34,01;-44,79;-34,01;-44,79;26,54;3,84;26,54;3,84;0;0;
20910;-7,09;-37,68;-7,09;-37,68;25,89;3,32;25,89;3,32;0;0;
20930;-53,8;-36,5;-53,8;-36,5;20,81;3,46;20,81;3,46;0;0;
20952;-11,39;-37,54;-11,39;-37,54;17,34;3,38;17,34;3,38;0;0;
20972;-25,26;-38,1;-25,26;-38,1;14,43;3,37;14,43;3,37;0;0;
20994;15,78;-43,05;15,78;-43,05;14,42;3,09;14,42;3,09;0;0;
21024;-23,59;-33,07;-23,59;-33,07;13,83;3,26;13,83;3,26;0;0;
21045;-25,53;-36,15;-25,53;-36,15;12,7;3,5;12,7;3,5;0;0;
21067;-34,43;-36,93;-34,43;-36,93;11,49;3,42;11,49;3,42;0;0;
21089;-30,46;-39,08;-30,46;-39,08;10,11;3,16;10,11;3,16;1;0;
21112;-28,09;-36,44;-28,09;-36,44;8,45;3,17;8,45;3,17;1;0;
21134;-6,15;-45,5;-6,15;-45,5;6,17;3,28;6,17;3,28;1;0;
21154;-27,47;-50,65;-27,47;-50,65;6,2;3,4;6,2;3,4;1;0;
21183;-45,78;-38,32;-45,78;-38,32;6,59;3,51;6,59;3,51;1;0;
21202;-31,88;-40,06;-31,88;-40,06;6,55;3,7;6,55;3,7;1;0;
21220;-31,88;-40,06;-31,88;-40,06;7,75;3,83;7,75;3,83;1;0;
21239;-30,56;-41,69;-30,56;-41,69;7,79;3,98;7,79;3,98;1;0;
21260;-26,49;-28,88;-26,49;-28,88;6,82;4,64;6,82;4,64;1;0;
21280;-22,53;-32,41;-22,53;-32,41;7,25;4,74;7,25;4,74;1;0;
21299;-17,39;-39,88;-17,39;-39,88;6,63;4,43;6,63;4,43;1;0;
21320;-30,53;-41,64;-30,53;-41,64;4,95;4,77;4,95;4,77;1;0;
21347;-27,7;-43,94;-27,7;-43,94;4,22;4,53;4,22;4,53;1;0;
21367;-27,54;-42,78;-27,54;-42,78;3,65;4,12;3,65;4,12;1;0;
21386;-23,18;-37,81;-23,18;-37,81;3,8;3,77;3,8;3,77;1;0;
21405;-27,54;-32,16;-27,54;-32,16;3,09;3,84;3,09;3,84;1;0;
21436;-17,28;-42,13;-17,28;-42,13;3,35;4,03;3,35;4,03;0;0;
21454;-27,89;-39,87;-27,89;-39,87;3,25;4,47;3,25;4,47;0;0;
21472;-21,81;-36,85;-21,81;-36,85;3,72;4,65;3,72;4,65;0;0;
21501;-28,97;-40,28;-28,97;-40,28;4,65;4,46;4,65;4,46;0;0;
21529;-21,55;-37,94;-21,55;-37,94;4,55;4,31;4,55;4,31;0;0;
21553;4,09;-38,05;4,09;-38,05;6,58;3,89;6,58;3,89;0;0;
21576;-12,83;-35,76;-12,83;-35,76;8,52;3,54;8,52;3,54;0;0;
21595;-24,25;-43,28;-24,25;-43,28;10,46;3,57;10,46;3,57;0;0;
21615;-15,03;-34,02;-15,03;-34,02;16,88;3,87;16,88;3,87;0;0;
21633;1,76;-41,47;1,76;-41,47;20,87;4,06;20,87;4,06;0;0;
21664;-52,11;-36,85;-52,11;-36,85;26,33;4,35;26,33;4,35;0;0;
21687;6,57;-41,3;6,57;-41,3;31,03;4,48;31,03;4,48;0;0;
21708;-80;-35,97;-80;-35,97;37,44;4,48;37,44;4,48;0;0;
21727;-20,29;-44,78;-20,29;-44,78;39,72;4,42;39,72;4,42;0;0;
21748;-75,54;-33,24;-75,54;-33,24;43,07;3,86;43,07;3,86;0;0;
21774;-10,71;-40,54;-10,71;-40,54;45,23;4,08;45,23;4,08;0;0;
21793;-12,59;-28,83;-12,59;-28,83;47,65;3,93;47,65;3,93;0;0;
21818;11,82;-37,64;11,82;-37,64;43,1;4,25;43,1;4,25;0;0;
21837;34,53;-45,36;34,53;-45,36;43,76;4,66;43,76;4,66;0;0;
21857;-2,54;-43,83;-2,54;-43,83;40,5;4,81;40,5;4,81;0;0;
21874;-1,83;-33,08;-1,83;-33,08;36,5;4,32;36,5;4,32;0;0;
21892;28,85;-41,53;28,85;-41,53;35,05;5;35,05;5;0;0;
21912;-43,58;-42,12;-43,58;-42,12;31,04;4,8;31,04;4,8;0;0;
21930;-20,05;-36,8;-20,05;-36,8;25,81;4,64;25,81;4,64;0;0;
21948;-23,65;-39,86;-23,65;-39,86;21,22;4,67;21,22;4,67;0;0;
21977;-98,66;-45,42;-98,66;-45,42;22,53;4,47;22,53;4,47;0;0;
21998;-22,96;-35,23;-22,96;-35,23;17,01;4,45;17,01;4,45;0;0;
22018;-27,55;-42,07;-27,55;-42,07;12,19;4,18;12,19;4,18;0;0;
22036;-18,89;-36,45;-18,89;-36,45;12,63;3,69;12,63;3,69;0;0;
22059;-28,01;-41,01;-28,01;-41,01;12,68;3,83;12,68;3,83;0;0;
22079;-24,34;-40,26;-24,34;-40,26;10,57;3,7;10,57;3,7;0;0;
22096;-82,6;-41,08;-82,6;-41,08;11,67;3,54;11,67;3,54;0;0;
22116;-21,95;-37,61;-21,95;-37,61;16,14;3,45;16,14;3,45;0;0;
22142;-27,53;-33,74;-27,53;-33,74;15,95;3,62;15,95;3,62;0;0;
22160;-27,53;-33,74;-27,53;-33,74;14,78;3,49;14,78;3,49;0;0;
22178;-25,95;-39,01;-25,95;-39,01;14,05;3,21;14,05;3,21;0;0;
22200;-36,32;-42,49;-36,32;-42,49;7,82;3,05;7,82;3,05;0;0;
22218;-38,27;-36,63;-38,27;-36,63;7,75;3,14;7,75;3,14;0;0;
22235;8,9;-38,78;8,9;-38,78;8,94;3,15;8,94;3,15;0;0;
22254;-35,09;-35,71;-35,09;-35,71;13,3;3,09;13,3;3,09;0;0;
22271;-10,91;-34,17;-10,91;-34,17;18,6;3,48;18,6;3,48;0;0;
22298;-13,78;-33,72;-13,78;-33,72;23,77;3,74;23,77;3,74;0;0;
22320;-4,72;-34,47;-4,72;-34,47;23,6;4,2;23,6;4,2;0;0;
22338;-49,65;-43,82;-49,65;-43,82;24,72;4,17;24,72;4,17;0;0;
22358;77,25;-31,66;77,25;-31,66;30,22;4,86;30,22;4,86;0;0;
22379;-45,61;-47,97;-45,61;-47,97;29,5;5,16;29,5;5,16;0;0;
22397;-34,69;-30;-34,69;-30;27,12;5,06;27,12;5,06;0;0;
22414;-8,71;-39,48;-8,71;-39,48;26,65;4,85;26,65;4,85;0;0;
22434;-59,18;-44,24;-59,18;-44,24;29,33;4,72;29,33;4,72;0;0;
22463;-11,55;-43,59;-11,55;-43,59;27,47;4,83;27,47;4,83;0;0;
22480;-11,55;-43,59;-11,55;-43,59;21,86;4,01;21,86;4,01;0;0;
22499;-37,34;-47,67;-37,34;-47,67;17,74;4,27;17,74;4,27;0;0;
22519;-49,87;-34,73;-49,87;-34,73;18;4,16;18;4,16;0;0;
22536;-29,29;-29,07;-29,29;-29,07;15,24;4,54;15,24;4,54;0;0;
22556;-27,62;-39,49;-27,62;-39,49;11,68;4,51;11,68;4,51;0;0;
22574;-25,2;-35,27;-25,2;-35,27;10,21;4,13;10,21;4,13;0;0;
22594;-39,93;-42,95;-39,93;-42,95;11,69;3,78;11,69;3,78;0;0;
22620;-24,49;-42,72;-24,49;-42,72;9,32;3,27;9,32;3,27;0;0;
22640;-17,09;-37,71;-17,09;-37,71;7,3;3,79;7,3;3,79;0;0;
22658;-28,53;-17,32;-28,53;-17,32;7,16;4,65;7,16;4,65;0;0;
22677;-16,17;-23,65;-16,17;-23,65;6,8;5,67;6,8;5,67;0;0;
22696;-26,74;-24,28;-26,74;-24,28;6,08;7,16;6,08;7,16;0;0;
22716;-32,69;-38,39;-32,69;-38,39;4,01;8,62;4,01;8,62;0;0;
22734;-27,75;-47,28;-27,75;-47,28;4,92;11,32;4,92;11,32;0;0;
22754;-27,21;-57,67;-27,21;-57,67;4,94;11,7;4,94;11,7;0;0;
22787;-22,66;-44,86;-22,66;-44,86;5,54;11,72;5,54;11,72;0;0;
22803;-25,97;-72,21;-25,97;-72,21;5,96;12,04;5,96;12,04;0;0;
22820;-25,97;-72,21;-25,97;-72,21;6,17;12,29;6,17;12,29;0;0;
22839;-19,34;-17,98;-19,34;-17,98;6,12;11,06;6,12;11,06;0;0;
22862;-28,51;-37,11;-28,51;-37,11;5,61;10,7;5,61;10,7;0;0;
22895;-24,59;-38,93;-24,59;-38,93;5,05;10,3;5,05;10,3;0;0;
22917;-22,13;-45,53;-22,13;-45,53;4,89;11,18;4,89;11,18;0;0;
22943;-23,22;-40,87;-23,22;-40,87;4,55;11,26;4,55;11,26;0;0;
22960;-23,22;-40,87;-23,22;-40,87;4,05;10,47;4,05;10,47;0;0;
22978;-25,79;-39,12;-25,79;-39,12;4,33;11,04;4,33;11,04;0;0;
22998;-23,35;-9,18;-23,35;-9,18;4,35;11,62;4,35;11,62;0;1;
23017;-27,49;-30,69;-27,49;-30,69;4,74;14,05;4,74;14,05;0;1;
23045;-29,31;-51,14;-29,31;-51,14;4,41;14,63;4,41;14,63;0;1;
23076;-18,5;-43,43;-18,5;-43,43;5,48;16,15;5,48;16,15;0;1;
23104;-24,67;-42,16;-24,67;-42,16;5,47;16,18;5,47;16,18;0;1;
23134;-36,92;-21,95;-36,92;-21,95;5,75;16,81;5,75;16,81;0;1;
23161;-23,19;-36,51;-23,19;-36,51;5,22;15,15;5,22;15,15;0;1;
23190;-23,43;-27,08;-23,43;-27,08;5,23;15,62;5,23;15,62;0;1;
23219;-23,35;-55,52;-23,35;-55,52;5;15,08;5;15,08;0;1;
23254;-35,88;-34,66;-35,88;-34,66;4,54;13,55;4,54;13,55;0;1;
23282;-29,59;-44,45;-29,59;-44,45;4,32;14,51;4,32;14,51;0;1;
23311;-29,58;-32,95;-29,58;-32,95;4,54;13,31;4,54;13,31;0;1;
23341;-27,13;-41,57;-27,13;-41,57;5,06;12,46;5,06;12,46;0;0;
23368;-27,32;-30,73;-27,32;-30,73;4,98;9,53;4,98;9,53;0;0;
23395;-26,95;-65,54;-26,95;-65,54;4,73;11,34;4,73;11,34;0;0;
23425;-22,98;-38,12;-22,98;-38,12;4,53;10,71;4,53;10,71;0;0;
23461;-32,82;-36,62;-32,82;-36,62;4,56;9,75;4,56;9,75;0;0;
23491;-27,65;-35,99;-27,65;-35,99;3,93;9,44;3,93;9,44;0;0;
23510;-28,26;-32,76;-28,26;-32,76;3,48;9,25;3,48;9,25;0;0;
23528;-31,21;-41,24;-31,21;-41,24;3,62;8,99;3,62;8,99;0;0;
23547;-27,94;-42,76;-27,94;-42,76;3,59;6,4;3,59;6,4;0;0;
23564;-8,84;-37,64;-8,84;-37,64;3,59;6,46;3,59;6,46;0;0;
23586;-23,47;-34,01;-23,47;-34,01;3,53;6,16;3,53;6,16;0;0;
23613;-25,6;-29,75;-25,6;-29,75;3,63;6,05;3,63;6,05;0;0;
23632;-20,7;-51,02;-20,7;-51,02;3,81;6,19;3,81;6,19;0;0;
23651;-22,42;-44,03;-22,42;-44,03;3,86;6,11;3,86;6,11;0;0;
23671;-24,23;-38,72;-24,23;-38,72;3,87;5,52;3,87;5,52;0;0;
23696;-17,37;-42,5;-17,37;-42,5;3,81;5,98;3,81;5,98;0;0;
23717;-16,2;-41,39;-16,2;-41,39;4,39;6,58;4,39;6,58;1;0;
23736;-27,22;-37,79;-27,22;-37,79;4,39;7,68;4,39;7,68;1;0;
23762;-32,94;-43,99;-32,94;-43,99;4,25;6,9;4,25;6,9;1;0;
23789;-24,53;-33,36;-24,53;-33,36;4,45;6,99;4,45;6,99;1;0;
23811;-14,18;-36,52;-14,18;-36,52;4,89;6,82;4,89;6,82;1;0;
23830;-29,58;-40,37;-29,58;-40,37;4,52;6,13;4,52;6,13;1;0;
23860;-27,18;-37,55;-27,18;-37,55;3,87;4,55;3,87;4,55;1;0;
23891;-24,54;-41,06;-24,54;-41,06;3,94;4,19;3,94;4,19;1;0;
23919;-28,89;-33,81;-28,89;-33,81;3,37;5,9;3,37;5,9;1;0;
23936;-20,51;-34,97;-20,51;-34,97;3,06;6,23;3,06;6,23;1;0;
23955;-90,49;-29,43;-90,49;-29,43;12,41;6,49;12,41;6,49;1;0;
23976;66,34;-42,35;66,34;-42,35;22,08;6,47;22,08;6,47;1;0;
23996;-15,04;-30,68;-15,04;-30,68;32,34;5,65;32,34;5,65;1;0;
24016;11,54;-47,56;11,54;-47,56;37,76;4,41;37,76;4,41;1;0;
24035;-34,37;-45,95;-34,37;-45,95;37,3;4,63;37,3;4,63;1;0;
24054;-10,62;-49,19;-10,62;-49,19;26,74;5,8;26,74;5,8;0;0;
24081;-53,32;-35,56;-53,32;-35,56;28,12;7,52;28,12;7,52;0;0;
24103;-34,48;-33,54;-34,48;-33,54;25,41;7,86;25,41;7,86;0;0;
24123;33,83;-39,96;33,83;-39,96;26,21;7,37;26,21;7,37;0;0;
24148;-29,6;-37,9;-29,6;-37,9;30,01;6,23;30,01;6,23;0;0;
24171;-45,35;-40,01;-45,35;-40,01;33,18;5,05;33,18;5,05;0;0;
24190;-10,63;-59,31;-10,63;-59,31;27,14;4,26;27,14;4,26;0;0;
24210;-34,92;-35,18;-34,92;-35,18;26,59;4,81;26,59;4,81;0;0;
24244;-60,19;-28,08;-60,19;-28,08;27,96;5,18;27,96;5,18;0;0;
24267;2,78;-33,4;2,78;-33,4;25,56;5,26;25,56;5,26;0;0;
24287;-1,02;-35,89;-1,02;-35,89;24,45;5,88;24,45;5,88;0;0;
24305;-12,32;-34,67;-12,32;-34,67;25,52;5,93;25,52;5,93;0;0;
24323;-29,5;-42,56;-29,5;-42,56;24,79;4,9;24,79;4,9;0;0;
24343;-31,59;-33,78;-31,59;-33,78;24,66;4,38;24,66;4,38;0;0;
24363;-122,03;-46,54;-122,03;-46,54;27,08;4,46;27,08;4,46;0;0;
24390;-43,43;-33,21;-43,43;-33,21;26,18;4,77;26,18;4,77;0;0;
24409;4,46;-42,47;4,46;-42,47;21,33;4,65;21,33;4,65;0;0;
24426;-25,24;-38,68;-25,24;-38,68;20,04;4,87;20,04;4,87;0;0;
24445;-61,11;-42,27;-61,11;-42,27;23,1;4,8;23,1;4,8;0;0;
24468;-67,91;-36,25;-67,91;-36,25;25,5;5,19;25,5;5,19;0;0;
24484;80,74;-32,4;80,74;-32,4;27,86;4,58;27,86;4,58;0;0;
24504;-32,4;-47,36;-32,4;-47,36;34,76;4,83;34,76;4,83;0;0;
24524;-66,48;-37,68;-66,48;-37,68;37,61;4,85;37,61;4,85;0;0;
24551;12,09;-33,32;12,09;-33,32;35,95;4,95;35,95;4,95;0;0;
24569;31,74;-39,16;31,74;-39,16;37,08;4,68;37,08;4,68;0;0;
24587;-4,18;-45,86;-4,18;-45,86;34,89;4,45;34,89;4,45;0;0;
24606;14,22;-41,93;14,22;-41,93;32,07;4;32,07;4;0;0;
24626;-47,18;-39,65;-47,18;-39,65;35,91;4,23;35,91;4,23;0;0;
24644;29,06;-35,07;29,06;-35,07;37,38;4,07;37,38;4,07;0;0;
24664;-68,26;-39,9;-68,26;-39,9;46,21;4,48;46,21;4,48;0;0;
24682;-7,13;-40,07;-7,13;-40,07;44,53;4,91;44,53;4,91;0;0;
24707;33,24;-36,67;33,24;-36,67;42,51;5,24;42,51;5,24;0;0;
24727;76,34;-50,91;76,34;-50,91;46,9;5,56;46,9;5,56;0;0;
24747;-5,13;-40,22;-5,13;-40,22;43,21;5,24;43,21;5,24;0;0;
24764;65,46;-34,36;65,46;-34,36;41,8;5,53;41,8;5,53;0;0;
24786;17,4;-42,22;17,4;-42,22;34,89;4,67;34,89;4,67;0;0;
24803;-28,3;-38,28;-28,3;-38,28;37,8;4,52;37,8;4,52;0;0;
24822;48,53;-37,72;48,53;-37,72;39,53;4,09;39,53;4,09;0;0;
24839;48,53;-37,72;48,53;-37,72;36,02;3,62;36,02;3,62;0;0;
24866;-32,53;-48,95;-32,53;-48,95;36,55;3,59;36,55;3,59;0;0;
24884;-5,72;-36,04;-5,72;-36,04;38,01;3,23;38,01;3,23;1;0;
24902;-26,41;-47,19;-26,41;-47,19;32,53;3,3;32,53;3,3;1;0;
24919;-26,41;-47,19;-26,41;-47,19;28,46;3,26;28,46;3,26;1;0;
24937;-86,34;-29,04;-86,34;-29,04;29,75;3,46;29,75;3,46;1;0;
24955;-68,54;-42,58;-68,54;-42,58;32,12;3,49;32,12;3,49;1;0;
24974;-19,48;-43,6;-19,48;-43,6;32,87;3,14;32,87;3,14;1;0;
24994;-40,04;-39,23;-40,04;-39,23;33,93;3,71;33,93;3,71;1;0;
25024;-15,73;-42,28;-15,73;-42,28;34,77;3,55;34,77;3,55;1;0;
25042;-24,99;-42,47;-24,99;-42,47;26,6;3,26;26,6;3,26;1;0;
25061;-24,99;-42,47;-24,99;-42,47;18,7;3,42;18,7;3,42;1;0;
25080;12,54;-33,93;12,54;-33,93;15,21;3,61;15,21;3,61;1;0;
25097;93,64;-38,88;93,64;-38,88;22,75;3,8;22,75;3,8;1;0;
25116;-81,44;-27,17;-81,44;-27,17;26,69;3,93;26,69;3,93;1;0;
25133;-59,47;-36,44;-59,47;-36,44;30,71;4,3;30,71;4,3;1;0;
25152;3,21;-40,91;3,21;-40,91;35,35;4,12;35,35;4,12;1;0;
25179;-12,88;-42,26;-12,88;-42,26;38,72;3,94;38,72;3,94;1;0;
25196;-23,23;-29,23;-23,23;-29,23;35,06;4,32;35,06;4,32;1;0;
25219;-29,63;-46,98;-29,63;-46,98;22,87;5,31;22,87;5,31;1;0;
25252;-22,74;-38,13;-22,74;-38,13;14,29;4,89;14,29;4,89;0;0;
25269;-43;-38,43;-43;-38,43;10,89;4,54;10,89;4,54;0;0;
25290;-102,32;-42,12;-102,32;-42,12;18,1;5,06;18,1;5,06;0;0;
25312;-22,95;-37,78;-22,95;-37,78;18,73;5,28;18,73;5,28;0;0;
25348;-28,06;-31,87;-28,06;-31,87;18,68;4,03;18,68;4,03;0;0;
25373;-28;-40,09;-28;-40,09;19,17;3,64;19,17;3,64;0;0;
25394;-19,15;-39,52;-19,15;-39,52;19,44;3,72;19,44;3,72;0;0;
25413;-26,93;-37,68;-26,93;-37,68;11,31;3,59;11,31;3,59;0;0;
25431;-28,89;-37,55;-28,89;-37,55;4,05;3,19;4,05;3,19;0;0;
25450;-21,47;-37,77;-21,47;-37,77;4,14;3,17;4,14;3,17;0;0;
25471;-21,23;-38,41;-21,23;-38,41;4,79;2,97;4,79;2,97;0;0;
25498;-26,96;-39,96;-26,96;-39,96;5,37;2,52;5,37;2,52;0;0;
25517;-27,03;-60,31;-27,03;-60,31;5,99;3,12;5,99;3,12;0;0;
25536;-23,27;-32,55;-23,27;-32,55;5,83;3,79;5,83;3,79;0;0;
25555;-24,88;-21,61;-24,88;-21,61;5,83;4,97;5,83;4,97;0;0;
25575;-22,37;-31,98;-22,37;-31,98;5,06;5,78;5,06;5,78;0;0;
25594;-25,49;-25,84;-25,49;-25,84;4,33;7,61;4,33;7,61;0;0;
25613;-22,68;-66,31;-22,68;-66,31;3,57;8,92;3,57;8,92;0;0;
25632;-17;-25,83;-17;-25,83;4,26;10,6;4,26;10,6;0;0;
25661;-28,85;-38,7;-28,85;-38,7;4,29;9,74;4,29;9,74;0;0;
25679;-23,05;-38,71;-23,05;-38,71;4,68;9,14;4,68;9,14;0;0;
25704;-23,52;-34,11;-23,52;-34,11;4,89;7,94;4,89;7,94;0;0;
25725;-21,06;-24,14;-21,06;-24,14;4,58;5,26;4,58;5,26;0;0;
25748;-20,94;-34,86;-20,94;-34,86;4,1;4,49;4,1;4,49;0;0;
25765;-18,86;-35,37;-18,86;-35,37;4,01;4,37;4,01;4,37;0;0;
25784;-26,48;-36,98;-26,48;-36,98;3,41;4,41;3,41;4,41;0;0;
25814;-28,25;-40,59;-28,25;-40,59;3,14;4,58;3,14;4,58;0;0;
25832;-25,08;-37,26;-25,08;-37,26;2,98;4,6;2,98;4,6;0;0;
25850;-27,05;-24,56;-27,05;-24,56;3,12;4,79;3,12;4,79;0;0;
25870;-29,68;-41,58;-29,68;-41,58;3,39;4,37;3,39;4,37;0;0;
25887;-30,38;-39,6;-30,38;-39,6;3,57;4,37;3,57;4,37;0;0;
25907;-22,66;-38,77;-22,66;-38,77;3,61;3,82;3,61;3,82;0;0;
25926;-20,6;-28,11;-20,6;-28,11;4;3,72;4;3,72;0;0;
25944;-24,01;-40,09;-24,01;-40,09;4,03;4,21;4,03;4,21;0;0;
25968;-31,03;-31,25;-31,03;-31,25;3,9;4,82;3,9;4,82;0;0;
25986;-26,72;-44,12;-26,72;-44,12;3,85;5;3,85;5;0;0;
26005;-21,81;-38,54;-21,81;-38,54;3,83;5,99;3,83;5,99;0;0;
26024;-24,72;-33,55;-24,72;-33,55;3,74;6,46;3,74;6,46;0;0;
26041;-23,91;-33,88;-23,91;-33,88;3,45;6;3,45;6;0;0;
26060;-23,91;-33,88;-23,91;-33,88;3,21;5,27;3,21;5,27;0;0;
26081;-25,11;-37,33;-25,11;-37,33;3,11;4,89;3,11;4,89;0;0;
26097;-30,9;-39,99;-30,9;-39,99;2,96;4,34;2,96;4,34;0;0;
26125;-25,83;-38,19;-25,83;-38,19;3,3;4,42;3,3;4,42;0;0;
26143;-25,08;-42,84;-25,08;-42,84;3,52;4,21;3,52;4,21;0;0;
26160;-25,08;-42,84;-25,08;-42,84;3,59;4,13;3,59;4,13;0;0;
26177;-22,23;-30,77;-22,23;-30,77;3,44;3,98;3,44;3,98;0;0;
26197;-24,9;-34,79;-24,9;-34,79;3,29;4,22;3,29;4,22;0;0;
26216;-22,21;-38,65;-22,21;-38,65;2,95;3,88;2,95;3,88;0;0;
26234;-31,78;-37,45;-31,78;-37,45;2,87;3,99;2,87;3,99;0;0;
26254;-21,9;-38,56;-21,9;-38,56;2,77;4,76;2,77;4,76;0;0;
26280;-25,49;-40,9;-25,49;-40,9;2,81;4,43;2,81;4,43;0;0;
26297;-20,73;-43,85;-20,73;-43,85;2,99;4,19;2,99;4,19;0;0;
26315;-26,01;-36,47;-26,01;-36,47;2,6;4,01;2,6;4,01;0;0;
26333;-29,72;-35,56;-29,72;-35,56;2,48;4,16;2,48;4,16;0;0;
26354;-26,07;-36,86;-26,07;-36,86;2,27;3,05;2,27;3,05;0;0;
26384;-25,83;-46,07;-25,83;-46,07;2,39;3,54;2,39;3,54;0;0;
26403;-15,85;-35,05;-15,85;-35,05;2,6;3,79;2,6;3,79;0;0;
26435;-22,34;-38,65;-22,34;-38,65;2,89;3,99;2,89;3,99;0;0;
26458;-21,83;-36,94;-21,83;-36,94;3,06;4,17;3,06;4,17;0;0;
26477;-19,14;-51,87;-19,14;-51,87;3,85;3,99;3,85;3,99;0;0;
26494;-26,22;-38,27;-26,22;-38,27;3,8;4,23;3,8;4,23;0;0;
26513;-25,47;-38,11;-25,47;-38,11;3,87;3,41;3,87;3,41;0;0;
26531;-24,83;-40,01;-24,83;-40,01;3,53;3,5;3,53;3,5;0;0;
26551;-21,68;-35,45;-21,68;-35,45;3,54;3,74;3,54;3,74;0;0;
26569;-21,02;-46,34;-21,02;-46,34;3,47;4,02;3,47;4,02;0;0;
26596;-25,82;-36,33;-25,82;-36,33;2,96;4;2,96;4;0;0;
26615;-23,27;-40,05;-23,27;-40,05;3,3;4,26;3,3;4,26;0;0;
26633;-19,65;-32,35;-19,65;-32,35;3,8;4,22;3,8;4,22;0;0;
26652;-34,31;-40,63;-34,31;-40,63;4,1;3,79;4,1;3,79;0;0;
26672;-34,88;-38,47;-34,88;-38,47;4,38;3,97;4,38;3,97;0;0;
26690;-19,84;-33,96;-19,84;-33,96;4,39;3,68;4,39;3,68;0;0;
26710;-20,24;-42,61;-20,24;-42,61;4,47;3,61;4,47;3,61;0;0;
26731;-30,27;-40,16;-30,27;-40,16;4,17;3,43;4,17;3,43;0;0;
26756;-28,15;-38,37;-28,15;-38,37;3,65;3,64;3,65;3,64;0;0;
26775;-27,66;-42,37;-27,66;-42,37;3,59;3,48;3,59;3,48;0;0;
26795;-25,26;-40,7;-25,26;-40,7;3,3;3,15;3,3;3,15;0;0;
26831;-27,27;-44,83;-27,27;-44,83;2,9;3,2;2,9;3,2;1;0;
26852;-18,77;-43,71;-18,77;-43,71;2,69;3,35;2,69;3,35;1;0;
26874;-26,32;-37,24;-26,32;-37,24;2,94;3,19;2,94;3,19;1;0;
26894;-23,82;-40,09;-23,82;-40,09;6,71;3,44;6,71;3,44;1;0;
26922;-35,59;-38,37;-35,59;-38,37;9,99;3,67;9,99;3,67;1;0;
26945;36,25;-33,42;36,25;-33,42;18,42;4,56;18,42;4,56;1;0;
26965;-8,55;-46,06;-8,55;-46,06;21,3;4,59;21,3;4,59;1;0;
26984;-45,21;-40,97;-45,21;-40,97;27,95;4,72;27,95;4,72;1;0;
27005;-25,89;-42,75;-25,89;-42,75;35,09;5,48;35,09;5,48;1;0;
27025;2,54;-31,98;2,54;-31,98;36,05;5,35;36,05;5,35;1;0;
27047;5,01;-40,83;5,01;-40,83;39,83;5,49;39,83;5,49;1;0;
27078;-59,4;-39,81;-59,4;-39,81;38,61;4,9;38,61;4,9;1;0;
27095;-13,12;-38,84;-13,12;-38,84;37,58;4,59;37,58;4,59;1;0;
27114;-10,69;-36,26;-10,69;-36,26;36,39;3,86;36,39;3,86;1;0;
27131;-42,49;-38,94;-42,49;-38,94;34,95;3,91;34,95;3,91;1;0;
27150;44,35;-47,88;44,35;-47,88;34,54;4,44;34,54;4,44;1;0;
27168;-34,24;-40,62;-34,24;-40,62;36,34;4,79;36,34;4,79;0;0;
27187;-51,4;-38,15;-51,4;-38,15;34,75;4,66;34,75;4,66;0;0;
27207;-88,36;-42,77;-88,36;-42,77;35,96;4,96;35,96;4,96;0;0;
27235;-119,11;-36,51;-119,11;-36,51;36,79;5,17;36,79;5,17;0;0;
27256;-1,32;-35,19;-1,32;-35,19;38,76;5,12;38,76;5,12;0;0;
27279;57,25;-44,51;57,25;-44,51;39,33;4,06;39,33;4,06;0;0;
27306;-26,52;-31,77;-26,52;-31,77;39,95;4,39;39,95;4,39;0;0;
27327;-123,76;-47,52;-123,76;-47,52;46,75;4,91;46,75;4,91;0;0;
27346;-24,19;-48,05;-24,19;-48,05;49,51;4,69;49,51;4,69;0;0;
27364;1,34;-33,6;1,34;-33,6;47,55;5,1;47,55;5,1;0;0;
27399;4,48;-29,32;4,48;-29,32;46,39;5,28;46,39;5,28;0;0;
27420;-16,8;-40,76;-16,8;-40,76;46,73;5,61;46,73;5,61;0;0;
27439;-46,41;-47,03;-46,41;-47,03;46,99;5,24;46,99;5,24;0;0;
27460;-24;-41,77;-24;-41,77;38,13;5,06;38,13;5,06;0;0;
27479;-1,99;-41,08;-1,99;-41,08;33,16;4,65;33,16;4,65;0;0;
27497;-21,01;-45,34;-21,01;-45,34;30,43;4,55;30,43;4,55;1;0;
27516;-7,29;-36,91;-7,29;-36,91;23,54;3,72;23,54;3,72;1;0;
27545;-25,59;-43,72;-25,59;-43,72;18,51;3,4;18,51;3,4;1;0;
27562;-25,44;-36,68;-25,44;-36,68;12,67;3,39;12,67;3,39;1;0;
27583;-21,82;-37,96;-21,82;-37,96;9,43;3,38;9,43;3,38;1;0;
27602;-34,4;-39,11;-34,4;-39,11;7,91;3,27;7,91;3,27;1;0;
27622;-29,63;-41,1;-29,63;-41,1;6,29;3,05;6,29;3,05;1;0;
27639;-29,63;-41,1;-29,63;-41,1;5,62;3,17;5,62;3,17;1;0;
27657;-25,24;-32,56;-25,24;-32,56;5,51;3,49;5,51;3,49;1;0;
27674;-26,77;-44,83;-26,77;-44,83;6,28;3,96;6,28;3,96;1;0;
27702;-16,3;-31,62;-16,3;-31,62;5,24;4,42;5,24;4,42;1;0;
27719;-29,89;-26;-29,89;-26;3,95;4,93;3,95;4,93;1;0;
27738;-19,17;-33,98;-19,17;-33,98;4,38;5,57;4,38;5,57;1;0;
27757;-16,8;-41,5;-16,8;-41,5;4,39;5,35;4,39;5,35;1;0;
27775;-33,57;-41,84;-33,57;-41,84;5,81;4,41;5,81;4,41;1;0;
27795;-63,35;-30,16;-63,35;-30,16;10,47;4,65;10,47;4,65;1;0;
27813;-63,35;-30,16;-63,35;-30,16;14,67;4,59;14,67;4,59;1;0;
27832;-13,73;-45,59;-13,73;-45,59;24,36;4,28;24,36;4,28;1;0;
27860;-36,54;-31,86;-36,54;-31,86;31,54;4,79;31,54;4,79;0;0;
27879;-31,74;-43,13;-31,74;-43,13;34,27;5,25;34,27;5,25;0;0;
27898;-79,16;-51,47;-79,16;-51,47;40,89;5,63;40,89;5,63;0;0;
27917;26,7;-21,94;26,7;-21,94;42,55;6,61;42,55;6,61;0;0;
27943;-61,55;-42,44;-61,55;-42,44;38,89;6,25;38,89;6,25;0;0;
27966;-81,63;-30,69;-81,63;-30,69;36,51;5,76;36,51;5,76;0;0;
27985;14,19;-34,49;14,19;-34,49;41,3;6,47;41,3;6,47;0;0;
28017;1,24;-27,54;1,24;-27,54;40,32;7,08;40,32;7,08;0;0;
28042;9,43;-28,14;9,43;-28,14;38,28;7,05;38,28;7,05;0;0;
28060;9,43;-28,14;9,43;-28,14;41,21;7,54;41,21;7,54;0;0;
28078;20,74;-38,91;20,74;-38,91;45,73;7,81;45,73;7,81;0;0;
28098;-75,13;-51,39;-75,13;-51,39;44,08;7,51;44,08;7,51;0;0;
28118;34,42;-46,23;34,42;-46,23;43,17;7,03;43,17;7,03;0;0;
28139;-28,17;-37,1;-28,17;-37,1;43,16;5,7;43,16;5,7;0;0;
28167;-4,96;-39,83;-4,96;-39,83;40,34;4,88;40,34;4,88;0;0;
28186;-31,8;-34;-31,8;-34;34,09;4,79;34,09;4,79;0;0;
28204;7,4;-37,34;7,4;-37,34;32,2;4,64;32,2;4,64;0;0;
28226;-79,47;-28,1;-79,47;-28,1;27,81;4,76;27,81;4,76;0;0;
28249;-15,32;-43,67;-15,32;-43,67;26,76;4,67;26,76;4,67;0;0;
28269;-15,79;-39,53;-15,79;-39,53;28,01;4,36;28,01;4,36;0;0;
28286;1,78;-45,52;1,78;-45,52;25,88;4,07;25,88;4,07;0;0;
28303;-21,56;-38,56;-21,56;-38,56;24,82;4,04;24,82;4,04;0;0;
28330;-16,61;-34,45;-16,61;-34,45;22,33;4,13;22,33;4,13;0;0;
28351;-16,61;-34,45;-16,61;-34,45;16,76;4,22;16,76;4,22;0;0;
28369;-19,84;-36,92;-19,84;-36,92;11,13;4,13;11,13;4,13;0;0;
28389;-24,33;-38,61;-24,33;-38,61;8,33;4,09;8,33;4,09;0;0;
28410;-18,29;-38,92;-18,29;-38,92;6,93;3,87;6,93;3,87;0;0;
28429;-24,84;-40,42;-24,84;-40,42;6,29;3,19;6,29;3,19;0;0;
28449;-30,73;-40,07;-30,73;-40,07;6,14;2,89;6,14;2,89;0;0;
28469;-14,45;-40,32;-14,45;-40,32;6,17;2,9;6,17;2,9;0;0;
28495;-28,12;-31;-28,12;-31;6,76;3,55;6,76;3,55;0;0;
28514;-25,01;-35;-25,01;-35;5,16;3,88;5,16;3,88;0;0;
28532;-27,92;-33,24;-27,92;-33,24;3,84;4,32;3,84;4,32;0;0;
28551;-23,38;-42,49;-23,38;-42,49;3,87;4,67;3,87;4,67;0;0;
28569;-21,42;-35,5;-21,42;-35,5;3,54;4,87;3,54;4,87;0;0;
28588;-22,43;-49,74;-22,43;-49,74;3,78;4,57;3,78;4,57;0;0;
28606;-29,99;-31,23;-29,99;-31,23;2,99;4,59;2,99;4,59;0;0;
28627;-25,26;-33,87;-25,26;-33,87;3,04;4,41;3,04;4,41;0;0;
28655;-21,9;-47,82;-21,9;-47,82;2,97;3,98;2,97;3,98;0;0;
28673;-30,44;-34,48;-30,44;-34,48;2,85;3,9;2,85;3,9;0;0;
28691;-28,79;-44,55;-28,79;-44,55;3;3,62;3;3,62;0;0;
28710;-25,9;-36,4;-25,9;-36,4;2,91;3,75;2,91;3,75;0;0;
28728;-22,41;-43,05;-22,41;-43,05;2,95;3,49;2,95;3,49;1;0;
28747;-32,4;-40,8;-32,4;-40,8;3;3,58;3;3,58;1;0;
28766;-23,15;-54,16;-23,15;-54,16;3,33;3,84;3,33;3,84;1;0;
28784;-25,39;-32,31;-25,39;-32,31;3,42;4,13;3,42;4,13;1;0;
28810;13,01;-34,07;13,01;-34,07;5,6;3,61;5,6;3,61;1;0;
28828;-46,85;-39,29;-46,85;-39,29;10,26;3,9;10,26;3,9;1;0;
28846;-33,47;-42,53;-33,47;-42,53;15,32;4,48;15,32;4,48;1;0;
28863;28,71;-33,6;28,71;-33,6;19,64;4,73;19,64;4,73;1;0;
28883;-120,7;-32,34;-120,7;-32,34;24,28;3,87;24,28;3,87;1;0;
28903;8,08;-45,32;8,08;-45,32;28,73;4,76;28,73;4,76;1;0;
28922;-117,19;-53,85;-117,19;-53,85;33,8;5,15;33,8;5,15;1;0;
28942;-26,77;-41,42;-26,77;-41,42;33,55;5,48;33,55;5,48;1;0;
28967;19,02;-36,17;19,02;-36,17;32,18;6,04;32,18;6,04;1;0;
28987;-72,05;-42,92;-72,05;-42,92;36;5,98;36;5,98;1;0;
29004;33,43;-42,57;33,43;-42,57;35,4;6;35,4;6;1;0;
29020;33,43;-42,57;33,43;-42,57;32,66;5,19;32,66;5,19;1;0;
29040;-71,37;-53,93;-71,37;-53,93;31,89;4,43;31,89;4,43;1;0;
29058;23,12;-47,45;23,12;-47,45;36,58;5,35;36,58;5,35;1;0;
29079;-6,05;-35,94;-6,05;-35,94;35,87;5,04;35,87;5,04;1;0;
29099;-49,77;-47,25;-49,77;-47,25;34,44;5,15;34,44;5,15;0;0;
29129;12,37;-43,43;12,37;-43,43;33,75;5,19;33,75;5,19;0;0;
29149;28,1;-31,39;28,1;-31,39;31,27;5,37;31,27;5,37;0;0;
29175;-97,16;-49,54;-97,16;-49,54;32,77;4,88;32,77;4,88;0;0;
29197;-18,26;-42,32;-18,26;-42,32;32,56;4,73;32,56;4,73;0;0;
29217;-20,19;-55,28;-20,19;-55,28;34,57;4,88;34,57;4,88;0;0;
29237;-33,92;-46,05;-33,92;-46,05;31,6;5,73;31,6;5,73;0;0;
29259;-45,43;-40,61;-45,43;-40,61;29,4;5,57;29,4;5,57;0;0;
29290;-49,17;-44,99;-49,17;-44,99;22,23;5,62;22,23;5,62;0;0;
29316;-8,67;-38,23;-8,67;-38,23;24,33;5,44;24,33;5,44;0;0;
29336;27,69;-36,09;27,69;-36,09;23,73;4,4;23,73;4,4;0;0;
29357;-12,4;-43,53;-12,4;-43,53;30,99;4,56;30,99;4,56;0;0;
29375;-35,43;-36,81;-35,43;-36,81;29,7;3,88;29,7;3,88;0;0;
29394;-96,89;-34,28;-96,89;-34,28;30,7;4,04;30,7;4,04;0;0;
29414;11,12;-43,79;11,12;-43,79;30,71;5;30,71;5;0;0;
29442;-18,24;-40,83;-18,24;-40,83;27,26;4,69;27,26;4,69;0;0;
29464;-42,22;-38,25;-42,22;-38,25;19,24;4,52;19,24;4,52;0;0;
29482;-19,45;-43,73;-19,45;-43,73;15,28;4,17;15,28;4,17;0;0;
29500;-19,45;-43,73;-19,45;-43,73;7,75;2,9;7,75;2,9;0;0;
29518;-31,09;-40,52;-31,09;-40,52;6,83;2,73;6,83;2,73;0;0;
29540;-30,55;-40,38;-30,55;-40,38;6,4;2,85;6,4;2,85;0;0;
29557;-32,84;-38,08;-32,84;-38,08;6,19;2,98;6,19;2,98;0;0;
29577;-23,68;-38,02;-23,68;-38,02;5,16;2,83;5,16;2,83;0;0;
29605;-16,51;-38,93;-16,51;-38,93;5,81;3,14;5,81;3,14;0;0;
29623;-21,08;-27,82;-21,08;-27,82;7,3;3,78;7,3;3,78;0;0;
29642;-22,17;-53,32;-22,17;-53,32;5,74;4,55;5,74;4,55;0;0;
29660;-22,17;-53,32;-22,17;-53,32;5,5;4,93;5,5;4,93;0;0;
29680;-21,5;-46,17;-21,5;-46,17;5,21;5,45;5,21;5,45;0;0;
29700;-28,15;-50,11;-28,15;-50,11;4,76;6,33;4,76;6,33;0;0;
29721;-22,48;-48,41;-22,48;-48,41;3,59;7,1;3,59;7,1;0;0;
29740;-19,13;-35,74;-19,13;-35,74;3,51;8;3,51;8;0;0;
29768;-24,05;-36,23;-24,05;-36,23;3,71;7,69;3,71;7,69;0;0;
29787;-34,61;-38,31;-34,61;-38,31;3,89;6,88;3,89;6,88;0;0;
29804;-22,66;-43,23;-22,66;-43,23;3,75;6,13;3,75;6,13;0;0;
29823;-24,01;-33,34;-24,01;-33,34;3,87;5,5;3,87;5,5;0;0;
29843;-27,43;-41,17;-27,43;-41,17;3,33;5,53;3,33;5,53;0;0;
29862;-29,62;-40,2;-29,62;-40,2;3,12;4,09;3,12;4,09;0;0;
29884;-31,07;-29,88;-31,07;-29,88;3,26;4,65;3,26;4,65;0;0;
29901;-31,07;-29,88;-31,07;-29,88;2,92;5,33;2,92;5,33;0;0;
29930;-23,41;-35,81;-23,41;-35,81;3,14;5,47;3,14;5,47;0;0;
29947;-30,38;-43,11;-30,38;-43,11;3,1;5,46;3,1;5,46;0;0;
29965;-26,47;-37,83;-26,47;-37,83;3,16;5,72;3,16;5,72;0;0;
29986;-33,49;-34,4;-33,49;-34,4;3,21;5,39;3,21;5,39;0;0;
30004;-19,94;-44,17;-19,94;-44,17;3,5;5,07;3,5;5,07;0;0;
30025;-20,92;-47,23;-20,92;-47,23;3,86;5,05;3,86;5,05;0;0;
30045;-32,23;-51,6;-32,23;-51,6;3,86;5,92;3,86;5,92;0;0;
30066;-27,33;-34,85;-27,33;-34,85;3,93;5,65;3,93;5,65;0;0;
30093;-19,39;-31,01;-19,39;-31,01;4,14;6,71;4,14;6,71;0;0;
30120;-23,17;-47,85;-23,17;-47,85;4,04;7,6;4,04;7,6;0;0;
30140;-30,64;-28,98;-30,64;-28,98;3,9;6,98;3,9;6,98;0;0;
30160;-20,12;-37,39;-20,12;-37,39;4,14;6,75;4,14;6,75;0;0;
30190;-28,9;-44,13;-28,9;-44,13;4;6,11;4;6,11;0;0;
30212;-27,58;-42,48;-27,58;-42,48;4,19;6,28;4,19;6,28;0;0;
30239;-30,1;-48,2;-30,1;-48,2;4,14;5,52;4,14;5,52;0;0;
30268;-29,26;-38,62;-29,26;-38,62;4,13;5,01;4,13;5,01;0;0;
30290;-24,74;-32,5;-24,74;-32,5;3,83;5,01;3,83;5,01;0;0;
30318;-29,41;-27,77;-29,41;-27,77;3,54;5,3;3,54;5,3;0;0;
30345;-27,3;-41,21;-27,3;-41,21;3,51;5,14;3,51;5,14;0;0;
30375;-20,34;-38,54;-20,34;-38,54;3,26;4,77;3,26;4,77;0;0;
30394;-22,31;-37,75;-22,31;-37,75;3,04;4,98;3,04;4,98;0;0;
30419;-36,35;-37,17;-36,35;-37,17;3,57;5,55;3,57;5,55;0;0;
30439;-28,32;-41,91;-28,32;-41,91;4,08;5,11;4,08;5,11;0;0;
30459;-23,19;-48,15;-23,19;-48,15;4,03;4,46;4,03;4,46;0;0;
30476;-24,67;-33,84;-24,67;-33,84;4,33;4,88;4,33;4,88;0;0;
30495;-17,88;-37,66;-17,88;-37,66;4,31;4,89;4,31;4,89;0;0;
30513;-16,77;-26,59;-16,77;-26,59;4,53;4,77;4,53;4,77;0;0;
30531;-25,84;-40,53;-25,84;-40,53;3,8;4,6;3,8;4,6;0;0;
30550;-33,18;-44,05;-33,18;-44,05;4,13;4,67;4,13;4,67;0;0;
30577;-19,23;-35,23;-19,23;-35,23;3,97;4,37;3,97;4,37;0;0;
30597;-24,73;-42,01;-24,73;-42,01;3,93;4,04;3,93;4,04;0;0;
30617;-17,34;-36,54;-17,34;-36,54;3,92;3,51;3,92;3,51;0;1;
30644;-23,36;-38,29;-23,36;-38,29;3,6;3,36;3,6;3,36;0;1;
30663;-18,05;-53,84;-18,05;-53,84;3,92;3,87;3,92;3,87;0;1;
30680;-18,05;-53,84;-18,05;-53,84;3,75;4,56;3,75;4,56;0;1;
30698;-20,35;-53,67;-20,35;-53,67;3,73;6,69;3,73;6,69;0;1;
30717;-13,41;-26,62;-13,41;-26,62;4,24;7,76;4,24;7,76;0;1;
30746;-15,94;-37,84;-15,94;-37,84;4,66;8,76;4,66;8,76;0;1;
30763;-22;-15,72;-22;-15,72;4,87;9,99;4,87;9,99;0;1;
30788;-14,7;-36,26;-14,7;-36,26;5,44;10,92;5,44;10,92;0;1;
30806;-24,57;-36,85;-24,57;-36,85;5,59;11,45;5,59;11,45;0;1;
30827;-25,89;-49,08;-25,89;-49,08;5,89;10,66;5,89;10,66;0;1;
30848;-25,16;-45,08;-25,16;-45,08;5,6;10,55;5,6;10,55;0;1;
30866;-34,73;-26,87;-34,73;-26,87;5,14;9,75;5,14;9,75;0;1;
30885;-26,6;-66,36;-26,6;-66,36;5,14;9,72;5,14;9,72;0;1;
30914;-14,68;-34,21;-14,68;-34,21;5,08;8,87;5,08;8,87;0;1;
30932;-19,72;-26,86;-19,72;-26,86;5,1;8,78;5,1;8,78;0;1;
30949;-28,4;-42,16;-28,4;-42,16;4,89;7,86;4,89;7,86;0;0;
30966;-10,24;-35,85;-10,24;-35,85;5,03;8,72;5,03;8,72;0;0;
30987;-22,54;-37,92;-22,54;-37,92;5,11;8,93;5,11;8,93;0;0;
31008;-22,68;-31,8;-22,68;-31,8;4,98;8,62;4,98;8,62;0;0;
31038;-23,4;-26,27;-23,4;-26,27;4,99;9,3;4,99;9,3;0;0;
31078;-32,85;-57,14;-32,85;-57,14;4,69;8,4;4,69;8,4;0;0;
31100;-22,63;-33,82;-22,63;-33,82;4,45;8,35;4,45;8,35;0;0;
31120;-31,99;-38,06;-31,99;-38,06;4,63;9,2;4,63;9,2;0;0;
31139;-20,08;-41,57;-20,08;-41,57;4,86;8,37;4,86;8,37;0;0;
31162;-23,02;-11,99;-23,02;-11,99;5,23;10,27;5,23;10,27;0;0;
31192;-16,34;-36,2;-16,34;-36,2;5,06;10,39;5,06;10,39;0;0;
31219;-30,76;-41,34;-30,76;-41,34;4,94;9,88;4,94;9,88;0;0;
31250;-20,94;-37,31;-20,94;-37,31;4,88;9,8;4,88;9,8;0;0;
31276;-22,07;-45,57;-22,07;-45,57;4,56;9,85;4,56;9,85;0;0;
31294;-33,04;-26,65;-33,04;-26,65;4,42;8,82;4,42;8,82;0;0;
31314;-20,79;-42,5;-20,79;-42,5;3,91;7,08;3,91;7,08;0;0;
31340;-17,44;-44,14;-17,44;-44,14;3,73;7,24;3,73;7,24;0;0;
31360;-20,29;-44,4;-20,29;-44,4;3,97;7,02;3,97;7,02;0;0;
31387;-24,46;-39,76;-24,46;-39,76;4,2;6,46;4,2;6,46;0;0;
31407;-35,06;-30,15;-35,06;-30,15;4,42;5,96;4,42;5,96;0;0;
31423;-19,71;-30,69;-19,71;-30,69;4,54;6,08;4,54;6,08;0;0;
31444;-22,51;-43,09;-22,51;-43,09;4,53;5,8;4,53;5,8;0;0;
31476;-19,94;-30,41;-19,94;-30,41;4,46;5,01;4,46;5,01;0;0;
31504;-26,43;-40,43;-26,43;-40,43;3,74;4,85;3,74;4,85;0;0;
31531;-25,58;-39,34;-25,58;-39,34;3,68;4,56;3,68;4,56;0;0;
31558;-22,9;-36,71;-22,9;-36,71;3,51;4,37;3,51;4,37;0;0;
31578;-25,6;-41,92;-25,6;-41,92;2,8;3,79;2,8;3,79;0;0;
31605;-27,16;-35,64;-27,16;-35,64;2,85;4,26;2,85;4,26;0;0;
31625;-35,05;-35,41;-35,05;-35,41;3,52;4,26;3,52;4,26;0;0;
31655;-29,14;-37,39;-29,14;-37,39;3,48;4,6;3,48;4,6;0;0;
31683;-23,32;-40,49;-23,32;-40,49;3,47;4,56;3,47;4,56;0;0;
31712;-31,03;-34,2;-31,03;-34,2;3,14;4,48;3,14;4,48;0;0;
31730;-19,41;-48,02;-19,41;-48,02;3,4;4,26;3,4;4,26;0;0;
31750;-28,04;-40,09;-28,04;-40,09;3,33;3,84;3,33;3,84;0;0;
31768;-19,7;-38,52;-19,7;-38,52;2,56;3,58;2,56;3,58;0;0;
31787;-24,43;-34,18;-24,43;-34,18;2,44;3,48;2,44;3,48;0;0;
31805;-20,25;-43,26;-20,25;-43,26;2,53;3,58;2,53;3,58;0;0;
31823;-25,86;-43,61;-25,86;-43,61;2,56;3,71;2,56;3,71;0;0;
31842;-27,56;-43,04;-27,56;-43,04;2,17;3,26;2,17;3,26;0;0;
31870;-23,52;-38,71;-23,52;-38,71;2,09;4,1;2,09;4,1;0;0;
31889;-23,9;-43,86;-23,9;-43,86;2,25;4,42;2,25;4,42;0;0;
31910;-18,16;-39,16;-18,16;-39,16;2,4;4,52;2,4;4,52;0;0;
31929;-25,3;-39,9;-25,3;-39,9;2,4;4,38;2,4;4,38;0;0;
31946;-28,66;-38,89;-28,66;-38,89;2,5;4,3;2,5;4,3;0;0;
31969;-20,85;-38,28;-20,85;-38,28;2,75;3,82;2,75;3,82;0;0;
31988;-31,22;-33,8;-31,22;-33,8;3,14;3,97;3,14;3,97;0;0;
32008;-19,45;-44,1;-19,45;-44,1;3,27;4,14;3,27;4,14;0;0;
32035;-26,65;-42,78;-26,65;-42,78;3,04;4,17;3,04;4,17;0;0;
32054;-22,25;-34,86;-22,25;-34,86;3,15;4,04;3,15;4,04;0;0;
32074;-23,39;-39,19;-23,39;-39,19;2,77;3,82;2,77;3,82;0;0;
32093;-27,9;-47,5;-27,9;-47,5;2,6;3,84;2,6;3,84;0;0;
32114;-22,79;-36,63;-22,79;-36,63;2,44;3,67;2,44;3,67;0;0;
32132;-41,84;-37,91;-41,84;-37,91;3,49;3,43;3,49;3,43;0;0;
32150;14,28;-28,74;14,28;-28,74;6,65;3,51;6,65;3,51;0;0;
32168;-11,85;-41,55;-11,85;-41,55;10,17;3,52;10,17;3,52;0;0;
32196;-24,32;-37,95;-24,32;-37,95;10,27;3,51;10,27;3,51;0;0;
32214;-25,46;-38,96;-25,46;-38,96;10,14;3,06;10,14;3,06;0;0;
32232;-27,52;-47,41;-27,52;-47,41;10,31;3,36;10,31;3,36;0;0;
32249;-19,67;-42,05;-19,67;-42,05;9,59;3,8;9,59;3,8;0;0;
32268;-26,78;-30,79;-26,78;-30,79;5,59;3,63;5,59;3,63;0;0;
32287;-49,3;-41,36;-49,3;-41,36;8,96;3,99;8,96;3,99;0;0;
32305;-21,53;-36,45;-21,53;-36,45;9,67;4,14;9,67;4,14;0;0;
32326;-25,3;-41,06;-25,3;-41,06;10,01;4,06;10,01;4,06;0;0;
32353;-27,03;-44,77;-27,03;-44,77;9,88;4,18;9,88;4,18;0;0;
32370;-10,13;-36,85;-10,13;-36,85;10,28;3,95;10,28;3,95;0;0;
32390;-31,83;-43,06;-31,83;-43,06;7,15;3,59;7,15;3,59;0;0;
32409;-25,45;-42,53;-25,45;-42,53;5,4;3,22;5,4;3,22;0;0;
32428;-18,7;-42,68;-18,7;-42,68;4,79;3,23;4,79;3,23;0;0;
32447;-28,04;-40,67;-28,04;-40,67;4,44;2,94;4,44;2,94;0;0;
32467;-75,63;-36,69;-75,63;-36,69;6,13;2,89;6,13;2,89;0;0;
32485;-75,63;-36,69;-75,63;-36,69;7,36;3,37;7,36;3,37;1;0;
32513;-38,96;-36,47;-38,96;-36,47;10,38;3,52;10,38;3,52;1;0;
32533;-17,9;-52,84;-17,9;-52,84;12,92;3,77;12,92;3,77;1;0;
32552;-34,58;-37,84;-34,58;-37,84;17,51;4,51;17,51;4,51;1;0;
32570;-26,47;-47,5;-26,47;-47,5;24,96;4,5;24,96;4,5;1;0;
32588;-177,07;-28,78;-177,07;-28,78;36,48;4,51;36,48;4,51;1;0;
32607;-88,47;-26,89;-88,47;-26,89;37,33;4,76;37,33;4,76;1;0;
32626;-73,6;-34,56;-73,6;-34,56;38,19;5,83;38,19;5,83;1;0;
32645;-75,38;-17,32;-75,38;-17,32;41,84;6,7;41,84;6,7;1;0;
32675;61,31;-34,02;61,31;-34,02;42,86;6,68;42,86;6,68;0;0;
32699;-75,1;-47,32;-75,1;-47,32;34,39;6,72;34,39;6,72;0;0;
32721;-16,53;-31,05;-16,53;-31,05;30,52;6,71;30,52;6,71;0;0;
32741;20,49;-46,65;20,49;-46,65;35,57;6,19;35,57;6,19;0;0;
32759;-5,51;-33,55;-5,51;-33,55;32,26;5,71;32,26;5,71;0;0;
32777;-55,15;-42,09;-55,15;-42,09;31,68;4,66;31,68;4,66;0;0;
32797;-41,46;-32,23;-41,46;-32,23;32,66;4,99;32,66;4,99;0;0;
32828;-83,44;-42,61;-83,44;-42,61;33,46;4,82;33,46;4,82;0;0;
32852;-12,26;-34,9;-12,26;-34,9;33,44;4,96;33,44;4,96;0;0;
32870;111,23;-36,82;111,23;-36,82;34,47;4,38;34,47;4,38;0;0;
32889;-7,23;-36,22;-7,23;-36,22;39,41;4,68;39,41;4,68;0;0;
32909;-11,45;-42,28;-11,45;-42,28;42,48;4,81;42,48;4,81;0;0;
32927;-119,96;-63,88;-119,96;-63,88;44,36;5,62;44,36;5,62;0;0;
32944;-14,3;-36,93;-14,3;-36,93;44,71;5,51;44,71;5,51;0;0;
32963;-34,79;-35,7;-34,79;-35,7;46,83;5,34;46,83;5,34;0;0;
32991;33,32;-35,2;33,32;-35,2;48,73;5,09;48,73;5,09;0;0;
33008;109,69;-46,12;109,69;-46,12;53,93;5,01;53,93;5,01;0;0;
33027;-44,7;-41,51;-44,7;-41,51;57,29;4,91;57,29;4,91;0;0;
33044;-55,1;-33,78;-55,1;-33,78;54,42;3,34;54,42;3,34;0;0;
33062;-63,43;-32,12;-63,43;-32,12;55,66;3,76;55,66;3,76;0;0;
33082;-139,02;-33,76;-139,02;-33,76;53,73;3,92;53,73;3,92;0;0;
33098;-139,02;-33,76;-139,02;-33,76;51,76;3,78;51,76;3,78;0;0;
33118;-18,3;-43,23;-18,3;-43,23;37,13;3,67;37,13;3,67;0;0;
33146;-7,38;-36,58;-7,38;-36,58;35,43;3,78;35,43;3,78;0;0;
33163;-81,68;-38,03;-81,68;-38,03;35,25;3,91;35,25;3,91;0;0;
33200;-11,11;-32,77;-11,11;-32,77;34,71;4,01;34,71;4,01;0;0;
33218;53,03;-33,18;53,03;-33,18;32,51;3,92;32,51;3,92;0;0;
33238;-7,75;-32,97;-7,75;-32,97;32,41;3,87;32,41;3,87;0;0;
33260;-37,45;-37,6;-37,45;-37,6;33,61;3,87;33,61;3,87;0;0;
33277;-47,88;-37,58;-47,88;-37,58;33,68;3,73;33,68;3,73;0;0;
33304;-20,42;-35,04;-20,42;-35,04;28,79;3,8;28,79;3,8;0;0;
33322;-14,92;-45,08;-14,92;-45,08;24,91;3,34;24,91;3,34;0;0;
33339;-14,92;-45,08;-14,92;-45,08;19,91;3,06;19,91;3,06;0;0;
33357;-19,08;-43,71;-19,08;-43,71;15,54;2,82;15,54;2,82;0;0;
33377;-53,81;-42,47;-53,81;-42,47;13,36;3,2;13,36;3,2;0;0;
33396;-43,35;-39,48;-43,35;-39,48;16,32;3,05;16,32;3,05;0;0;
33416;1,01;-38,13;1,01;-38,13;18,19;2,83;18,19;2,83;0;0;
33435;-26,24;-35,52;-26,24;-35,52;17,79;2,94;17,79;2,94;0;0;
33462;-16,07;-44,33;-16,07;-44,33;18,29;3,04;18,29;3,04;0;0;
33480;-16,07;-44,33;-16,07;-44,33;17,07;3,16;17,07;3,16;0;0;
33500;-22,25;-39,79;-22,25;-39,79;12,88;2,84;12,88;2,84;0;0;
33520;-29,3;-34,82;-29,3;-34,82;8,26;3,14;8,26;3,14;0;0;
33537;-24,32;-42,85;-24,32;-42,85;5,64;3,46;5,64;3,46;0;0;
33556;-31,77;-34,71;-31,77;-34,71;5,69;3,98;5,69;3,98;0;0;
33573;-26,8;-44,64;-26,8;-44,64;5,31;4;5,31;4;0;0;
33593;-26,53;-42,48;-26,53;-42,48;4,32;3,89;4,32;3,89;0;0;
33620;-27,72;-46,98;-27,72;-46,98;3,79;4,35;3,79;4,35;0;0;
33637;-19,29;-44,93;-19,29;-44,93;3,78;4,44;3,78;4,44;0;0;
33658;-19,44;-33,32;-19,44;-33,32;3,82;4,17;3,82;4,17;0;0;
33675;-25,45;-28,76;-25,45;-28,76;2,61;4,64;2,61;4,64;0;0;
33693;-28,23;-40,05;-28,23;-40,05;2,49;5,2;2,49;5,2;0;0;
33713;-24,03;-40,31;-24,03;-40,31;3,03;5,38;3,03;5,38;0;0;
33731;-25,7;-43,95;-25,7;-43,95;3,54;5,1;3,54;5,1;0;0;
33750;-25,47;-31,14;-25,47;-31,14;3,48;5,23;3,48;5,23;0;0;
33781;-29,19;-44,82;-29,19;-44,82;3,69;4,85;3,69;4,85;0;0;
33799;-24,88;-40,66;-24,88;-40,66;3,72;5,15;3,72;5,15;0;0;
33817;-27,41;-33,94;-27,41;-33,94;3,5;4,98;3,5;4,98;0;0;
33837;-19,3;-44,55;-19,3;-44,55;2,53;5,26;2,53;5,26;0;0;
33857;-21,97;-39,04;-21,97;-39,04;2,78;5,39;2,78;5,39;0;0;
33875;-23,54;-50,1;-23,54;-50,1;2,84;5,2;2,84;5,2;0;0;
33892;-24,74;-41,61;-24,74;-41,61;2,85;4,76;2,85;4,76;0;0;
33911;-29,11;-41,84;-29,11;-41,84;2,99;4,57;2,99;4,57;0;0;
33938;-30,67;-34,14;-30,67;-34,14;3,25;4,46;3,25;4,46;0;0;
33955;-28,1;-37,32;-28,1;-37,32;3,44;4,46;3,44;4,46;0;0;
33977;-26,02;-38,7;-26,02;-38,7;3,3;4,5;3,3;4,5;0;0;
33996;-27,13;-34,21;-27,13;-34,21;2,83;4,51;2,83;4,51;0;0;
34014;-16,4;-40,84;-16,4;-40,84;3,09;4,34;3,09;4,34;0;0;
34033;-24,04;-34,32;-24,04;-34,32;3,05;4,4;3,05;4,4;0;0;
34053;-21,9;-45,21;-21,9;-45,21;2,84;4,13;2,84;4,13;0;0;
34085;-23,59;-46,26;-23,59;-46,26;2,72;4;2,72;4;0;0;
34114;-28,28;-35,61;-28,28;-35,61;3,12;3,79;3,12;3,79;0;0;
34140;-21,84;-42,13;-21,84;-42,13;3,11;3,72;3,11;3,72;0;0;
34167;-22,85;-42,48;-22,85;-42,48;3,19;3,83;3,19;3,83;0;0;
34186;-27,44;-44,97;-27,44;-44,97;2,97;3,58;2,97;3,58;0;0;
34205;-20,59;-43,79;-20,59;-43,79;3,02;3,95;3,02;3,95;0;0;
34220;-20,59;-43,79;-20,59;-43,79;2,98;3,6;2,98;3,6;0;0;
34242;-24,37;-31,57;-24,37;-31,57;2,67;3,83;2,67;3,83;0;0;
34269;-25,12;-39,11;-25,12;-39,11;2,49;4,01;2,49;4,01;0;0;
34297;-25,42;-40,67;-25,42;-40,67;2,51;3,96;2,51;3,96;0;0;
34317;-22,63;-42,09;-22,63;-42,09;2,58;3,86;2,58;3,86;0;0;
34335;-28,77;-37,26;-28,77;-37,26;2,33;3,43;2,33;3,43;0;0;
34354;-24,66;-36,23;-24,66;-36,23;2,33;2,8;2,33;2,8;0;0;
34383;-22,16;-33,48;-22,16;-33,48;2,22;2,43;2,22;2,43;0;0;
34401;-22,78;-36,06;-22,78;-36,06;2,11;3,11;2,11;3,11;0;1;
34427;-23,49;-41,94;-23,49;-41,94;2,09;3,56;2,09;3,56;0;1;
34447;-20,76;-40,47;-20,76;-40,47;2,4;3,79;2,4;3,79;0;1;
34465;-25,43;-34,19;-25,43;-34,19;2,28;5,4;2,28;5,4;0;1;
34489;-26,21;-29,94;-26,21;-29,94;2,58;6,46;2,58;6,46;0;1;
34510;-25,52;-45,8;-25,52;-45,8;2,81;8,17;2,81;8,17;0;1;
34526;-19,63;-29,51;-19,63;-29,51;2,92;8,24;2,92;8,24;0;1;
34546;-25,19;-44,88;-25,19;-44,88;3,24;8,51;3,24;8,51;0;1;
34566;-27,22;-21,52;-27,22;-21,52;3,46;8,68;3,46;8,68;0;1;
34598;-20,52;-28,17;-20,52;-28,17;3,75;8,58;3,75;8,58;0;1;
34617;-28,79;-26,11;-28,79;-26,11;4,16;8,42;4,16;8,42;0;1;
34636;-12,75;-32,32;-12,75;-32,32;4,64;8,69;4,64;8,69;0;1;
34656;-16,59;-40,96;-16,59;-40,96;4,74;9,1;4,74;9,1;0;1;
34675;-27,51;-55,29;-27,51;-55,29;4,69;9,66;4,69;9,66;0;1;
34692;-21,89;-44,21;-21,89;-44,21;5,21;9,25;5,21;9,25;0;1;
34715;-27,41;-50,38;-27,41;-50,38;5,06;10,34;5,06;10,34;0;1;
34732;-31,26;-30,49;-31,26;-30,49;5,35;10,77;5,35;10,77;0;1;
34760;-21,03;-28,76;-21,03;-28,76;5,25;10,42;5,25;10,42;0;1;
34778;-24,64;-18,28;-24,64;-18,28;4,9;10,78;4,9;10,78;0;0;
34796;-23,96;-36,72;-23,96;-36,72;5,52;11,19;5,52;11,19;0;0;
34814;-20,24;-31,18;-20,24;-31,18;5,16;10,42;5,16;10,42;0;0;
34835;-27,32;-53,61;-27,32;-53,61;5,07;10,46;5,07;10,46;0;0;
34867;-25,53;-12,62;-25,53;-12,62;4,89;10,56;4,89;10,56;0;0;
34893;-38,01;-41,84;-38,01;-41,84;5,3;10,24;5,3;10,24;0;0;
34928;-24,01;-32,4;-24,01;-32,4;5,38;10,56;5,38;10,56;0;0;
34961;-24,66;-19,91;-24,66;-19,91;5,19;10,15;5,19;10,15;0;0;
34980;-21,33;-44,7;-21,33;-44,7;5,17;10,1;5,17;10,1;0;0;
34998;-28,68;-36,23;-28,68;-36,23;4,74;8,51;4,74;8,51;0;0;
35020;-25,73;-27,8;-25,73;-27,8;4,61;8,1;4,61;8,1;0;0;
35038;-28,53;-55,24;-28,53;-55,24;3,9;7,85;3,9;7,85;0;0;
35058;-22,68;-46,34;-22,68;-46,34;3,41;7,97;3,41;7,97;0;0;
35086;-20,13;-47,73;-20,13;-47,73;3,76;7,85;3,76;7,85;0;0;
35105;-26,47;-36,07;-26,47;-36,07;4,04;7,88;4,04;7,88;0;0;
35125;-26,71;-32,08;-26,71;-32,08;3,69;8,47;3,69;8,47;1;0;
35144;-25,34;-38,86;-25,34;-38,86;4;8,43;4;8,43;1;0;
35161;-25,34;-38,86;-25,34;-38,86;4,12;7,13;4,12;7,13;1;0;
35179;-25,64;-36,75;-25,64;-36,75;4,38;6,95;4,38;6,95;1;0;
35197;-31,82;-35,33;-31,82;-35,33;3,95;5,71;3,95;5,71;1;0;
35216;-24,81;-45,79;-24,81;-45,79;4,51;5,14;4,51;5,14;1;0;
35245;-23,89;-42,65;-23,89;-42,65;4,51;4,85;4,51;4,85;1;0;
35263;-25,31;-32,83;-25,31;-32,83;4,51;4,55;4,51;4,55;1;0;
35281;-32,31;-29,55;-32,31;-29,55;4,11;4,07;4,11;4,07;1;0;
35298;-32,31;-29,55;-32,31;-29,55;3,53;4,11;3,53;4,11;1;0;
35316;-26,32;-40,85;-26,32;-40,85;2,84;4,6;2,84;4,6;1;0;
35334;-20,71;-41,38;-20,71;-41,38;2,63;4,59;2,63;4,59;1;0;
35352;-31,85;-38,66;-31,85;-38,66;2,58;4,55;2,58;4,55;1;0;
35369;-23,92;-36,17;-23,92;-36,17;2,62;4,27;2,62;4,27;1;0;
35397;-27,65;-37,63;-27,65;-37,63;2,64;4,02;2,64;4,02;1;0;
35416;-23,94;-33,04;-23,94;-33,04;2,64;3,67;2,64;3,67;1;0;
35436;-15,33;-26,05;-15,33;-26,05;2,75;5,02;2,75;5,02;1;0;
35454;-17,03;-34,04;-17,03;-34,04;3,26;7,51;3,26;7,51;1;0;
35473;-21,67;-44,26;-21,67;-44,26;3,67;8,17;3,67;8,17;1;0;
35489;-27,64;-42,86;-27,64;-42,86;3,97;8,56;3,97;8,56;0;0;
35508;-31,6;-38,87;-31,6;-38,87;4,14;9,7;4,14;9,7;0;0;
35527;-15,16;-56,14;-15,16;-56,14;4,65;9,92;4,65;9,92;0;0;
35554;-24,98;-32,73;-24,98;-32,73;4,26;6,86;4,26;6,86;0;0;
35575;-28,56;-32,56;-28,56;-32,56;3,51;5,65;3,51;5,65;0;0;
35599;-25,76;-34,25;-25,76;-34,25;3,11;5,8;3,11;5,8;0;0;
35623;-22,2;-39,52;-22,2;-39,52;3,12;5,52;3,12;5,52;0;0;
35642;-19,62;-48,11;-19,62;-48,11;2,95;5,17;2,95;5,17;0;0;
35660;-19,62;-48,11;-19,62;-48,11;2,98;5,31;2,98;5,31;0;0;
35678;-13,12;-51,26;-13,12;-51,26;3,36;6,07;3,36;6,07;0;0;
35711;-25,58;-40,76;-25,58;-40,76;3,43;6,23;3,43;6,23;0;0;
35735;-22,37;-40,75;-22,37;-40,75;3,95;6,69;3,95;6,69;0;0;
35758;-31,22;-42,53;-31,22;-42,53;4,24;5,98;4,24;5,98;0;0;
35774;-25,67;-41,99;-25,67;-41,99;4;5,55;4;5,55;0;0;
35795;-27,19;-41,63;-27,19;-41,63;3,62;4,68;3,62;4,68;0;0;
35815;-39,8;-38,65;-39,8;-38,65;3,74;3,96;3,74;3,96;0;0;
35833;-24,45;-39,51;-24,45;-39,51;3,9;3,49;3,9;3,49;0;0;
35863;-30,2;-48,58;-30,2;-48,58;4,97;3,97;4,97;3,97;0;0;
35879;-30,2;-48,58;-30,2;-48,58;6,38;4,58;6,38;4,58;0;0;
35896;-20,99;-33,1;-20,99;-33,1;6,5;4,59;6,5;4,59;0;0;
35916;-27,42;-37,21;-27,42;-37,21;6,42;4,62;6,42;4,62;0;0;
35933;-15,65;-19,66;-15,65;-19,66;6,24;5,45;6,24;5,45;0;0;
35952;-26,96;-44,02;-26,96;-44,02;5,57;6,21;5,57;6,21;0;0;
35969;-28,55;-30,17;-28,55;-30,17;3,91;5,41;3,91;5,41;0;0;
35987;-24,51;-34,29;-24,51;-34,29;2,72;5,81;2,72;5,81;0;0;
36013;-19,95;-37,02;-19,95;-37,02;2,85;6,04;2,85;6,04;0;0;
36031;-21,99;-35,16;-21,99;-35,16;2,95;6,54;2,95;6,54;0;0;
36050;-26,04;-36,23;-26,04;-36,23;2,61;5,19;2,61;5,19;0;0;
36070;-26,66;-40,91;-26,66;-40,91;2,72;5,78;2,72;5,78;0;0;
36088;-28,02;-39,97;-28,02;-39,97;2,76;5,18;2,76;5,18;0;0;
36105;-25,64;-38,62;-25,64;-38,62;2,94;4,52;2,94;4,52;0;0;
36124;-25,01;-43,92;-25,01;-43,92;2,77;3,88;2,77;3,88;0;0;
36143;-27,36;-38,66;-27,36;-38,66;2,57;3,44;2,57;3,44;0;0;
36170;-28,42;-32,08;-28,42;-32,08;2,65;4,07;2,65;4,07;0;0;
36189;-25,12;-31,46;-25,12;-31,46;2,89;3,81;2,89;3,81;0;0;
36206;-18,77;-35,46;-18,77;-35,46;2,98;4,28;2,98;4,28;0;0;
36222;-22,29;-39,83;-22,29;-39,83;3,2;4,27;3,2;4,27;0;0;
36240;-22,29;-39,83;-22,29;-39,83;3,78;4,22;3,78;4,22;0;0;
36257;-22,89;-35,77;-22,89;-35,77;3,82;3,82;3,82;3,82;0;0;
36278;-23,65;-39,98;-23,65;-39,98;3,9;3,18;3,9;3,18;0;0;
36298;-28,57;-37,11;-28,57;-37,11;4,07;3,29;4,07;3,29;0;0;
36324;-24,03;-34,33;-24,03;-34,33;3,81;4,11;3,81;4,11;0;1;
36345;-27,63;-39,67;-27,63;-39,67;3,34;4,14;3,34;4,14;0;1;
36362;-28,57;-37,12;-28,57;-37,12;3,23;4,72;3,23;4,72;0;1;
36379;-28,57;-37,12;-28,57;-37,12;3,4;5,18;3,4;5,18;0;1;
36399;-32,23;-30,57;-32,23;-30,57;3,18;6,03;3,18;6,03;0;1;
36416;-20,92;-27,99;-20,92;-27,99;2,95;6,79;2,95;6,79;0;1;
36434;-6,91;-45,33;-6,91;-45,33;3,38;7,44;3,38;7,44;0;1;
36452;-17,85;-44,93;-17,85;-44,93;4,31;8,47;4,31;8,47;0;1;
36479;-24,77;-52,64;-24,77;-52,64;4,29;9,3;4,29;9,3;0;1;
36495;-22,45;-47,62;-22,45;-47,62;4,48;9,73;4,48;9,73;0;1;
36514;-21,35;-34,11;-21,35;-34,11;4,67;10,05;4,67;10,05;0;1;
36532;-28,14;-60,03;-28,14;-60,03;5,16;10,66;5,16;10,66;0;1;
36549;-21,13;-36,47;-21,13;-36,47;4,35;10,74;4,35;10,74;0;1;
36567;-5,79;-37,03;-5,79;-37,03;4,21;11,09;4,21;11,09;0;1;
36588;-24,17;-15,37;-24,17;-15,37;4,77;11,06;4,77;11,06;0;1;
36607;-26,95;-44,43;-26,95;-44,43;4,84;11,22;4,84;11,22;0;1;
36634;-33,23;-45,55;-33,23;-45,55;4,59;10,61;4,59;10,61;0;1;
36654;-27,88;-52,5;-27,88;-52,5;4,79;9,7;4,79;9,7;0;1;
36673;-30,22;-40,41;-30,22;-40,41;5,1;9,18;5,1;9,18;0;0;
36691;-19,19;-36,17;-19,19;-36,17;4,89;9,88;4,89;9,88;0;0;
36710;-28,65;-32,17;-28,65;-32,17;4,61;8,91;4,61;8,91;0;0;
36729;-22,09;-37,41;-22,09;-37,41;5,38;9,07;5,38;9,07;0;0;
36753;-21,3;-53,54;-21,3;-53,54;5,05;8,31;5,05;8,31;0;0;
36776;-24,3;-38,48;-24,3;-38,48;4,86;7,07;4,86;7,07;0;0;
36810;-25,47;-28,01;-25,47;-28,01;4,25;7,67;4,25;7,67;0;0;
36833;-34,4;-73,81;-34,4;-73,81;4,75;8,17;4,75;8,17;0;0;
36850;-34,4;-73,81;-34,4;-73,81;5,11;9,17;5,11;9,17;0;0;
36872;-28,69;-27,58;-28,69;-27,58;4,61;9,39;4,61;9,39;0;0;
36887;-38,33;-40,86;-38,33;-40,86;5;9,62;5;9,62;0;0;
36906;-17,39;-48,18;-17,39;-48,18;5,54;9,85;5,54;9,85;0;0;
36925;-20,64;-31,66;-20,64;-31,66;5,38;8,97;5,38;8,97;0;0;
36944;-32,51;-35,75;-32,51;-35,75;4,76;7,58;4,76;7,58;0;0;
36969;-26,39;-37,78;-26,39;-37,78;4,25;5,78;4,25;5,78;0;0;
36986;-22,19;-46,95;-22,19;-46,95;3,95;4,81;3,95;4,81;0;0;
37010;-24,93;-40,55;-24,93;-40,55;3,77;4,49;3,77;4,49;0;0;
37032;-25,05;-46,02;-25,05;-46,02;4,14;4,21;4,14;4,21;0;0;
37049;-25,6;-30,7;-25,6;-30,7;3,8;4,76;3,8;4,76;0;0;
37069;-34,47;-49,37;-34,47;-49,37;4,09;5,06;4,09;5,06;0;0;
37087;-16,85;-43,27;-16,85;-43,27;4,37;5,21;4,37;5,21;0;0;
37105;-25,88;-36,75;-25,88;-36,75;4,08;5,13;4,08;5,13;0;0;
37135;-28,58;-37;-28,58;-37;4,04;4,74;4,04;4,74;0;0;
37151;-16,41;-34,13;-16,41;-34,13;4,06;4,02;4,06;4,02;0;0;
37168;-22,15;-26,33;-22,15;-26,33;3,89;4,13;3,89;4,13;0;0;
37188;-25,11;-42,21;-25,11;-42,21;3,66;3,82;3,66;3,82;0;0;
37206;-20,61;-43,06;-20,61;-43,06;3,39;3,91;3,39;3,91;0;0;
37224;-31,45;-36,35;-31,45;-36,35;3,29;4,67;3,29;4,67;0;0;
37240;-31,45;-36,35;-31,45;-36,35;3,1;5,27;3,1;5,27;0;0;
37260;-30,15;-42,23;-30,15;-42,23;3,06;5,16;3,06;5,16;0;0;
37287;-28,88;-41,28;-28,88;-41,28;2,91;4,57;2,91;4,57;0;0;
37304;-24,63;-44,06;-24,63;-44,06;3,4;4,84;3,4;4,84;0;0;
37322;-25,83;-42,4;-25,83;-42,4;3,32;4,76;3,32;4,76;0;0;
37343;-22,66;-37,9;-22,66;-37,9;3,12;4,05;3,12;4,05;0;0;
37363;-28,78;-38,27;-28,78;-38,27;2,82;3,47;2,82;3,47;0;0;
37382;-16,11;-27,66;-16,11;-27,66;3,25;3,47;3,25;3,47;0;0;
37400;-16,11;-27,66;-16,11;-27,66;3,73;3,45;3,73;3,45;0;0;
37417;-33,61;-46,74;-33,61;-46,74;3,97;3,92;3,97;3,92;0;0;
37446;-6,64;-34,74;-6,64;-34,74;6,85;3,97;6,85;3,97;0;0;
37465;-11,14;-39,86;-11,14;-39,86;10,03;3,85;10,03;3,85;0;0;
37485;-28,87;-40,48;-28,87;-40,48;10,61;3,61;10,61;3,61;0;0;
37502;-30,43;-35,38;-30,43;-35,38;11,49;3,59;11,49;3,59;0;0;
37520;-30,43;-35,38;-30,43;-35,38;12,42;3,12;12,42;3,12;0;0;
37538;-25;-48,65;-25;-48,65;12,62;3,5;12,62;3,5;0;0;
37558;-22,97;-42,94;-22,97;-42,94;14,08;4,27;14,08;4,27;0;0;
37577;0,36;-38;0,36;-38;13,69;4,3;13,69;4,3;0;0;
37605;-18,39;-39,63;-18,39;-39,63;15,64;4,23;15,64;4,23;0;0;
37626;-7,46;-53,12;-7,46;-53,12;22,77;4,85;22,77;4,85;0;0;
37646;-7,46;-53,12;-7,46;-53,12;27,32;4,82;27,32;4,82;0;0;
37666;-58,3;-38,27;-58,3;-38,27;29,81;4,9;29,81;4,9;0;0;
37683;-28,23;-42,23;-28,23;-42,23;26,2;4,58;26,2;4,58;0;0;
37701;-28,23;-42,23;-28,23;-42,23;24,87;4,11;24,87;4,11;0;0;
37719;19,68;-43,53;19,68;-43,53;20,08;4,24;20,08;4,24;0;0;
37738;-62,27;-45,95;-62,27;-45,95;23,55;4,02;23,55;4,02;0;0;
37767;-27,24;-39,67;-27,24;-39,67;19,83;3,91;19,83;3,91;0;0;
37786;-40,4;-40,57;-40,4;-40,57;19,57;4,1;19,57;4,1;0;0;
37806;-46,02;-44,25;-46,02;-44,25;19,59;4,12;19,59;4,12;0;0;
37824;-24,41;-35,18;-24,41;-35,18;19,43;3,8;19,43;3,8;0;0;
37842;-22,43;-41,22;-22,43;-41,22;15,94;3,56;15,94;3,56;0;0;
37862;-7,09;-25,85;-7,09;-25,85;13,99;3,55;13,99;3,55;0;0;
37880;-7,09;-25,85;-7,09;-25,85;14,92;3,74;14,92;3,74;0;0;
37897;-33,71;-42,97;-33,71;-42,97;18,32;3,86;18,32;3,86;0;0;
37921;28,93;-44,44;28,93;-44,44;19,34;3,92;19,34;3,92;0;0;
37941;-33,07;-42,47;-33,07;-42,47;20,83;3,98;20,83;3,98;0;0;
37958;-21,28;-37,57;-21,28;-37,57;20,58;4,23;20,58;4,23;0;0;
37977;-24,52;-39,94;-24,52;-39,94;17,75;3,95;17,75;3,95;0;0;
37995;-26,47;-43,99;-26,47;-43,99;12,48;3,54;12,48;3,54;0;0;
38011;-23,78;-38,16;-23,78;-38,16;7,63;3,54;7,63;3,54;0;0;
38029;-26,11;-43,45;-26,11;-43,45;4,16;3,6;4,16;3,6;0;0;
38050;-26,11;-43,45;-26,11;-43,45;3,06;3,15;3,06;3,15;0;0;
38077;-31,1;-34,75;-31,1;-34,75;3,21;3,34;3,21;3,34;0;0;
38095;-21,99;-43,83;-21,99;-43,83;4,1;3,04;4,1;3,04;0;0;
38112;-32,36;-37,77;-32,36;-37,77;4,72;3,06;4,72;3,06;0;0;
38129;-30,75;-37,49;-30,75;-37,49;4,54;2,94;4,54;2,94;1;0;
38148;-25,54;-44,89;-25,54;-44,89;4,69;3,14;4,69;3,14;1;0;
38166;-19,73;-30,28;-19,73;-30,28;5,41;2,94;5,41;2,94;1;0;
38186;-24,45;-38,47;-24,45;-38,47;4,58;2,94;4,58;2,94;1;0;
38204;-28,56;-37,62;-28,56;-37,62;4,12;3,03;4,12;3,03;1;0;
38232;-31,27;-45,14;-31,27;-45,14;3,41;3,25;3,41;3,25;1;0;
38256;-21,3;-38,2;-21,3;-38,2;3,36;3,94;3,36;3,94;1;0;
38276;-73,38;-48,91;-73,38;-48,91;4,29;3,89;4,29;3,89;1;0;
38292;-37,29;-35,62;-37,29;-35,62;10,22;4,24;10,22;4,24;1;0;
38310;-4;-44,93;-4;-44,93;13,34;4,43;13,34;4,43;1;0;
38328;5,22;-35,44;5,22;-35,44;19,37;4,41;19,37;4,41;1;0;
38349;2,01;-37,21;2,01;-37,21;25,76;4,56;25,76;4,56;1;0;
38367;26,67;-29,54;26,67;-29,54;32,64;4,2;32,64;4,2;1;0;
38394;-50,82;-33,75;-50,82;-33,75;31,84;4,79;31,84;4,79;1;0;
38411;7,31;-33,01;7,31;-33,01;32,86;5,22;32,86;5,22;1;0;
38429;-107,63;-42,09;-107,63;-42,09;36,21;5,44;36,21;5,44;1;0;
38448;-70,1;-36,41;-70,1;-36,41;35,19;5,36;35,19;5,36;1;0;
38466;-5;-42,77;-5;-42,77;34,07;5,33;34,07;5,33;1;0;
38484;6,63;-42,12;6,63;-42,12;33,99;4,83;33,99;4,83;0;0;
38503;-52,79;-40,75;-52,79;-40,75;34,66;4,28;34,66;4,28;0;0;
38523;-23,7;-48,74;-23,7;-48,74;35,2;4,27;35,2;4,27;0;0;
38552;-94,15;-52,8;-94,15;-52,8;36,48;4,93;36,48;4,93;0;0;
38573;8,5;-45,1;8,5;-45,1;39,98;4,91;39,98;4,91;0;0;
38597;-100,8;-51,12;-100,8;-51,12;37,43;5,39;37,43;5,39;0;0;
38615;43,88;-34,41;43,88;-34,41;39,88;5,55;39,88;5,55;0;0;
38633;-80,36;-44,51;-80,36;-44,51;42,37;5,1;42,37;5,1;0;0;
38653;34,81;-35,01;34,81;-35,01;41,81;5,02;41,81;5,02;0;0;
38672;-14,74;-39,64;-14,74;-39,64;35,17;4,2;35,17;4,2;0;0;
38689;-41,36;-38,01;-41,36;-38,01;33,34;3,92;33,34;3,92;0;0;
38724;-27,12;-37,58;-27,12;-37,58;33,9;3,53;33,9;3,53;0;0;
38745;-9,39;-45,58;-9,39;-45,58;31,43;3,34;31,43;3,34;0;0;
38762;-30,29;-37,68;-30,29;-37,68;27,88;3,17;27,88;3,17;0;0;
38782;-22,03;-35,44;-22,03;-35,44;21,78;3,05;21,78;3,05;0;0;
38799;-22,03;-35,44;-22,03;-35,44;18,39;3,15;18,39;3,15;0;0;
38820;-14,6;-41,31;-14,6;-41,31;15,49;2,64;15,49;2,64;0;0;
38838;-19,35;-35,14;-19,35;-35,14;9,53;3,04;9,53;3,04;0;0;
38859;-29,64;-36,68;-29,64;-36,68;6,38;3,01;6,38;3,01;0;0;
38887;-26,2;-36,92;-26,2;-36,92;7,6;3,32;7,6;3,32;0;0;
38905;-27,73;-41,65;-27,73;-41,65;7,76;3,38;7,76;3,38;1;0;
38923;-39,39;-30,85;-39,39;-30,85;8,67;3,5;8,67;3,5;1;0;
38942;-20,55;-44,54;-20,55;-44,54;8,57;3,93;8,57;3,93;1;0;
38960;-20,55;-44,54;-20,55;-44,54;8,4;4,22;8,4;4,22;1;0;
38979;-25,93;-39,61;-25,93;-39,61;9,37;4,41;9,37;4,41;1;0;
39000;-57,43;-46,31;-57,43;-46,31;21,31;4,84;21,31;4,84;1;0;
39019;-29,44;-45,24;-29,44;-45,24;30,91;5,25;30,91;5,25;1;0;
39049;18,76;-42,82;18,76;-42,82;44,57;5,12;44,57;5,12;1;0;
39070;-33,59;-43,1;-33,59;-43,1;46,3;5,42;46,3;5,42;0;0;
39093;1,2;-26,62;1,2;-26,62;52,63;6,45;52,63;6,45;0;0;
39115;-58,19;-49,93;-58,19;-49,93;50,88;6,37;50,88;6,37;0;0;
39134;-111,62;-45,59;-111,62;-45,59;41,22;5,45;41,22;5,45;0;0;
39154;-93,44;-49,16;-93,44;-49,16;41,32;5,49;41,32;5,49;0;0;
39172;7,21;-32,66;7,21;-32,66;38,21;4,96;38,21;4,96;0;0;
39205;-1,19;-45,23;-1,19;-45,23;36,2;4,69;36,2;4,69;0;0;
39226;39,09;-45,04;39,09;-45,04;35,47;4,33;35,47;4,33;0;0;
39245;-46,18;-34,76;-46,18;-34,76;35,91;4,6;35,91;4,6;0;0;
39265;-13,82;-34,2;-13,82;-34,2;28,39;4,93;28,39;4,93;0;0;
39283;-25,13;-45,23;-25,13;-45,23;21,76;4,79;21,76;4,79;0;0;
39300;-25,13;-45,23;-25,13;-45,23;16,66;4,98;16,66;4,98;0;0;
39319;-25,52;-39,71;-25,52;-39,71;13,18;4,7;13,18;4,7;0;0;
39336;-18,46;-38,66;-18,46;-38,66;8,88;4,37;8,88;4,37;0;0;
39364;-28,83;-37,17;-28,83;-37,17;4,67;3,8;4,67;3,8;0;0;
39382;-22,53;-36,94;-22,53;-36,94;3,38;3,16;3,38;3,16;0;0;
39400;-22,53;-36,94;-22,53;-36,94;3,28;2,72;3,28;2,72;0;0;
39417;-32,04;-36,93;-32,04;-36,93;4,19;2,72;4,19;2,72;0;0;
39434;-2,94;-38,03;-2,94;-38,03;5,6;2,45;5,6;2,45;0;0;
39453;-16,81;-33,29;-16,81;-33,29;6,13;3,03;6,13;3,03;0;0;
39471;-22,56;-44,7;-22,56;-44,7;6,01;4,14;6,01;4,14;0;0;
39489;-24,02;-39,37;-24,02;-39,37;5,94;4,74;5,94;4,74;0;0;
39516;-27,74;-24,23;-27,74;-24,23;5,81;5,19;5,81;5,19;0;0;
39540;-22;-29,37;-22;-29,37;4,77;6,58;4,77;6,58;0;0;
39559;-24,13;-37,44;-24,13;-37,44;3,49;6,47;3,49;6,47;0;0;
39579;-26,44;-33,43;-26,44;-33,43;3,45;5,69;3,45;5,69;0;0;
39598;-28,16;-34,51;-28,16;-34,51;3,3;5,65;3,3;5,65;0;0;
39618;-24,45;-36,96;-24,45;-36,96;3,17;5,81;3,17;5,81;0;0;
39639;-17,24;-50;-17,24;-50;3,21;4,53;3,21;4,53;0;0;
39667;-30,08;-40,51;-30,08;-40,51;3,17;4,67;3,17;4,67;0;0;
39686;-25,1;-42,16;-25,1;-42,16;2,66;4,88;2,66;4,88;0;0;
39704;-23,49;-46,42;-23,49;-46,42;3,02;4,92;3,02;4,92;0;0;
39723;-17,76;-39,13;-17,76;-39,13;3,23;4,66;3,23;4,66;0;0;
39740;-17,76;-39,13;-17,76;-39,13;3,51;4,67;3,51;4,67;0;0;
39757;-29,73;-35,3;-29,73;-35,3;3,33;4,72;3,33;4,72;0;0;
39775;-29,7;-42,36;-29,7;-42,36;2,92;4,63;2,92;4,63;0;0;
39794;-21,59;-40,23;-21,59;-40,23;2,93;4,31;2,93;4,31;0;0;
39821;-32,02;-38,86;-32,02;-38,86;2,92;4,61;2,92;4,61;0;0;
39841;-30,29;-39,02;-30,29;-39,02;2,96;4,67;2,96;4,67;0;0;
39861;-27,39;-38,09;-27,39;-38,09;3,44;4,52;3,44;4,52;0;0;
39880;-21,48;-30,47;-21,48;-30,47;3,75;4,33;3,75;4,33;0;0;
39897;-29,6;-43,36;-29,6;-43,36;4,14;4,6;4,14;4,6;0;0;
39915;-22,77;-48,24;-22,77;-48,24;4,02;4,89;4,02;4,89;0;0;
39933;-20,71;-35,22;-20,71;-35,22;3,9;4,87;3,9;4,87;0;0;
39953;-20,96;-41,33;-20,96;-41,33;3,69;4,68;3,69;4,68;0;0;
39978;-23,46;-30,7;-23,46;-30,7;3,11;5,13;3,11;5,13;0;0;
39998;-20,82;-45,66;-20,82;-45,66;3,12;5,24;3,12;5,24;0;0;
40019;-17,03;-58,03;-17,03;-58,03;2,98;5,73;2,98;5,73;0;0;
40038;-22,53;-39,67;-22,53;-39,67;3,13;5,29;3,13;5,29;0;0;
40056;-20,5;-45,11;-20,5;-45,11;3,04;4,99;3,04;4,99;0;0;
40075;-23,09;-43,32;-23,09;-43,32;2,97;4,87;2,97;4,87;0;0;
40094;-25,88;-46,07;-25,88;-46,07;3;5,53;3;5,53;1;0;
40112;-25,88;-46,07;-25,88;-46,07;2,69;5,88;2,69;5,88;1;0;
40138;-22,21;-35,94;-22,21;-35,94;2,49;5,17;2,49;5,17;1;0;
40155;-22,66;-38,05;-22,66;-38,05;2,39;4,96;2,39;4,96;1;0;
40176;-42,36;-44,3;-42,36;-44,3;2,92;4,76;2,92;4,76;1;0;
40194;-67,57;-38,66;-67,57;-38,66;7,09;4,26;7,09;4,26;1;0;
40213;-19,43;-41,55;-19,43;-41,55;9,49;3,45;9,49;3,45;1;0;
40230;-26,57;-36,66;-26,57;-36,66;9,58;3,04;9,58;3,04;1;0;
40248;-27,83;-21,38;-27,83;-21,38;9,71;4,79;9,71;4,79;1;0;
40270;-22,09;-36,41;-22,09;-36,41;10,06;5,83;10,06;5,83;1;0;
40294;-41,33;-36,9;-41,33;-36,9;8,72;6,21;8,72;6,21;1;0;
40315;-107,58;-42,57;-107,58;-42,57;13,02;6,26;13,02;6,26;1;0;
40335;164,29;-35,47;164,29;-35,47;21,52;6,52;21,52;6,52;1;0;
40354;-6,22;-42,26;-6,22;-42,26;24,22;6,47;24,22;6,47;1;0;
40378;3,17;-34,49;3,17;-34,49;29,39;4,6;29,39;4,6;1;0;
40401;78,77;-54,88;78,77;-54,88;42,71;5,66;42,71;5,66;1;0;
40427;-69,6;-35,19;-69,6;-35,19;45,14;5,66;45,14;5,66;0;0;
40467;-30,83;-38,35;-30,83;-38,35;50,33;5,66;50,33;5,66;0;0;
40494;5,48;-41,45;5,48;-41,45;52,69;5,47;52,69;5,47;0;0;
40516;31,35;-39,25;31,35;-39,25;56,05;5,37;56,05;5,37;0;0;
40543;-80,53;-32,55;-80,53;-32,55;51,08;5,27;51,08;5,27;0;0;
40570;-35,89;-27,24;-35,89;-27,24;45,43;5,19;45,43;5,19;0;0;
40589;-92,49;-40,41;-92,49;-40,41;40,48;5,45;40,48;5,45;0;0;
40621;-0,76;-28,18;-0,76;-28,18;33,15;5,77;33,15;5,77;0;0;
40645;-31,81;-30,82;-31,81;-30,82;28,93;5,9;28,93;5,9;0;0;
40664;21,39;-36,98;21,39;-36,98;29,42;6,22;29,42;6,22;0;0;
40682;10,19;-36,79;10,19;-36,79;29,21;6,41;29,21;6,41;0;0;
40701;10,19;-36,79;10,19;-36,79;31,47;5,4;31,47;5,4;0;0;
40719;-45,79;-61,61;-45,79;-61,61;31,75;5,87;31,75;5,87;0;0;
40737;18,86;-34,25;18,86;-34,25;32,73;5,8;32,73;5,8;0;0;
40757;11,88;-34,57;11,88;-34,57;39,26;5,92;39,26;5,92;0;0;
40785;-82,55;-29,33;-82,55;-29,33;40,56;5,68;40,56;5,68;0;0;
40803;36,91;-36,2;36,91;-36,2;43,18;5,27;43,18;5,27;0;0;
40820;36,91;-36,2;36,91;-36,2;45,46;4,95;45,46;4,95;0;0;
40843;-7,17;-44,91;-7,17;-44,91;44,24;4,08;44,24;4,08;0;0;
40862;16,5;-51,02;16,5;-51,02;41,46;4,96;41,46;4,96;0;0;
40880;16,5;-51,02;16,5;-51,02;41,34;5,5;41,34;5,5;0;0;
40898;-22,34;-46,52;-22,34;-46,52;40,14;5,61;40,14;5,61;0;0;
40917;2,31;-43,32;2,31;-43,32;34,93;5,42;34,93;5,42;0;0;
40947;-6,88;-33,22;-6,88;-33,22;30,47;5,28;30,47;5,28;0;0;
40964;-45,83;-45,06;-45,83;-45,06;27,29;4,5;27,29;4,5;0;0;
40984;-19,16;-40,17;-19,16;-40,17;21,26;3,34;21,26;3,34;0;0;
41003;-26,86;-35,59;-26,86;-35,59;14,54;2,66;14,54;2,66;0;0;
41021;-26,86;-35,59;-26,86;-35,59;13,29;2,44;13,29;2,44;0;0;
41039;-47,18;-40,74;-47,18;-40,74;10,86;2,67;10,86;2,67;0;0;
41060;-14,85;-35,9;-14,85;-35,9;12,77;2,79;12,77;2,79;0;0;
41082;-26,81;-32,45;-26,81;-32,45;10,92;2,88;10,92;2,88;0;0;
41109;-19,84;-35,97;-19,84;-35,97;11;3,16;11;3,16;0;0;
41129;-15,1;-41,29;-15,1;-41,29;10,86;3,43;10,86;3,43;0;0;
41147;-25,73;-37,26;-25,73;-37,26;9,56;3,5;9,56;3,5;0;0;
41166;-37,7;-38,5;-37,7;-38,5;7,33;3,13;7,33;3,13;0;0;
41184;-28,84;-33,19;-28,84;-33,19;8,05;3,06;8,05;3,06;0;0;
41202;-23,42;-45,53;-23,42;-45,53;9,75;2,99;9,75;2,99;0;0;
41219;-23,42;-45,53;-23,42;-45,53;11,38;3,04;11,38;3,04;0;0;
41239;-23,34;-42,01;-23,34;-42,01;10,82;3,49;10,82;3,49;0;0;
41265;-14,7;-35,37;-14,7;-35,37;11,14;3,46;11,14;3,46;0;0;
41283;-25,42;-43,26;-25,42;-43,26;10,36;3,73;10,36;3,73;0;0;
41300;-25,42;-43,26;-25,42;-43,26;9,31;3,98;9,31;3,98;0;0;
41318;-25,12;-38,14;-25,12;-38,14;7,84;4,55;7,84;4,55;0;0;
41334;-23;-44,14;-23;-44,14;6,45;5,11;6,45;5,11;0;0;
41353;-23,31;-36,84;-23,31;-36,84;5,48;4,77;5,48;4,77;0;0;
41370;-15,99;-50,62;-15,99;-50,62;4,94;6,68;4,94;6,68;0;0;
41389;-22,42;-48,34;-22,42;-48,34;4,49;6,72;4,49;6,72;0;0;
41415;-26,7;-57,71;-26,7;-57,71;4;7,27;4;7,27;0;0;
41435;-18,94;-41,54;-18,94;-41,54;3,57;6,97;3,57;6,97;0;0;
