Time;EMG1;EMG2;EMG3;EMG4;EMG1_F;EMG2_F;EMG3_F;EMG4_F;Note_R;Note_V;;Level 1;Joueur;Score;Notes hit;% Reussite R;Offset EMG1;Onset EMG1;% Reussite V;Offset EMG2;Onset EMG2
41;-17,1;-12,07;-17,1;-12,07;2,97;4,58;2,97;4,58;0;0;;;1;4600;45;31,14754;-16,78035;23,30707;14;-7,312454;45,94633
116;-21,35;-7,67;-21,35;-7,67;2,54;4,08;2,54;4,08;0;0;;;2;5200;50;35,2459;-16,78035;23,30707;14;-7,312454;45,94633
168;-18,27;-16,9;-18,27;-16,9;2,69;3,16;2,69;3,16;0;0;
217;-19,23;-15,74;-19,23;-15,74;3,06;3,46;3,06;3,46;0;0;
276;-22,05;-7,68;-22,05;-7,68;3,82;3,35;3,82;3,35;0;0;
338;-21,83;-10,53;-21,83;-10,53;3,98;3,3;3,98;3,3;0;0;
411;-19,08;-9,56;-19,08;-9,56;4,16;4;4,16;4;0;0;
457;-14,7;-4,19;-14,7;-4,19;3,77;4,01;3,77;4,01;0;0;
504;-13,73;-14,4;-13,73;-14,4;3,36;3,99;3,36;3,99;0;0;
562;-24,81;-1,05;-24,81;-1,05;3,18;3,78;3,18;3,78;0;0;
607;-16,15;-8,73;-16,15;-8,73;3,23;4,04;3,23;4,04;0;0;
663;-11,5;-4,22;-11,5;-4,22;3,9;3,9;3,9;3,9;0;0;
711;-13,29;-12,07;-13,29;-12,07;4,03;3,75;4,03;3,75;0;0;
779;-17,12;-11,58;-17,12;-11,58;4,33;3,3;4,33;3,3;0;0;
828;-15,12;-1,62;-15,12;-1,62;4,13;3,35;4,13;3,35;0;0;
877;-19,13;-7,03;-19,13;-7,03;3,35;3,01;3,35;3,01;0;0;
920;-15,72;-9;-15,72;-9;3,1;2,81;3,1;2,81;0;0;
985;-19,26;-13,64;-19,26;-13,64;2,79;2,97;2,79;2,97;0;0;
1031;-21,29;-1,35;-21,29;-1,35;2,37;3,27;2,37;3,27;0;0;
1085;-14,92;-14,01;-14,92;-14,01;2,19;4,06;2,19;4,06;0;0;
1132;-19,65;-5,24;-19,65;-5,24;2,19;3,61;2,19;3,61;0;0;
1193;-11,69;-11,67;-11,69;-11,67;2,71;3,83;2,71;3,83;0;0;
1239;-6,45;-3,76;-6,45;-3,76;2,96;4,3;2,96;4,3;0;0;
1287;-23,94;-9,37;-23,94;-9,37;3,48;4,13;3,48;4,13;0;0;
1333;-20,74;-10,87;-20,74;-10,87;3,87;4,3;3,87;4,3;0;0;
1394;-21,57;-2,81;-21,57;-2,81;4,38;3,8;4,38;3,8;0;0;
1442;-8,95;-12,32;-8,95;-12,32;4,33;4,33;4,33;4,33;0;0;
1495;-12,49;-4;-12,49;-4;4,49;4,24;4,49;4,24;0;0;
1545;-15,53;-2,45;-15,53;-2,45;4,09;3,75;4,09;3,75;0;0;
1607;-19,43;0,68;-19,43;0,68;3,47;3,62;3,47;3,62;0;0;
1658;-20,41;-3,27;-20,41;-3,27;3,49;3,79;3,49;3,79;0;0;
1705;-16,44;-6,82;-16,44;-6,82;4,3;3,55;4,3;3,55;0;0;
1756;-17,34;-2,75;-17,34;-2,75;4,29;3,28;4,29;3,28;0;0;
1822;-19,19;-7,54;-19,19;-7,54;4,59;3,22;4,59;3,22;0;0;
1875;-21,93;-6,67;-21,93;-6,67;4,32;2,97;4,32;2,97;0;0;
1923;-20,1;-7,06;-20,1;-7,06;4,06;3,12;4,06;3,12;0;0;
1971;-15,64;-13,06;-15,64;-13,06;3,79;2,75;3,79;2,75;0;0;
2032;-20,17;-1,84;-20,17;-1,84;3,37;2,68;3,37;2,68;0;0;
2081;-12,67;-3,16;-12,67;-3,16;3,3;2,44;3,3;2,44;0;0;
2127;-11,9;-9,56;-11,9;-9,56;3,75;2,42;3,75;2,42;0;0;
2175;-17,36;-2,76;-17,36;-2,76;3,76;2,84;3,76;2,84;0;0;
2239;-17,98;-7,67;-17,98;-7,67;4,17;2,96;4,17;2,96;0;0;
2295;-18,09;-9,53;-18,09;-9,53;3,76;3,04;3,76;3,04;0;0;
2347;-18,27;-3;-18,27;-3;3,24;3,06;3,24;3,06;0;0;
2400;-19,29;-10;-19,29;-10;3,56;3,34;3,56;3,34;0;0;
2477;-25,65;-13,26;-25,65;-13,26;4,05;3,55;4,05;3,55;0;0;
2528;-27,58;-13,78;-27,58;-13,78;4,08;3,67;4,08;3,67;0;0;
2581;-18,97;-8,39;-18,97;-8,39;4,53;3,05;4,53;3,05;0;0;
2628;-14,54;-14,5;-14,54;-14,5;4,75;3,59;4,75;3,59;0;0;
2692;-15,58;-12,82;-15,58;-12,82;4,86;3,91;4,86;3,91;0;0;
2743;-14,8;-4,72;-14,8;-4,72;5,47;3,78;5,47;3,78;0;0;
2787;-20,4;-1,76;-20,4;-1,76;5,5;4,08;5,5;4,08;0;0;
2836;-16,58;-15,61;-16,58;-15,61;4,88;4,22;4,88;4,22;0;0;
2898;-18,65;-13,75;-18,65;-13,75;4,61;4,45;4,61;4,45;0;0;
2949;-13,03;-6,67;-13,03;-6,67;4,67;4,24;4,67;4,24;0;0;
3005;-18,79;-16,47;-18,79;-16,47;3,4;4,11;3,4;4,11;0;0;
3053;-14,53;-8,16;-14,53;-8,16;3,15;3,93;3,15;3,93;0;0;
3118;-17,07;-1,95;-17,07;-1,95;2,27;4,12;2,27;4,12;0;0;
3172;-12,14;-8,16;-12,14;-8,16;2,56;3,63;2,56;3,63;0;0;
3222;-18,16;-5,46;-18,16;-5,46;2,8;3,41;2,8;3,41;0;0;
3271;-20,48;-23,73;-20,48;-23,73;3,1;4,85;3,1;4,85;0;0;
3339;-21,5;-15,5;-21,5;-15,5;3,31;6,18;3,31;6,18;0;0;
3388;-17,27;7,53;-17,27;7,53;3,36;7,01;3,36;7,01;0;0;
3438;-15,93;2,8;-15,93;2,8;3,21;7,87;3,21;7,87;0;0;
3493;-1,4;-20,02;-1,4;-20,02;3,54;10,58;3,54;10,58;0;0;
3555;42,82;21,28;42,82;21,28;11,07;13,09;11,07;13,09;1;0;
3609;-14,12;-13,43;-14,12;-13,43;11,17;13,8;11,17;13,8;1;0;
3655;-16,41;-7,57;-16,41;-7,57;11,99;12,21;11,99;12,21;1;0;
3702;-10,75;-22,87;-10,75;-22,87;13,51;12,45;13,51;12,45;1;0;
3767;-16,99;-6,69;-16,99;-6,69;12,92;10,34;12,92;10,34;1;0;
3815;-20,75;-6,43;-20,75;-6,43;10,03;9,08;10,03;9,08;1;0;
3860;-20,45;-12,03;-20,45;-12,03;10,78;5,34;10,78;5,34;1;0;
3918;-14,75;-1,05;-14,75;-1,05;11,02;4,27;11,02;4,27;0;0;
3986;-12,66;-8,2;-12,66;-8,2;10,04;4,61;10,04;4,61;0;0;
4043;-22,51;-11,51;-22,51;-11,51;9,05;4,94;9,05;4,94;0;0;
4094;-12,43;-5,34;-12,43;-5,34;8,9;5,12;8,9;5,12;0;0;
4169;-14,94;-10,12;-14,94;-10,12;3,57;4,73;3,57;4,73;0;0;
4239;-25,56;-2,56;-25,56;-2,56;3,9;4,59;3,9;4,59;0;0;
4293;-12,12;5,64;-12,12;5,64;3,74;5,22;3,74;5,22;0;0;
4342;-20,81;-3,56;-20,81;-3,56;3,65;4,71;3,65;4,71;0;0;
4387;-20,47;-6,2;-20,47;-6,2;3,43;4,59;3,43;4,59;0;0;
4453;-10,51;-9,18;-10,51;-9,18;2,95;4,32;2,95;4,32;0;0;
4509;-19,31;-10,03;-19,31;-10,03;2,76;4,25;2,76;4,25;0;0;
4560;-13,96;-6,04;-13,96;-6,04;2,34;3,69;2,34;3,69;0;0;
4609;-21,91;-5,87;-21,91;-5,87;2,43;2,79;2,43;2,79;0;0;
4674;-21,12;-7,66;-21,12;-7,66;3,07;2,69;3,07;2,69;0;0;
4734;-13,3;-4,1;-13,3;-4,1;2,82;3,09;2,82;3,09;0;0;
4780;-19,28;-10,57;-19,28;-10,57;2,89;3,71;2,89;3,71;0;0;
4825;-12,93;-3,88;-12,93;-3,88;2,53;3,54;2,53;3,54;0;0;
4893;-18,93;-8,39;-18,93;-8,39;3,55;3,92;3,55;3,92;0;0;
4945;-14,09;-9,28;-14,09;-9,28;3,38;3,69;3,38;3,69;0;0;
4992;-13,75;-2,84;-13,75;-2,84;3,33;3,36;3,33;3,36;0;0;
5037;-14,45;-11,45;-14,45;-11,45;3,42;3,53;3,42;3,53;0;0;
5104;-20,51;-16,12;-20,51;-16,12;3,71;3,42;3,71;3,42;0;0;
5152;-19,26;-7,41;-19,26;-7,41;4,07;3,06;4,07;3,06;0;0;
5196;-9,11;-6,21;-9,11;-6,21;4,69;2,97;4,69;2,97;0;0;
5242;-23,9;-12,71;-23,9;-12,71;4,87;3,06;4,87;3,06;0;0;
5308;-9,8;-10,1;-9,8;-10,1;5,03;2,7;5,03;2,7;0;0;
5355;-17,01;-8,73;-17,01;-8,73;5,49;2,44;5,49;2,44;0;0;
5402;-22,16;-4,46;-22,16;-4,46;5,41;2,46;5,41;2,46;0;0;
5451;-9,37;-4,96;-9,37;-4,96;5,35;2,95;5,35;2,95;0;0;
5514;-15,46;-2,54;-15,46;-2,54;4,35;3,35;4,35;3,35;0;0;
5562;-18,15;-8,12;-18,15;-8,12;4,62;4,04;4,62;4,04;0;0;
5612;-22,99;-11,59;-22,99;-11,59;5,14;4,04;5,14;4,04;0;0;
5664;-20,99;-17,31;-20,99;-17,31;5,63;4,17;5,63;4,17;0;0;
5726;30,65;-9,91;30,65;-9,91;6,22;4,6;6,22;4,6;1;0;
5779;21,32;-28,28;21,32;-28,28;16,22;6,51;16,22;6,51;1;0;
5826;-43,81;1,09;-43,81;1,09;18,9;12,48;18,9;12,48;1;0;
5875;-28,04;-7,78;-28,04;-7,78;19,52;13,1;19,52;13,1;1;0;
5940;-15,15;-11,03;-15,15;-11,03;19,22;14,38;19,22;14,38;1;0;
6014;-10,88;4,36;-10,88;4,36;16,48;12,84;16,48;12,84;1;0;
6068;-17,01;-2,58;-17,01;-2,58;9,72;7,94;9,72;7,94;0;0;
6118;-19,75;-10,11;-19,75;-10,11;8,09;5,74;8,09;5,74;0;0;
6187;-20,37;-6,67;-20,37;-6,67;7,3;4,66;7,3;4,66;0;0;
6240;-21,92;-16,16;-21,92;-16,16;6,76;5,37;6,76;5,37;0;0;
6288;-13,61;17,69;-13,61;17,69;5,48;7,46;5,48;7,46;0;0;
6337;-20,32;-11,92;-20,32;-11,92;4,95;6,7;4,95;6,7;0;0;
6446;-8,09;-1,89;-8,09;-1,89;5,46;6,85;5,46;6,85;0;0;
6512;-27,33;-5,77;-27,33;-5,77;6,16;6,8;6,16;6,8;0;0;
6572;-10,9;-9,75;-10,9;-9,75;7,05;6,88;7,05;6,88;0;0;
6633;-24,69;-4,1;-24,69;-4,1;6,91;5,45;6,91;5,45;0;0;
6685;-12,09;0,91;-12,09;0,91;7,86;5,78;7,86;5,78;0;0;
6733;-24,34;1,38;-24,34;1,38;7,37;6,32;7,37;6,32;0;0;
6778;-8,97;-14,39;-8,97;-14,39;7,08;5,27;7,08;5,27;0;0;
6847;-40,13;-11,33;-40,13;-11,33;7,37;4,88;7,37;4,88;0;0;
6895;-11,27;-5,24;-11,27;-5,24;7;5,53;7;5,53;0;0;
6952;-21,47;-12,92;-21,47;-12,92;6,08;5,62;6,08;5,62;0;0;
6999;-16,16;-17,6;-16,16;-17,6;5,85;5,38;5,85;5,38;0;0;
7061;-19,44;8,23;-19,44;8,23;5,34;6,6;5,34;6,6;0;0;
7106;-13,34;-6,17;-13,34;-6,17;5,26;7,32;5,26;7,32;0;0;
7157;-22,29;-1,33;-22,29;-1,33;6,2;6,73;6,2;6,73;0;0;
7200;-16,44;-11,71;-16,44;-11,71;6,31;6,16;6,31;6,16;0;0;
7272;-16,41;-12,83;-16,41;-12,83;6,18;6,77;6,18;6,77;0;0;
7321;-7,93;2,81;-7,93;2,81;6,72;6,42;6,72;6,42;0;0;
7375;-11,39;-31,28;-11,39;-31,28;5,98;6,84;5,98;6,84;0;0;
7423;-21,45;-10,79;-21,45;-10,79;5,06;6,7;5,06;6,7;0;0;
7488;-7,72;-7,39;-7,72;-7,39;4,6;7,04;4,6;7,04;0;0;
7538;-9,19;12,15;-9,19;12,15;6,61;9,65;6,61;9,65;0;0;
7599;-27,01;-4,24;-27,01;-4,24;6,67;9,48;6,67;9,48;1;0;
7649;-15,42;-13,79;-15,42;-13,79;6,75;9,27;6,75;9,27;1;0;
7710;-20,43;-15,1;-20,43;-15,1;7,45;9,64;7,45;9,64;1;0;
7762;7,32;38,45;7,32;38,45;31,1;13,78;31,1;13,78;1;0;
7843;-10,92;0,44;-10,92;0,44;36,67;17,44;36,67;17,44;0;0;
7934;-39,85;4,08;-39,85;4,08;35;22,84;35;22,84;0;0;
8027;-1,28;5,63;-1,28;5,63;34,82;22,8;34,82;22,8;0;0;
8101;-17,76;-0,49;-17,76;-0,49;34,6;23,27;34,6;23,27;0;0;
8197;-1,79;4,5;-1,79;4,5;27,15;22,15;27,15;22,15;0;0;
8296;-18,13;-13,05;-18,13;-13,05;7,37;16,96;7,37;16,96;0;0;
8388;-17,28;-3,17;-17,28;-3,17;4,52;11,38;4,52;11,38;0;0;
8457;-26,43;-6,96;-26,43;-6,96;4,46;7,97;4,46;7,97;0;0;
8533;-12,96;-11,23;-12,96;-11,23;4,24;6,08;4,24;6,08;0;0;
8607;-15,75;-2,96;-15,75;-2,96;4,72;7,39;4,72;7,39;1;0;
8664;-15,47;9,42;-15,47;9,42;5,06;7,99;5,06;7,99;1;0;
8741;-92,48;-22,33;-92,48;-22,33;7,61;8,3;7,61;8,3;1;0;
8786;-21,54;-3,18;-21,54;-3,18;7,66;11,1;7,66;11,1;1;0;
8886;-60,36;1,21;-60,36;1,21;9,69;14,36;9,69;14,36;0;0;
8994;-11,06;46,54;-11,06;46,54;17,49;17,38;17,49;17,38;0;0;
9072;-26,41;29,8;-26,41;29,8;18,87;23,49;18,87;23,49;0;0;
9147;-22,68;-22,28;-22,68;-22,28;20,49;25,29;20,49;25,29;0;0;
9222;-21,5;11,07;-21,5;11,07;18,93;24,6;18,93;24,6;0;0;
9282;-8,87;-4,92;-8,87;-4,92;18,71;21,64;18,71;21,64;0;0;
9334;-9,71;-7,49;-9,71;-7,49;11,87;18,07;11,87;18,07;0;0;
9383;-31,73;-8,08;-31,73;-8,08;9,6;15,18;9,6;15,18;0;0;
9451;-26,83;-37,72;-26,83;-37,72;8,03;10,46;8,03;10,46;0;0;
9495;-20,95;-32,5;-20,95;-32,5;6,21;9,84;6,21;9,84;0;0;
9704;-18,29;-10,82;-18,29;-10,82;6,41;10;6,41;10;0;0;
9782;-9,78;-11,98;-9,78;-11,98;5,59;9,99;5,59;9,99;0;0;
9831;-17,8;-17,87;-17,8;-17,87;4,99;10,07;4,99;10,07;0;0;
9886;-18,21;-20,21;-18,21;-20,21;5,85;8,31;5,85;8,31;0;0;
9933;-6,49;-23,42;-6,49;-23,42;5,58;8,25;5,58;8,25;0;0;
9993;-0,53;-12,02;-0,53;-12,02;5,94;6,61;5,94;6,61;0;0;
10043;-25,77;-12,48;-25,77;-12,48;5,6;7,45;5,6;7,45;0;0;
10090;-11,39;2,37;-11,39;2,37;5,91;7,65;5,91;7,65;0;0;
10143;-19,94;-5,74;-19,94;-5,74;5,6;7,7;5,6;7,7;0;0;
10202;-14,58;-29,52;-14,58;-29,52;4,59;8,45;4,59;8,45;0;0;
10248;-22,09;-8,04;-22,09;-8,04;4,51;8,11;4,51;8,11;0;0;
10294;-12,44;-5,79;-12,44;-5,79;4,15;8,18;4,15;8,18;0;0;
10342;-21,16;-7,29;-21,16;-7,29;3,56;8,69;3,56;8,69;0;0;
10400;-12,75;-11,38;-12,75;-11,38;3,69;8,23;3,69;8,23;0;0;
10448;-17,26;-5,08;-17,26;-5,08;3,97;6,84;3,97;6,84;0;0;
10495;-25,71;-8,39;-25,71;-8,39;4,56;6,11;4,56;6,11;0;0;
10549;-21,84;-2,1;-21,84;-2,1;4,09;5,32;4,09;5,32;0;0;
10613;-32,9;0,79;-32,9;0,79;4,58;4,52;4,58;4,52;0;0;
10658;-19,75;-11,28;-19,75;-11,28;4,9;4,41;4,9;4,41;0;0;
11011;-25,5;6,99;-25,5;6,99;5,62;6,66;5,62;6,66;0;0;
11059;-18,38;-9,8;-18,38;-9,8;5,59;7,31;5,59;7,31;0;0;
11119;-20,58;-10,63;-20,58;-10,63;6,17;7,18;6,17;7,18;0;0;
11165;-8,83;-14,38;-8,83;-14,38;5,89;7,39;5,89;7,39;0;0;
11217;-11,94;-5,15;-11,94;-5,15;6,17;6,84;6,17;6,84;0;0;
11263;-26,09;-7,67;-26,09;-7,67;6,1;5,7;6,1;5,7;0;0;
11328;-9,11;-8,25;-9,11;-8,25;5,41;5;5,41;5;0;0;
11380;-28,4;-7,42;-28,4;-7,42;6,86;4,57;6,86;4,57;0;0;
11429;-14,96;-13,95;-14,96;-13,95;6,71;5,35;6,71;5,35;0;0;
11479;-25,52;3,97;-25,52;3,97;6,86;5,49;6,86;5,49;0;0;
11542;-11,79;-6,45;-11,79;-6,45;8,09;5,93;8,09;5,93;0;0;
11591;-11,64;-6,19;-11,64;-6,19;8,05;6,34;8,05;6,34;0;0;
11642;-14,48;-6,03;-14,48;-6,03;8;6,08;8;6,08;0;0;
11691;-22,22;-18,44;-22,22;-18,44;7,15;6,29;7,15;6,29;0;0;
11750;-18,18;1,3;-18,18;1,3;6,53;5,4;6,53;5,4;0;0;
11804;-4,98;7,4;-4,98;7,4;5,93;5,54;5,93;5,54;0;0;
11852;-19,5;-12,54;-19,5;-12,54;5,29;5,87;5,29;5,87;0;0;
11900;-20,32;-12,61;-20,32;-12,61;4,58;6,45;4,58;6,45;0;0;
11959;-9,88;1,75;-9,88;1,75;4,94;6,42;4,94;6,42;0;0;
12005;-17,1;-4,97;-17,1;-4,97;4,49;6,62;4,49;6,62;0;0;
12060;-15,17;-16,15;-15,17;-16,15;4,4;7,07;4,4;7,07;0;0;
12110;-7,35;-7,26;-7,35;-7,26;4,38;7,18;4,38;7,18;0;0;
12174;-21,56;5,1;-21,56;5,1;3,9;7,01;3,9;7,01;0;0;
12232;-15,77;-15,67;-15,77;-15,67;3,53;6,38;3,53;6,38;0;0;
12279;-11,39;-4,12;-11,39;-4,12;3,15;7,3;3,15;7,3;0;0;
12326;-26,17;-10,15;-26,17;-10,15;3,96;7,44;3,96;7,44;0;0;
12388;-19,24;-12,48;-19,24;-12,48;3,62;6,9;3,62;6,9;0;0;
12437;-18,58;-1,19;-18,58;-1,19;3,95;8,07;3,95;8,07;0;0;
12487;-20,74;7,07;-20,74;7,07;4,2;8,06;4,2;8,06;0;0;
12539;-13,33;-3;-13,33;-3;4,97;7,65;4,97;7,65;0;0;
12600;0,28;-7,52;0,28;-7,52;5,4;6,88;5,4;6,88;0;0;
12646;-5,28;1,88;-5,28;1,88;5,28;8,52;5,28;8,52;0;0;
12698;-17,04;-19,78;-17,04;-19,78;5,22;8,96;5,22;8,96;0;0;
12744;-21,26;-3,73;-21,26;-3,73;4,97;8,7;4,97;8,7;0;0;
12806;-16,78;11,2;-16,78;11,2;4,14;12,69;4,14;12,69;0;0;
12864;-12,81;-19,01;-12,81;-19,01;4,32;13,07;4,32;13,07;0;0;
12925;-14,8;4,94;-14,8;4,94;3,91;15,72;3,91;15,72;1;0;
12971;-25,5;-43,47;-25,5;-43,47;5,2;18,23;5,2;18,23;1;0;
13033;-191,23;-96,89;-191,23;-96,89;21,13;20,77;21,13;20,77;1;0;
13084;8,29;-3,4;8,29;-3,4;30,47;23,5;30,47;23,5;1;0;
13133;-42,16;-5,5;-42,16;-5,5;32,41;22,42;32,41;22,42;0;0;
13196;-18,14;19,4;-18,14;19,4;33,55;22,31;33,55;22,31;0;0;
13295;-8,21;-4,8;-8,21;-4,8;33,36;17,74;33,36;17,74;0;0;
13371;-14,6;-16,87;-14,6;-16,87;27,24;16,36;27,24;16,36;0;0;
13429;-19,75;-30,03;-19,75;-30,03;9,74;13,69;9,74;13,69;0;0;
13504;-16,89;-2,75;-16,89;-2,75;8,25;9,55;8,25;9,55;0;0;
13552;-11,78;-2,04;-11,78;-2,04;7,12;9,18;7,12;9,18;0;0;
13606;-28,78;-5,56;-28,78;-5,56;7,32;8,64;7,32;8,64;0;0;
13686;-17,79;-21,09;-17,79;-21,09;6,62;9,51;6,62;9,51;1;0;
13751;-11,07;-11,03;-11,07;-11,03;6,89;7,29;6,89;7,29;1;0;
13805;-15,72;-57,22;-15,72;-57,22;6,42;7,64;6,42;7,64;1;0;
13855;-4,06;31,53;-4,06;31,53;6,07;9,45;6,07;9,45;1;0;
13930;16,49;-45,41;16,49;-45,41;11,7;11,29;11,7;11,29;1;0;
14002;13,16;8,78;13,16;8,78;12,84;14,32;12,84;14,32;1;0;
14069;4,56;11,12;4,56;11,12;17,41;14,53;17,41;14,53;0;0;
14117;-18,58;-4,47;-18,58;-4,47;17,85;15,47;17,85;15,47;0;0;
14167;-10,11;-13,16;-10,11;-13,16;18,39;14,17;18,39;14,17;0;0;
14247;-11,59;-15,42;-11,59;-15,42;16,89;11,02;16,89;11,02;0;0;
14299;-32,9;6,4;-32,9;6,4;11,59;10,35;11,59;10,35;0;0;
14353;-11,82;-34,84;-11,82;-34,84;8,58;9,46;8,58;9,46;0;0;
14399;-11,39;-17,18;-11,39;-17,18;6,71;7,67;6,71;7,67;0;0;
14472;-6,46;-3,2;-6,46;-3,2;6,39;7,4;6,39;7,4;0;0;
14521;-6,96;-15,99;-6,96;-15,99;5,56;6,99;5,56;6,99;0;0;
14566;-28,62;-24,33;-28,62;-24,33;5,82;7,41;5,82;7,41;0;0;
14625;-10,7;4,11;-10,7;4,11;5,29;7,82;5,29;7,82;0;0;
14698;-23,28;-10,31;-23,28;-10,31;5,22;7,44;5,22;7,44;0;0;
14743;-15,43;2,13;-15,43;2,13;5,24;8,1;5,24;8,1;0;0;
14792;-15,99;-4,5;-15,99;-4,5;5,07;8,38;5,07;8,38;0;0;
14845;-16,16;-12,08;-16,16;-12,08;5,09;8,54;5,09;8,54;0;0;
14907;-12,16;-1,35;-12,16;-1,35;4,56;7,13;4,56;7,13;0;0;
14955;-18,65;-13,06;-18,65;-13,06;3,72;6,51;3,72;6,51;0;0;
15001;-19,29;-6,39;-19,29;-6,39;4,9;6,91;4,9;6,91;0;0;
15047;-15,87;-3,37;-15,87;-3,37;5,01;5,93;5,01;5,93;0;0;
15108;-10,96;-9,05;-10,96;-9,05;4,69;6,03;4,69;6,03;0;0;
15161;-18,55;-3,41;-18,55;-3,41;4,5;5,62;4,5;5,62;0;0;
15213;-17,22;-13,41;-17,22;-13,41;4,29;5,51;4,29;5,51;0;0;
15288;-13,59;0,68;-13,59;0,68;2,5;5,24;2,5;5,24;0;0;
15355;-16,47;-8,97;-16,47;-8,97;2,37;5,26;2,37;5,26;0;0;
15401;-15,53;-9,41;-15,53;-9,41;2,7;6,86;2,7;6,86;0;0;
15448;-20,54;-11,34;-20,54;-11,34;3,16;6,74;3,16;6,74;0;0;
15494;-15,44;-0,06;-15,44;-0,06;3,16;6,91;3,16;6,91;0;0;
15561;-23,6;-10,49;-23,6;-10,49;3,22;7,08;3,22;7,08;0;0;
15610;-17,4;-13,6;-17,4;-13,6;3,63;6,67;3,63;6,67;0;0;
15656;-23,39;-5,16;-23,39;-5,16;3,8;6,08;3,8;6,08;0;0;
15702;-20,77;-33,87;-20,77;-33,87;3,97;5,99;3,97;5,99;0;0;
15766;-15,66;-8,36;-15,66;-8,36;3,63;6,94;3,63;6,94;0;0;
15817;-20,09;-8,91;-20,09;-8,91;3,87;6,84;3,87;6,84;0;0;
15862;-8,65;-19,24;-8,65;-19,24;3,93;7,31;3,93;7,31;0;0;
15907;-16,48;-11,57;-16,48;-11,57;3,9;7,14;3,9;7,14;0;0;
15974;-18,94;-7,41;-18,94;-7,41;3,72;6,8;3,72;6,8;0;0;
16029;-26,94;11,63;-26,94;11,63;4,11;7,38;4,11;7,38;1;0;
16082;-64,09;-21,17;-64,09;-21,17;17,44;8,62;17,44;8,62;1;0;
16129;18,43;-9;18,43;-9;18,6;16,23;18,6;16,23;1;0;
16191;-10,05;8,98;-10,05;8,98;20,01;17,37;20,01;17,37;1;0;
16237;-21,37;49,83;-21,37;49,83;21,68;27,91;21,68;27,91;1;0;
16286;-15,1;-2,77;-15,1;-2,77;21,58;28,09;21,58;28,09;1;0;
16336;-15,63;-9,98;-15,63;-9,98;17,16;26,75;17,16;26,75;0;0;
16407;-22,24;-16,18;-22,24;-16,18;7,51;21,31;7,51;21,31;0;0;
16454;-15,74;-8,62;-15,74;-8,62;6,89;17,94;6,89;17,94;0;0;
16531;-19,32;2,51;-19,32;2,51;5,59;6,7;5,59;6,7;0;0;
16578;-17,71;-10,42;-17,71;-10,42;5,84;6,22;5,84;6,22;0;0;
16645;-14,11;-7,48;-14,11;-7,48;6,11;6,28;6,11;6,28;0;0;
16695;-19,44;-10,1;-19,44;-10,1;5,88;5,29;5,88;5,29;0;0;
16742;-15,25;-67,42;-15,25;-67,42;5,36;6,86;5,36;6,86;0;0;
16793;-20,06;-13,38;-20,06;-13,38;4,48;8,06;4,48;8,06;0;0;
16857;-13,48;-8,6;-13,48;-8,6;2,87;7,16;2,87;7,16;0;0;
16904;-17,93;-9,14;-17,93;-9,14;2,86;6,82;2,86;6,82;0;0;
16951;-19,58;2,23;-19,58;2,23;2,58;6,78;2,58;6,78;0;0;
16996;-14,03;-4,98;-14,03;-4,98;2,76;7,05;2,76;7,05;0;0;
17057;-17,03;-12,1;-17,03;-12,1;2,63;5,32;2,63;5,32;0;0;
17108;-17,21;-12,52;-17,21;-12,52;2,6;3,67;2,6;3,67;0;0;
17155;-22,28;-8,76;-22,28;-8,76;2,69;3,75;2,69;3,75;0;0;
17210;-22,65;3,22;-22,65;3,22;3,23;4,25;3,23;4,25;0;0;
17271;-26,32;6,8;-26,32;6,8;3,45;4,3;3,45;4,3;0;0;
17316;-16,08;-7,62;-16,08;-7,62;3,53;3,92;3,53;3,92;0;0;
17363;-21,61;-10,5;-21,61;-10,5;3,57;4,27;3,57;4,27;0;0;
17413;-16,5;-12,37;-16,5;-12,37;4;4,3;4;4,3;0;0;
17476;-15,89;-16,18;-15,89;-16,18;4,34;4,73;4,34;4,73;0;0;
17524;-25,58;-0,07;-25,58;-0,07;4,47;5,82;4,47;5,82;0;0;
17574;-10,43;-9,85;-10,43;-9,85;4,55;5,46;4,55;5,46;0;0;
17620;-25,16;-7,96;-25,16;-7,96;5,13;6,69;5,13;6,69;0;0;
17688;-19;-0,35;-19;-0,35;5,22;7,56;5,22;7,56;0;0;
17735;-1,35;2,46;-1,35;2,46;5,1;8,79;5,1;8,79;0;0;
17782;-26,16;-6,95;-26,16;-6,95;4,71;8,65;4,71;8,65;0;0;
17827;-26,6;-1,01;-26,6;-1,01;4,89;9,4;4,89;9,4;0;0;
17892;-14,21;-13,98;-14,21;-13,98;4,32;8,8;4,32;8,8;0;0;
17942;-30,61;-27,07;-30,61;-27,07;8,29;9,41;8,29;9,41;1;0;
17993;-16,11;-1;-16,11;-1;13,18;12,31;13,18;12,31;1;0;
18045;-67,7;-9,4;-67,7;-9,4;16,77;13,54;16,77;13,54;1;0;
18108;-26,89;63,01;-26,89;63,01;16,97;19,52;16,97;19,52;1;0;
18158;-10,69;-6,18;-10,69;-6,18;17,01;18,73;17,01;18,73;1;0;
18205;-16,78;15,81;-16,78;15,81;16,29;18,03;16,29;18,03;1;0;
18255;-29,1;-0,36;-29,1;-0,36;8,94;17,54;8,94;17,54;1;0;
18318;-14,83;-5,53;-14,83;-5,53;6,72;14,9;6,72;14,9;0;0;
18366;-20,98;-1,3;-20,98;-1,3;5,79;12,1;5,79;12,1;0;0;
18421;-12,11;12,9;-12,11;12,9;5,55;11,34;5,55;11,34;0;0;
18470;-5,45;-4,37;-5,45;-4,37;5,6;11,42;5,6;11,42;0;0;
18545;-12,26;-15;-12,26;-15;5,94;11,03;5,94;11,03;0;0;
18592;-19,54;-0,3;-19,54;-0,3;5,61;9,12;5,61;9,12;0;0;
18640;-18,96;-6,27;-18,96;-6,27;5,1;9,27;5,1;9,27;0;0;
18688;-26,07;-7,42;-26,07;-7,42;4,82;8,79;4,82;8,79;0;0;
18752;-17,97;-12,51;-17,97;-12,51;5,03;6,54;5,03;6,54;0;0;
18795;-26,79;5,5;-26,79;5,5;5,34;6,52;5,34;6,52;0;0;
18848;-18,59;-24,34;-18,59;-24,34;5,36;6,52;5,36;6,52;0;0;
18897;-7,45;-3,97;-7,45;-3,97;4,67;5,32;4,67;5,32;0;0;
18961;-10,46;7,37;-10,46;7,37;4,46;5,19;4,46;5,19;0;0;
19009;-11,74;-5,79;-11,74;-5,79;4,74;5,92;4,74;5,92;0;0;
19056;-23,9;-6,93;-23,9;-6,93;4,38;5,6;4,38;5,6;0;0;
19099;-14,88;-6,39;-14,88;-6,39;4,15;5,36;4,15;5,36;0;0;
19164;-17,67;0,2;-17,67;0,2;3,92;5,22;3,92;5,22;0;0;
19212;-4,57;-9,1;-4,57;-9,1;4,86;5,3;4,86;5,3;0;0;
19268;-19,43;-12,44;-19,43;-12,44;5,98;4,37;5,98;4,37;0;0;
19324;-23,61;-24,09;-23,61;-24,09;5,29;4,33;5,29;4,33;0;0;
19386;-26,68;-16,58;-26,68;-16,58;6,23;5,97;6,23;5,97;0;0;
19430;-21,43;-20,3;-21,43;-20,3;6,63;7,51;6,63;7,51;0;0;
19481;-19,34;-7,82;-19,34;-7,82;6,45;7,17;6,45;7,17;0;0;
19526;-19,74;5,14;-19,74;5,14;6,46;8,32;6,46;8,32;0;0;
19590;-16,63;-38,44;-16,63;-38,44;5,92;9,07;5,92;9,07;0;0;
19639;-11,18;-9,68;-11,18;-9,68;6,18;9,38;6,18;9,38;0;0;
19691;-12,59;-53,14;-12,59;-53,14;6,13;9,6;6,13;9,6;0;0;
19736;-16,96;5,46;-16,96;5,46;5,55;10,01;5,55;10,01;1;0;
19804;-193,45;-32,16;-193,45;-32,16;19,6;11,63;19,6;11,63;1;0;
19848;169,56;19,32;169,56;19,32;49,35;15,61;49,35;15,61;1;0;
19909;42,78;50,14;42,78;50,14;55,77;17,48;55,77;17,48;0;0;
19964;-0,68;-7,05;-0,68;-7,05;56,8;24,18;56,8;24,18;0;0;
20026;-19,31;16,14;-19,31;16,14;56,46;24,01;56,46;24,01;0;0;
20082;-25,22;-54,81;-25,22;-54,81;51,62;26,53;51,62;26,53;0;0;
20126;-31,66;-16,33;-31,66;-16,33;26,28;28,51;26,28;28,51;0;0;
20181;-19,97;-25,36;-19,97;-25,36;13,29;25,72;13,29;25,72;0;0;
20240;-26,69;-13,16;-26,69;-13,16;8,32;19,92;8,32;19,92;0;0;
20328;-7,82;-10,14;-7,82;-10,14;7,75;15,86;7,75;15,86;0;0;
20382;-17,37;-3,2;-17,37;-3,2;6,69;13,79;6,69;13,79;0;0;
20474;-28,72;-2,23;-28,72;-2,23;6,3;8,85;6,3;8,85;0;0;
20519;-19,14;-7,18;-19,14;-7,18;5,79;5,41;5,79;5,41;0;0;
20579;-17,75;-14,11;-17,75;-14,11;5,66;4,59;5,66;4,59;0;0;
20632;-9,28;-10,41;-9,28;-10,41;5,65;3,95;5,65;3,95;0;0;
20717;-11,52;-3,41;-11,52;-3,41;5,18;4,8;5,18;4,8;0;0;
20762;-14,66;-12,79;-14,66;-12,79;4,74;4,56;4,74;4,56;0;0;
20813;-20,81;-3,25;-20,81;-3,25;4,15;5,32;4,15;5,32;0;0;
20858;-20,96;2,19;-20,96;2,19;4,1;5,33;4,1;5,33;0;0;
20917;-18,96;-4,71;-18,96;-4,71;4,03;5,59;4,03;5,59;0;0;
20981;-22,87;-19,53;-22,87;-19,53;4,15;5,57;4,15;5,57;0;0;
21031;-19,46;-8,12;-19,46;-8,12;4,1;5,94;4,1;5,94;0;0;
21076;-24,48;-13,95;-24,48;-13,95;4,51;5,55;4,51;5,55;0;0;
21135;-19,74;-11,05;-19,74;-11,05;5,34;4,78;5,34;4,78;0;0;
21182;-21,26;-58,39;-21,26;-58,39;4,93;6,26;4,93;6,26;0;0;
21225;-25,82;-5,94;-25,82;-5,94;5,02;6,57;5,02;6,57;0;0;
21272;-12,3;-2,77;-12,3;-2,77;5,67;5,18;5,67;5,18;0;0;
21331;-20,21;-13,04;-20,21;-13,04;5,39;6,5;5,39;6,5;0;0;
21401;-17,58;-12,36;-17,58;-12,36;5,43;7,91;5,43;7,91;0;0;
21456;-13,31;-8,62;-13,31;-8,62;4,84;8,55;4,84;8,55;0;0;
21510;-22,74;-11,65;-22,74;-11,65;5,14;7,53;5,14;7,53;0;0;
21574;-1,39;-61,45;-1,39;-61,45;4,78;12,34;4,78;12,34;1;0;
21638;-3,01;-60,71;-3,01;-60,71;6,96;15,88;6,96;15,88;1;0;
21722;-130,73;-16,48;-130,73;-16,48;27,29;16,55;27,29;16,55;1;0;
21773;138,67;-39,22;138,67;-39,22;50,91;20,23;50,91;20,23;0;0;
21843;-36,11;-21,23;-36,11;-21,23;53,76;24,35;53,76;24,35;0;0;
21893;-34,32;-1,31;-34,32;-1,31;54,05;24,78;54,05;24,78;0;0;
21950;-31,59;-24,38;-31,59;-24,38;57,29;20,33;57,29;20,33;0;0;
21997;-16,37;12,47;-16,37;12,47;47,88;19,41;47,88;19,41;0;0;
22058;-1,56;-12,73;-1,56;-12,73;23,55;17;23,55;17;0;0;
22106;-10,9;-15,13;-10,9;-15,13;11,27;13,04;11,27;13,04;0;0;
22155;-20,2;4,79;-20,2;4,79;9,39;9,22;9,39;9,22;0;0;
22202;-23,59;-9,82;-23,59;-9,82;7,64;7,11;7,64;7,11;0;0;
22295;-13,48;-10,3;-13,48;-10,3;5,14;5,05;5,14;5,05;0;0;
22345;-23,26;-1,44;-23,26;-1,44;5,6;4,72;5,6;4,72;0;0;
22393;-11,59;-6,95;-11,59;-6,95;5,28;4,49;5,28;4,49;0;0;
22440;-21,05;-11,71;-21,05;-11,71;6,11;3,94;6,11;3,94;0;0;
22505;-4,16;-9,97;-4,16;-9,97;5,16;3,95;5,16;3,95;0;0;
22552;-14,12;-7,8;-14,12;-7,8;4,9;3,91;4,9;3,91;0;0;
22599;-18,07;-14,64;-18,07;-14,64;4,95;4,17;4,95;4,17;0;0;
22644;-22,28;-12,05;-22,28;-12,05;4,86;3,71;4,86;3,71;0;0;
22703;-12,63;-4,8;-12,63;-4,8;4,2;4,11;4,2;4,11;0;0;
22761;-12,24;-9,2;-12,24;-9,2;4,17;3,72;4,17;3,72;0;0;
22808;-26,43;-2,4;-26,43;-2,4;4,24;3,54;4,24;3,54;0;0;
22856;-16,39;-5;-16,39;-5;4,52;5,36;4,52;5,36;0;0;
22921;-18,51;6,16;-18,51;6,16;4,39;5,25;4,39;5,25;0;0;
22967;-22,02;-15,78;-22,02;-15,78;4,26;6,01;4,26;6,01;0;0;
23020;-6,12;-1,3;-6,12;-1,3;4,84;7,01;4,84;7,01;0;0;
23067;-11,49;-21,17;-11,49;-21,17;4,87;7,59;4,87;7,59;0;0;
23129;-23,04;-15,5;-23,04;-15,5;4,65;8,12;4,65;8,12;0;0;
23198;-23,17;1,77;-23,17;1,77;4,74;7,23;4,74;7,23;0;0;
23251;-10,49;18,05;-10,49;18,05;5,39;7,93;5,39;7,93;0;0;
23298;-16,48;-35,15;-16,48;-35,15;6,69;8,19;6,69;8,19;1;0;
23367;-12,98;-45,43;-12,98;-45,43;6,45;13,62;6,45;13,62;1;0;
23415;-14,73;28,98;-14,73;28,98;7,19;16,88;7,19;16,88;1;0;
23458;-11,35;19,34;-11,35;19,34;7,76;18,43;7,76;18,43;1;0;
23508;-9,06;-0,32;-9,06;-0,32;7,12;20,31;7,12;20,31;1;0;
23569;-65,31;31,58;-65,31;31,58;25,42;26,36;25,42;26,36;1;0;
23627;5,05;42,58;5,05;42,58;30,25;30,25;30,25;30,25;0;0;
23680;-68,25;22,3;-68,25;22,3;35,64;30,28;35,64;30,28;0;0;
23728;-6,6;32,37;-6,6;32,37;36,18;32,95;36,18;32,95;0;0;
23794;-11,97;-6,82;-11,97;-6,82;35,45;30,93;35,45;30,93;0;0;
23849;-9,3;-13,88;-9,3;-13,88;30,52;26,47;30,52;26,47;0;0;
23897;-28;-1,65;-28;-1,65;14,39;19,53;14,39;19,53;0;0;
23946;-25,72;-5,04;-25,72;-5,04;10,69;11,06;10,69;11,06;0;0;
24013;-19,82;1,63;-19,82;1,63;6,02;7,52;6,02;7,52;0;0;
24068;-10,8;-6,78;-10,8;-6,78;7,3;4,97;7,3;4,97;0;0;
24115;-15,71;-10,1;-15,71;-10,1;8,58;4,99;8,58;4,99;0;0;
24161;-9,82;-2,42;-9,82;-2,42;9,07;5,54;9,07;5,54;0;0;
24229;-2,29;-3,88;-2,29;-3,88;10,1;5,07;10,1;5,07;0;0;
24274;3,81;-9,19;3,81;-9,19;10,4;5,36;10,4;5,36;0;0;
24322;-14,28;-4,25;-14,28;-4,25;9,04;5,33;9,04;5,33;0;0;
24367;-10,4;-2,96;-10,4;-2,96;8,09;5,09;8,09;5,09;0;0;
24440;-16,61;-12,54;-16,61;-12,54;9,47;5,81;9,47;5,81;0;0;
24483;-20,85;-37,74;-20,85;-37,74;9,8;5,57;9,8;5,57;0;0;
24530;-5,44;-6,06;-5,44;-6,06;9,53;5,17;9,53;5,17;0;0;
24575;-6,19;-16,91;-6,19;-16,91;9,41;5,3;9,41;5,3;0;0;
24637;-4,52;0,31;-4,52;0,31;9,58;5,35;9,58;5,35;0;0;
24684;-24,96;5,22;-24,96;5,22;8,2;5,84;8,2;5,84;0;0;
24729;-31,2;-8,53;-31,2;-8,53;7,4;5,49;7,4;5,49;0;0;
24776;-8,29;-5,68;-8,29;-5,68;6,09;4,4;6,09;4,4;0;0;
24829;-24,47;-8,39;-24,47;-8,39;6,78;4,36;6,78;4,36;0;0;
24888;-17,06;-17,98;-17,06;-17,98;7,82;5,19;7,82;5,19;0;0;
24933;-8,59;-14,67;-8,59;-14,67;8,23;6,71;8,23;6,71;0;0;
24981;-17,38;6,43;-17,38;6,43;8,42;6,49;8,42;6,49;0;0;
25035;-13,13;-4,22;-13,13;-4,22;7,6;6,95;7,6;6,95;0;0;
25109;-18,06;0,77;-18,06;0,77;8,3;7;8,3;7;1;0;
25160;-16,17;-18,04;-16,17;-18,04;6,87;9,38;6,87;9,38;1;0;
25207;-1,99;71,27;-1,99;71,27;6,08;11,85;6,08;11,85;1;0;
25259;-26,39;-22,16;-26,39;-22,16;6,2;18,6;6,2;18,6;1;0;
25321;80,64;-37,96;80,64;-37,96;25,05;21,79;25,05;21,79;1;0;
25368;-20,32;-6,98;-20,32;-6,98;31,25;23,79;31,25;23,79;1;0;
25424;-32,57;-169,42;-32,57;-169,42;33,7;34,76;33,7;34,76;1;0;
25479;-12,32;8;-12,32;8;35,44;41,07;35,44;41,07;0;0;
25544;-23,8;-5,25;-23,8;-5,25;35,64;33,44;35,64;33,44;0;0;
25589;-3,35;-15,8;-3,35;-15,8;31,84;28,98;31,84;28,98;0;0;
25639;-4,07;-18,44;-4,07;-18,44;13,47;25,39;13,47;25,39;0;0;
25692;-7,07;2,33;-7,07;2,33;9,82;21,24;9,82;21,24;0;0;
25781;-11,23;-8,82;-11,23;-8,82;9,5;9,54;9,5;9,54;0;0;
25846;-31,52;7,13;-31,52;7,13;8,86;6,41;8,86;6,41;0;0;
25927;-13,04;-5,24;-13,04;-5,24;7,92;7,17;7,92;7,17;0;0;
26025;-20,13;-11,86;-20,13;-11,86;7,13;7,06;7,13;7,06;0;0;
26085;-16,07;1,81;-16,07;1,81;6,93;7,59;6,93;7,59;0;0;
26142;-36,79;-6,45;-36,79;-6,45;7,78;5,93;7,78;5,93;0;0;
26214;-16,3;-8,66;-16,3;-8,66;7,6;6,42;7,6;6,42;0;0;
26265;-14,93;-14,88;-14,93;-14,88;6,88;6,44;6,88;6,44;0;0;
26313;-18,38;-8,89;-18,38;-8,89;7,14;7,3;7,14;7,3;0;0;
26362;-0,44;0,21;-0,44;0,21;7,54;6,76;7,54;6,76;0;0;
26433;-13,47;-6,74;-13,47;-6,74;7,43;6,66;7,43;6,66;0;0;
26481;-14,24;-17,93;-14,24;-17,93;7,18;6,18;7,18;6,18;0;0;
26529;-24,18;-3,82;-24,18;-3,82;7,26;5,41;7,26;5,41;0;0;
26577;-19,95;-6,83;-19,95;-6,83;7,61;4,26;7,61;4,26;0;0;
26636;-11,98;-5,08;-11,98;-5,08;7,28;3,38;7,28;3,38;0;0;
26687;-5,96;-1,16;-5,96;-1,16;6,04;3,52;6,04;3,52;0;0;
26734;-6,97;-4,98;-6,97;-4,98;6,06;3,99;6,06;3,99;0;0;
26792;-11,88;9,39;-11,88;9,39;6,09;4,53;6,09;4,53;0;0;
26858;-14,01;-7,02;-14,01;-7,02;6,2;5,05;6,2;5,05;1;0;
26904;-11,41;-37,84;-11,41;-37,84;6,36;6,31;6,36;6,31;1;0;
26950;-39,65;-102,61;-39,65;-102,61;6,42;8,12;6,42;8,12;1;0;
26995;-0,14;-24,09;-0,14;-24,09;7,08;12,89;7,08;12,89;1;0;
27068;65,31;-31,94;65,31;-31,94;18,07;16,68;18,07;16,68;1;0;
27115;-7,11;-12,44;-7,11;-12,44;36,75;17,59;36,75;17,59;1;0;
27168;-72,64;-26,62;-72,64;-26,62;43,96;20,89;43,96;20,89;1;0;
27214;-23,63;36,17;-23,63;36,17;43,76;32,44;43,76;32,44;0;0;
27274;-42,73;-1,47;-42,73;-1,47;45,37;30,49;45,37;30,49;0;0;
27320;-29,66;-30,81;-29,66;-30,81;41,11;26,89;41,11;26,89;0;0;
27375;-4,99;-12,67;-4,99;-12,67;21,17;23,97;21,17;23,97;0;0;
27425;-20,94;-20,68;-20,94;-20,68;13,66;21,96;13,66;21,96;0;0;
27492;-7,49;2,89;-7,49;2,89;9;13,68;9;13,68;0;0;
27542;-42,36;-21,71;-42,36;-21,71;8,94;8,51;8,94;8,51;0;0;
27586;-16,72;-12,26;-16,72;-12,26;7,25;8,36;7,25;8,36;0;0;
27639;-16,86;1,44;-16,86;1,44;6,29;8,16;6,29;8,16;0;0;
27701;-3,92;-1,38;-3,92;-1,38;6,77;9,25;6,77;9,25;0;0;
27748;-9,8;-4,74;-9,8;-4,74;6,86;9,11;6,86;9,11;0;0;
27794;-16,11;-2,91;-16,11;-2,91;6,5;7,81;6,5;7,81;0;0;
27845;-16,95;-14,99;-16,95;-14,99;6,44;6,74;6,44;6,74;0;0;
27913;-9,65;-17,21;-9,65;-17,21;5,71;7,18;5,71;7,18;0;0;
27963;-17,67;-5,4;-17,67;-5,4;5,69;6,05;5,69;6,05;0;0;
28009;-7,95;-11,35;-7,95;-11,35;4,97;6,3;4,97;6,3;0;0;
28056;-13,27;-10,14;-13,27;-10,14;5,21;5,13;5,21;5,13;0;0;
28123;-12,33;-44,23;-12,33;-44,23;4,96;17,79;4,96;17,79;0;0;
28171;-19,1;-31,85;-19,1;-31,85;4,82;18,1;4,82;18,1;0;0;
28218;-26,19;-9,39;-26,19;-9,39;5,19;17,46;5,19;17,46;0;0;
28263;-20,94;-16,67;-20,94;-16,67;4,95;16,84;4,95;16,84;0;0;
28332;-17,12;-37,39;-17,12;-37,39;5,35;20,6;5,35;20,6;0;0;
28381;-27,14;11,21;-27,14;11,21;5,13;15,84;5,13;15,84;0;0;
28425;-17,99;-34,64;-17,99;-34,64;6,28;9,25;6,28;9,25;0;0;
28477;-5,4;-6,39;-5,4;-6,39;6,45;8,48;6,45;8,48;0;0;
28540;-23,83;-7,05;-23,83;-7,05;7;8,9;7;8,9;0;0;
28588;-18,59;-13,18;-18,59;-13,18;7,8;6,28;7,8;6,28;0;0;
28635;-27,91;4,02;-27,91;4,02;7,7;5,71;7,7;5,71;1;0;
28689;-14,64;2,51;-14,64;2,51;7,66;5,54;7,66;5,54;1;0;
28754;-34,66;-51,6;-34,66;-51,6;8,1;14,21;8,1;14,21;1;0;
28803;-19,47;-0,46;-19,47;-0,46;8,79;26,07;8,79;26,07;1;0;
28855;84,5;3,1;84,5;3,1;28,88;29,3;28,88;29,3;1;0;
28914;-202,47;-10,57;-202,47;-10,57;36,12;34,48;36,12;34,48;0;0;
28986;-17,23;51,67;-17,23;51,67;38,27;38,48;38,27;38,48;0;0;
29051;7,34;29,54;7,34;29,54;38,6;40,6;38,6;40,6;0;0;
29104;-18,31;-3,5;-18,31;-3,5;37,67;32,07;37,67;32,07;0;0;
29165;-7,11;-2,86;-7,11;-2,86;34,47;24,05;34,47;24,05;0;0;
29231;-24,39;-15,77;-24,39;-15,77;15,7;20,69;15,7;20,69;0;0;
29281;-24,49;-0,49;-24,49;-0,49;10,44;16,54;10,44;16,54;0;0;
29329;-12,88;19,96;-12,88;19,96;9,76;12,13;9,76;12,13;0;0;
29384;-13,41;-6,81;-13,41;-6,81;8,87;9,14;8,87;9,14;0;0;
29447;-17,63;-8,61;-17,63;-8,61;7,29;7,73;7,29;7,73;0;0;
29493;-25,02;-10,45;-25,02;-10,45;6,86;7,32;6,86;7,32;0;0;
29540;-13,9;-1,03;-13,9;-1,03;5,93;6,79;5,93;6,79;0;0;
29595;-7,34;1,14;-7,34;1,14;5,49;7,43;5,49;7,43;0;0;
29663;-15,18;-16,46;-15,18;-16,46;5,89;5,73;5,89;5,73;0;0;
29715;-6,16;-13,49;-6,16;-13,49;6,1;5,39;6,1;5,39;0;0;
29766;-10,18;-12,36;-10,18;-12,36;6,52;5,7;6,52;5,7;0;0;
29814;-3,46;-10,77;-3,46;-10,77;6,86;6,15;6,86;6,15;0;0;
29876;-29;-7,51;-29;-7,51;6,32;5;6,32;5;0;0;
29922;-17,99;-8,83;-17,99;-8,83;5,94;4,93;5,94;4,93;0;0;
29974;-10,92;-4,33;-10,92;-4,33;5,93;4,81;5,93;4,81;0;0;
30030;-21,21;-2,76;-21,21;-2,76;4,92;5,66;4,92;5,66;0;0;
30097;-20,63;-6,66;-20,63;-6,66;4,77;4,61;4,77;4,61;0;0;
30148;-14,84;-6,68;-14,84;-6,68;3,91;4,96;3,91;4,96;0;0;
30201;-18,43;-9,39;-18,43;-9,39;4,04;4,69;4,04;4,69;0;0;
30245;-6,44;-18,4;-6,44;-18,4;4,76;5,29;4,76;5,29;0;0;
30316;-17,61;-5,14;-17,61;-5,14;5,03;5,59;5,03;5,59;0;0;
30365;-22,4;-8,05;-22,4;-8,05;4,94;4,48;4,94;4,48;0;0;
30413;-11,18;1,8;-11,18;1,8;4,89;4,36;4,89;4,36;0;0;
30466;-13,37;5,24;-13,37;5,24;4,49;4,81;4,49;4,81;1;0;
30527;-22,14;158,03;-22,14;158,03;5,14;15,3;5,14;15,3;1;0;
30578;-26,9;-4,91;-26,9;-4,91;11,17;16,09;11,17;16,09;1;0;
30625;-81,31;-23,76;-81,31;-23,76;30,98;19,13;30,98;19,13;1;0;
30673;93,68;24,69;93,68;24,69;38,03;28,39;38,03;28,39;0;0;
30742;4,15;37,01;4,15;37,01;45,79;32,09;45,79;32,09;0;0;
30805;-33,46;-105,67;-33,46;-105,67;46,21;38,4;46,21;38,4;0;0;
30853;29,51;-14,5;29,51;-14,5;46,76;31,32;46,76;31,32;0;0;
30905;-18,01;-20,2;-18,01;-20,2;37,53;28,68;37,53;28,68;0;0;
30967;-14,26;36,69;-14,26;36,69;21,4;28,64;21,4;28,64;0;0;
31017;-8,13;6,74;-8,13;6,74;16,74;22,74;16,74;22,74;0;0;
31062;-10,05;-7,6;-10,05;-7,6;15,67;19,25;15,67;19,25;0;0;
31112;-7,8;-4,23;-7,8;-4,23;14,45;13,24;14,45;13,24;0;0;
31176;-9,71;-24,5;-9,71;-24,5;13,09;14,55;13,09;14,55;0;0;
31225;-22,24;-12,77;-22,24;-12,77;12,85;10,72;12,85;10,72;0;0;
31276;-19,15;-0,56;-19,15;-0,56;8,73;7,53;8,73;7,53;0;0;
31325;-17,84;-15,32;-17,84;-15,32;5,84;7,61;5,84;7,61;0;0;
31389;-15,1;-3,51;-15,1;-3,51;6,53;6,89;6,53;6,89;0;0;
31438;-21,72;-2,68;-21,72;-2,68;5,5;6,74;5,5;6,74;0;0;
31488;-16,93;-7,42;-16,93;-7,42;4,83;5,53;4,83;5,53;0;0;
31535;-5,53;-7,09;-5,53;-7,09;6,25;5,48;6,25;5,48;0;0;
31597;-24,01;-8,42;-24,01;-8,42;8,02;6,43;8,02;6,43;0;0;
31644;-27,37;-1,35;-27,37;-1,35;8,71;6,6;8,71;6,6;0;0;
31696;7,43;-18,61;7,43;-18,61;9,41;7,55;9,41;7,55;0;0;
31740;-25,34;-13,13;-25,34;-13,13;9,4;6,41;9,4;6,41;0;0;
31808;-16,56;-19,18;-16,56;-19,18;8,67;6,58;8,67;6,58;0;0;
31853;-9,37;-4,98;-9,37;-4,98;7,73;6,08;7,73;6,08;0;0;
31900;-4,43;-1,02;-4,43;-1,02;6,7;5,08;6,7;5,08;0;0;
31945;-15,86;-18,18;-15,86;-18,18;6,43;4,48;6,43;4,48;0;0;
32010;-15,86;0,16;-15,86;0,16;7,68;5,55;7,68;5,55;0;0;
32055;-19,3;-8,38;-19,3;-8,38;7,82;5,33;7,82;5,33;0;0;
32113;-10,81;-11,73;-10,81;-11,73;9,77;6,92;9,77;6,92;0;0;
32170;-23,32;-11,68;-23,32;-11,68;10,02;7,38;10,02;7,38;0;0;
32231;-28,56;20,8;-28,56;20,8;10,47;11,42;10,47;11,42;0;0;
32278;-10,89;3,51;-10,89;3,51;9,11;12,58;9,11;12,58;1;0;
32323;15,18;-28,63;15,18;-28,63;11,19;14,82;11,19;14,82;1;0;
32376;-162,38;-78,32;-162,38;-78,32;33,71;19,14;33,71;19,14;1;0;
32440;-6,06;-41,42;-6,06;-41,42;49,02;22,48;49,02;22,48;1;0;
32491;8,66;-2,12;8,66;-2,12;53,59;20,79;53,59;20,79;1;0;
32549;14,14;-5,44;14,14;-5,44;57,29;20,32;57,29;20,32;1;0;
32601;-6,98;18,85;-6,98;18,85;56,89;22,68;56,89;22,68;0;0;
32664;-22,36;2,91;-22,36;2,91;50,89;20,71;50,89;20,71;0;0;
32713;-17,6;-12,67;-17,6;-12,67;25,05;15,51;25,05;15,51;0;0;
32765;-21,95;-13,15;-21,95;-13,15;13,44;12,36;13,44;12,36;0;0;
32824;-24,64;-9,11;-24,64;-9,11;9,47;10,74;9,47;10,74;0;0;
32890;-16,02;-3,1;-16,02;-3,1;7,14;6,05;7,14;6,05;0;0;
32946;-19,31;-3,26;-19,31;-3,26;6,62;3,79;6,62;3,79;0;0;
33001;-18,38;-28,92;-18,38;-28,92;6,5;4,01;6,5;4,01;0;0;
33049;-5,29;-0,61;-5,29;-0,61;7,2;4,46;7,2;4,46;0;0;
33112;-7,84;-12,2;-7,84;-12,2;6,12;5,94;6,12;5,94;0;0;
33158;-14,75;-21,29;-14,75;-21,29;5,93;7,2;5,93;7,2;1;0;
33205;-7,13;-24,02;-7,13;-24,02;6,36;8,78;6,36;8,78;1;0;
33250;-25,71;-6,99;-25,71;-6,99;6,44;13,71;6,44;13,71;1;0;
33309;-84,21;10,24;-84,21;10,24;20,07;14,22;20,07;14,22;1;0;
33364;-90,1;-47,07;-90,1;-47,07;30,39;16,65;30,39;16,65;1;0;
33409;-47,55;-9,09;-47,55;-9,09;37,83;18,73;37,83;18,73;1;0;
33454;-43,28;-4,94;-43,28;-4,94;50,71;20,69;50,71;20,69;1;0;
33516;-25,27;-0,38;-25,27;-0,38;50,39;19,03;50,39;19,03;0;0;
33562;-8,08;-3,4;-8,08;-3,4;45,56;18,77;45,56;18,77;0;0;
33608;-19,87;-40,49;-19,87;-40,49;34,63;19,53;34,63;19,53;0;0;
33653;-26,01;-0,87;-26,01;-0,87;21,6;15,83;21,6;15,83;0;0;
33700;-27,25;-1,26;-27,25;-1,26;13,04;13,16;13,04;13,16;0;0;
33772;-3,28;-8,53;-3,28;-8,53;7,26;12,15;7,26;12,15;0;0;
33838;-20,75;-12,25;-20,75;-12,25;7,19;9,51;7,19;9,51;0;0;
33896;-20,47;-15,79;-20,47;-15,79;7,23;6,07;7,23;6,07;0;0;
33943;0,36;-6,56;0,36;-6,56;7,32;5;7,32;5;0;0;
34002;-20,83;-12,72;-20,83;-12,72;6,44;4,33;6,44;4,33;0;0;
34057;-22,1;2,42;-22,1;2,42;5,88;5,68;5,88;5,68;0;0;
34105;-11,66;-31,05;-11,66;-31,05;5,52;6,17;5,52;6,17;0;0;
34149;-28,01;-7,14;-28,01;-7,14;6,14;6,35;6,14;6,35;0;0;
34216;-8,21;4,42;-8,21;4,42;5,92;6,57;5,92;6,57;0;0;
34264;-17,21;-19,02;-17,21;-19,02;5,47;7,8;5,47;7,8;1;0;
34310;-24,22;-15,97;-24,22;-15,97;5,4;7,32;5,4;7,32;1;0;
34360;-14,21;-30,3;-14,21;-30,3;5,36;10,02;5,36;10,02;1;0;
34422;-141,49;5,27;-141,49;5,27;16,67;12,68;16,67;12,68;1;0;
34466;101,38;21,64;101,38;21,64;34,52;18,03;34,52;18,03;1;0;
34512;50,68;35,48;50,68;35,48;39,77;20,71;39,77;20,71;1;0;
34562;-18,78;-3,76;-18,78;-3,76;43,55;21,25;43,55;21,25;1;0;
34630;-11,06;-65,96;-11,06;-65,96;43,57;24,32;43,57;24,32;0;0;
34676;-17,14;-17,07;-17,14;-17,07;39,32;28,52;39,32;28,52;0;0;
34722;-11,74;-24,8;-11,74;-24,8;23,56;29,22;23,56;29,22;0;0;
34770;-11,15;-37,64;-11,15;-37,64;12,67;24,97;12,67;24,97;0;0;
34834;-13,14;-5,69;-13,14;-5,69;7,69;23,38;7,69;23,38;0;0;
34887;-14,85;-2,08;-14,85;-2,08;5,76;22,49;5,76;22,49;0;0;
34941;-18,56;3,45;-18,56;3,45;6,28;16,81;6,28;16,81;1;0;
34991;-15,78;-14,35;-15,78;-14,35;5,73;12,67;5,73;12,67;1;0;
35061;-27,42;-67,97;-27,42;-67,97;6,22;10,75;6,22;10,75;1;0;
35109;-7,08;-35,71;-7,08;-35,71;6,43;10,7;6,43;10,7;1;0;
35158;-24,06;73,18;-24,06;73,18;6,64;14,09;6,64;14,09;1;0;
35209;-4,27;-5,78;-4,27;-5,78;17,27;15,73;17,27;15,73;1;0;
35279;24,85;-92,23;24,85;-92,23;33,63;20,06;33,63;20,06;0;0;
35325;-82,76;-2,55;-82,76;-2,55;41,75;22,59;41,75;22,59;0;0;
35372;4,23;28,74;4,23;28,74;42,44;24,63;42,44;24,63;0;0;
35426;-22,36;-24,87;-22,36;-24,87;42,66;27,8;42,66;27,8;0;0;
35485;-29,91;-7,34;-29,91;-7,34;39,91;29,62;39,91;29,62;0;0;
35535;-26,63;-0,6;-26,63;-0,6;26,13;28,84;26,13;28,84;0;0;
35585;-3,4;-30,73;-3,4;-30,73;15,84;27,26;15,84;27,26;0;0;
35632;-7,99;-0,47;-7,99;-0,47;10,96;25,15;10,96;25,15;0;0;
35692;-3,85;-6,44;-3,85;-6,44;10,4;22,41;10,4;22,41;0;0;
35738;-19,29;-5,65;-19,29;-5,65;9,24;18,48;9,24;18,48;0;0;
35784;-10,53;-15,84;-10,53;-15,84;7,57;13,58;7,57;13,58;0;0;
35836;-14,06;-17,76;-14,06;-17,76;5,96;12,78;5,96;12,78;1;0;
35885;-16,95;-0,55;-16,95;-0,55;4,43;8,71;4,43;8,71;1;0;
35957;-18,59;0,99;-18,59;0,99;4,42;8,45;4,42;8,45;1;0;
36004;-9,33;8,86;-9,33;8,86;4,42;8,82;4,42;8,82;1;0;
36047;-13,4;-10,87;-13,4;-10,87;9,48;9,75;9,48;9,75;1;0;
36097;-26,47;-34,73;-26,47;-34,73;31,77;11,83;31,77;11,83;1;0;
36160;-40,95;-22;-40,95;-22;39,34;12,92;39,34;12,92;0;0;
36222;3,47;-6,93;3,47;-6,93;45,19;12,94;45,19;12,94;0;0;
36277;-16,34;-42,02;-16,34;-42,02;45,48;21,14;45,48;21,14;0;0;
36325;-27,1;-8,18;-27,1;-8,18;42,86;23,2;42,86;23,2;0;0;
36388;-28,95;22,26;-28,95;22,26;31,56;24,95;31,56;24,95;0;0;
36434;-16,22;-28,18;-16,22;-28,18;18,13;25,89;18,13;25,89;0;0;
36481;-5,31;-6,13;-5,31;-6,13;9,94;30,75;9,94;30,75;0;0;
36527;-18,19;-3,66;-18,19;-3,66;7,82;28,84;7,82;28,84;0;0;
36592;-23,48;-9,75;-23,48;-9,75;8,02;21,15;8,02;21,15;0;0;
36638;-17,92;13,08;-17,92;13,08;7,56;19,1;7,56;19,1;0;0;
36692;-18,39;9,59;-18,39;9,59;7,1;15,34;7,1;15,34;1;0;
36747;-17,98;-16,68;-17,98;-16,68;7,32;12,65;7,32;12,65;1;0;
36810;-16,93;-41,61;-16,93;-41,61;7,29;10,34;7,29;10,34;1;0;
36855;-24,32;-7,64;-24,32;-7,64;7,22;11,94;7,22;11,94;1;0;
36900;30,41;-17,98;30,41;-17,98;14,06;13,13;14,06;13,13;1;0;
36953;-14,82;-48,38;-14,82;-48,38;38,3;18,32;38,3;18,32;1;0;
37016;32,63;12,71;32,63;12,71;44,35;19,96;44,35;19,96;1;0;
37067;71,01;-57,1;71,01;-57,1;55,81;29,6;55,81;29,6;0;0;
37118;-23,69;-119,65;-23,69;-119,65;55,77;33,34;55,77;33,34;0;0;
37167;-25,6;16,93;-25,6;16,93;49,45;36,8;49,45;36,8;0;0;
37232;-34,15;-16,99;-34,15;-16,99;35,14;37,78;35,14;37,78;0;0;
37284;-38,73;-1,35;-38,73;-1,35;20,93;36,02;20,93;36,02;0;0;
37332;-17,02;26,02;-17,02;26,02;15,9;34,05;15,9;34,05;0;0;
37380;-23,64;22,32;-23,64;22,32;8,82;32,2;8,82;32,2;0;0;
37444;-26,67;123,88;-26,67;123,88;8,51;29,34;8,51;29,34;0;0;
37494;-25,74;89,06;-25,74;89,06;8,65;31,28;8,65;31,28;0;0;
37543;-34,56;-16,16;-34,56;-16,16;8,84;30,47;8,84;30,47;0;0;
37588;-19,84;-16,53;-19,84;-16,53;7,23;30,34;7,23;30,34;0;0;
37654;-16,08;13,68;-16,08;13,68;6,22;25,96;6,22;25,96;1;0;
37701;-16,02;-13,55;-16,02;-13,55;5,85;26,99;5,85;26,99;1;0;
37746;-15,63;21,2;-15,63;21,2;5,84;25,65;5,84;25,65;1;0;
37792;-5,29;30,63;-5,29;30,63;5,86;26,5;5,86;26,5;1;0;
37853;-21,96;-4,34;-21,96;-4,34;5,16;26,36;5,16;26,36;1;0;
37904;-133,57;-14,01;-133,57;-14,01;10,42;25,21;10,42;25,21;1;0;
37950;179,23;-5,5;179,23;-5,5;31,31;23,26;31,31;23,26;1;0;
37995;-23,23;-18,41;-23,23;-18,41;35,28;20,05;35,28;20,05;0;0;
38058;-59,67;-12,75;-59,67;-12,75;40,92;16,26;40,92;16,26;0;0;
38105;-33,58;4,99;-33,58;4,99;44,38;16,3;44,38;16,3;0;0;
38155;-37,53;-7,69;-37,53;-7,69;43,17;14,29;43,17;14,29;0;0;
38200;-6,22;-7,39;-6,22;-7,39;31,27;13,24;31,27;13,24;0;0;
38270;-19,06;-25,13;-19,06;-25,13;18,31;12,53;18,31;12,53;0;0;
38320;-16,53;-12,13;-16,53;-12,13;13,42;10,23;13,42;10,23;0;0;
38365;-18,1;-20,53;-18,1;-20,53;8,37;9,84;8,37;9,84;0;0;
38411;-22,67;5,24;-22,67;5,24;7,1;7,16;7,1;7,16;0;0;
38476;-7,66;2,14;-7,66;2,14;5,52;12,4;5,52;12,4;0;0;
38522;0,89;-4,37;0,89;-4,37;6,26;12,56;6,26;12,56;0;0;
38576;-19,45;1,63;-19,45;1,63;6,62;12,33;6,62;12,33;1;0;
38620;-12,65;-16,18;-12,65;-16,18;6,54;12,83;6,54;12,83;1;0;
38691;-15,69;-29,33;-15,69;-29,33;6,77;13,23;6,77;13,23;1;0;
38734;-109,35;-39,27;-109,35;-39,27;19,49;10,47;19,49;10,47;1;0;
38784;-65,66;-3,79;-65,66;-3,79;24,77;10,4;24,77;10,4;1;0;
38839;-26,1;-26,14;-26,1;-26,14;27,78;13,26;27,78;13,26;1;0;
38899;-23,48;-4,47;-23,48;-4,47;27,82;16,26;27,82;16,26;0;0;
38944;-7,2;-16,26;-7,2;-16,26;29,23;17,58;29,23;17,58;0;0;
38990;-15,67;1,77;-15,67;1,77;23,5;17,62;23,5;17,62;0;0;
39041;-12,66;-12,59;-12,66;-12,59;13,17;15,21;13,17;15,21;0;0;
39109;-4,18;-31,44;-4,18;-31,44;8,05;13,38;8,05;13,38;0;0;
39159;-18,99;-16,54;-18,99;-16,54;6,94;11,23;6,94;11,23;0;0;
39207;-22;2,22;-22;2,22;6,04;9,46;6,04;9,46;0;0;
39257;-10,41;-2;-10,41;-2;5,64;8,23;5,64;8,23;0;0;
39323;-11,01;-9,92;-11,01;-9,92;6,01;7,74;6,01;7,74;0;0;
39367;-25,31;-73,54;-25,31;-73,54;5,38;10,17;5,38;10,17;0;0;
39415;-11,67;-15,9;-11,67;-15,9;4,69;9,57;4,69;9,57;0;0;
39462;-9,92;-42,48;-9,92;-42,48;4,49;9,68;4,49;9,68;1;0;
39531;-19,74;-14,2;-19,74;-14,2;4,28;10,06;4,28;10,06;1;0;
39579;-14,13;-4,42;-14,13;-4,42;3,92;11,74;3,92;11,74;1;0;
39627;-12,94;-25,17;-12,94;-25,17;3,76;15,18;3,76;15,18;1;0;
39674;-105,99;-0,51;-105,99;-0,51;11,93;13,24;11,93;13,24;1;0;
39742;-213,26;-90,97;-213,26;-90,97;35,14;15,43;35,14;15,43;1;0;
39789;-24,32;-30,1;-24,32;-30,1;37,95;16,63;37,95;16,63;0;0;
39847;-9,97;-44,15;-9,97;-44,15;40,32;22,85;40,32;22,85;0;0;
39901;22,27;-20,91;22,27;-20,91;42,45;20,1;42,45;20,1;0;0;
39970;-10,69;3,96;-10,69;3,96;40,06;18,84;40,06;18,84;0;0;
40020;-12,12;-14,19;-12,12;-14,19;25,78;17,49;25,78;17,49;0;0;
40065;-16,87;6,91;-16,87;6,91;9,49;15,08;9,49;15,08;0;0;
40111;-13,18;-9,34;-13,18;-9,34;7,15;10,12;7,15;10,12;0;0;
40171;-22,37;-1,18;-22,37;-1,18;5,21;8,19;5,21;8,19;0;0;
40214;-10,42;1,88;-10,42;1,88;4,71;7,37;4,71;7,37;0;0;
40267;-19,94;-2,83;-19,94;-2,83;4,5;7,55;4,5;7,55;0;0;
40313;-15,21;9,91;-15,21;9,91;4,62;10,07;4,62;10,07;0;0;
40379;-12,57;-39,31;-12,57;-39,31;4,9;10,57;4,9;10,57;0;0;
40425;-14,93;-8,26;-14,93;-8,26;5,42;10,15;5,42;10,15;0;0;
40471;-8,87;-16,61;-8,87;-16,61;4,89;10,83;4,89;10,83;0;0;
40524;-14,75;-5,44;-14,75;-5,44;5,26;10,49;5,26;10,49;0;0;
40598;-11,5;-3,01;-11,5;-3,01;5,19;10,24;5,19;10,24;0;0;
40657;-27,66;-3,63;-27,66;-3,63;5,41;6,38;5,41;6,38;0;0;
40707;-20,16;-8,07;-20,16;-8,07;5,33;5,07;5,33;5,07;0;0;
40761;-23,23;-5,9;-23,23;-5,9;5,42;4,3;5,42;4,3;0;0;
40823;-15,3;-15,1;-15,3;-15,1;4,8;4,27;4,8;4,27;0;0;
40879;-16,19;2,68;-16,19;2,68;4,56;4,65;4,56;4,65;0;0;
40925;-24,2;-8,1;-24,2;-8,1;4,7;5,23;4,7;5,23;0;0;
40970;-29,83;-27,38;-29,83;-27,38;4,5;6;4,5;6;0;0;
41037;-17,06;-20,91;-17,06;-20,91;4,57;6,67;4,57;6,67;0;0;
41107;-16,94;-43,83;-16,94;-43,83;4,26;8,34;4,26;8,34;0;0;
41157;-7,67;-24,29;-7,67;-24,29;5,29;9,72;5,29;9,72;0;0;
41206;-27,48;4,94;-27,48;4,94;5,33;12,68;5,33;12,68;1;0;
41278;-19,75;110,72;-19,75;110,72;6,6;21,43;6,6;21,43;1;0;
41324;-32,84;-11,56;-32,84;-11,56;7,58;21,83;7,58;21,83;1;0;
41380;340,59;22,52;340,59;22,52;29,94;26,11;29,94;26,11;1;0;
41426;-37,39;-45,02;-37,39;-45,02;39,16;26,52;39,16;26,52;0;0;
41490;-28,07;32,46;-28,07;32,46;40,77;32,91;40,77;32,91;0;0;
41537;-9,19;-24,04;-9,19;-24,04;40,06;33,48;40,06;33,48;0;0;
41587;-28,66;15,55;-28,66;15,55;39,81;29,05;39,81;29,05;0;0;
41636;-16,24;-0,68;-16,24;-0,68;28,43;27,94;28,43;27,94;0;0;
41698;-6,46;-9,98;-6,46;-9,98;13,58;23,66;13,58;23,66;0;0;
41746;-11,99;-13,83;-11,99;-13,83;7,08;19,18;7,08;19,18;0;0;
41789;-19,89;-17,79;-19,89;-17,79;6,14;10,92;6,14;10,92;0;0;
41833;-22,16;2;-22,16;2;6,09;7,25;6,09;7,25;0;0;
41878;-16,68;-13,78;-16,68;-13,78;5,55;5,82;5,55;5,82;0;0;
41941;-21,35;-4,98;-21,35;-4,98;4,69;5,55;4,69;5,55;0;0;
41990;-11,37;-9,92;-11,37;-9,92;4,08;5,37;4,08;5,37;0;0;
42036;-19,82;-9,36;-19,82;-9,36;3,69;5,29;3,69;5,29;0;0;
42079;-16,29;-7,09;-16,29;-7,09;3,1;5,32;3,1;5,32;0;0;
42139;-17,59;18,64;-17,59;18,64;2,83;5,11;2,83;5,11;0;0;
42190;-21,5;-8,07;-21,5;-8,07;3,49;4,56;3,49;4,56;0;0;
42236;-10,9;-10,66;-10,9;-10,66;3,43;4,92;3,43;4,92;0;0;
42283;-13,55;-6,41;-13,55;-6,41;3,25;5,06;3,25;5,06;0;0;
42351;-9,43;-15,75;-9,43;-15,75;3,69;5,28;3,69;5,28;0;0;
42400;-8,41;1,67;-8,41;1,67;3,87;6,05;3,87;6,05;0;0;
42451;-17,72;-10,69;-17,72;-10,69;3,82;6,4;3,82;6,4;0;0;
42497;-17,69;-6,59;-17,69;-6,59;3,77;6,19;3,77;6,19;0;0;
42558;-15,66;-13,26;-15,66;-13,26;3,89;5,86;3,89;5,86;0;0;
42608;-17,7;-7,75;-17,7;-7,75;3,64;5,18;3,64;5,18;0;0;
42656;-15,53;-13,17;-15,53;-13,17;3,9;5,32;3,9;5,32;0;0;
42703;-12,78;10,72;-12,78;10,72;4,2;7,47;4,2;7,47;0;0;
42780;-20,78;2,46;-20,78;2,46;4,75;9,15;4,75;9,15;0;0;
42829;-16,3;32,61;-16,3;32,61;4,75;13,74;4,75;13,74;0;0;
42881;-14,99;-17,68;-14,99;-17,68;4,94;14,79;4,94;14,79;0;0;
42923;-5,84;-14,15;-5,84;-14,15;4,92;14,96;4,92;14,96;0;0;
42984;-11,24;-33,72;-11,24;-33,72;4,24;16,21;4,24;16,21;0;0;
43032;-17,26;-25,73;-17,26;-25,73;4,36;16,16;4,36;16,16;1;0;
43080;-22,05;-5,02;-22,05;-5,02;4,23;13,26;4,23;13,26;1;0;
43128;-24,87;-39,38;-24,87;-39,38;4,06;12,37;4,06;12,37;1;0;
43197;-16,91;7,89;-16,91;7,89;4,2;11,18;4,2;11,18;1;0;
43243;-11,5;43,87;-11,5;43,87;3,87;18,57;3,87;18,57;1;0;
43296;61,77;-13,62;61,77;-13,62;30,11;17,69;30,11;17,69;1;0;
43349;-11,05;-119,91;-11,05;-119,91;30,79;23,3;30,79;23,3;0;0;
43420;-2,27;27,48;-2,27;27,48;31,57;29,01;31,57;29,01;0;0;
43472;-19,83;-1,65;-19,83;-1,65;31,51;28,08;31,51;28,08;0;0;
43522;-10,81;9,06;-10,81;9,06;32,36;26,01;32,36;26,01;0;0;
43576;-17,22;-18,37;-17,22;-18,37;20,74;21,38;20,74;21,38;0;0;
43648;-13,11;-1,18;-13,11;-1,18;6,49;19,62;6,49;19,62;0;0;
43695;-18,8;-13,29;-18,8;-13,29;6,18;9,78;6,18;9,78;0;0;
43744;-14,92;3,4;-14,92;3,4;5,35;7,66;5,35;7,66;0;0;
43787;-14,18;-17,26;-14,18;-17,26;5,74;6,82;5,74;6,82;0;0;
43850;-13,53;-16,58;-13,53;-16,58;4,95;5,99;4,95;5,99;0;0;
43900;-8,8;-4,34;-8,8;-4,34;5,19;5,5;5,19;5,5;0;0;
43946;-17,89;-6,28;-17,89;-6,28;5,02;5,55;5,02;5,55;0;0;
44000;-18,31;2,35;-18,31;2,35;4,74;5,7;4,74;5,7;0;0;
44065;-16,29;-4,62;-16,29;-4,62;4,92;5,98;4,92;5,98;0;0;
44111;-19,61;-18,09;-19,61;-18,09;4,3;6,43;4,3;6,43;0;0;
44158;-5,95;-9,39;-5,95;-9,39;4,97;7,32;4,97;7,32;0;0;
44212;-10,4;-15,35;-10,4;-15,35;4,53;7,31;4,53;7,31;0;0;
44278;-10,55;-3,48;-10,55;-3,48;5,45;7,61;5,45;7,61;0;0;
44325;-25,02;-20,4;-25,02;-20,4;4,9;7,33;4,9;7,33;0;0;
44375;-12,36;-5,26;-12,36;-5,26;4,92;7,03;4,92;7,03;0;0;
44432;-16,36;-2,37;-16,36;-2,37;4,65;7,16;4,65;7,16;0;0;
44491;-19,72;-11,53;-19,72;-11,53;4,1;6,21;4,1;6,21;0;0;
44538;-25,9;-23,72;-25,9;-23,72;3,63;8,31;3,63;8,31;0;0;
44585;-4,02;-15,44;-4,02;-15,44;3,55;8,83;3,55;8,83;0;0;
44631;-16,7;-9,97;-16,7;-9,97;3,74;9,04;3,74;9,04;0;0;
44694;-26,86;-0,07;-26,86;-0,07;3,45;8,74;3,45;8,74;0;0;
44743;-19,44;-4,23;-19,44;-4,23;4,46;8,23;4,46;8,23;0;0;
44796;-6,04;-5,65;-6,04;-5,65;5,34;8,21;5,34;8,21;0;0;
44848;-11,49;-8,02;-11,49;-8,02;5,1;5,6;5,1;5,6;1;0;
44911;-25,63;-16,89;-25,63;-16,89;4,82;4,64;4,82;4,64;1;0;
44955;-18,76;-45,73;-18,76;-45,73;5,49;9,51;5,49;9,51;1;0;
44999;-48,94;-25,45;-48,94;-25,45;16,64;12,94;16,64;12,94;1;0;
45054;38,03;-11,18;38,03;-11,18;25,99;13,97;25,99;13,97;1;0;
45124;-22,66;9,98;-22,66;9,98;27,25;15,13;27,25;15,13;0;0;
45176;-18,29;13,35;-18,29;13,35;27,69;16,38;27,69;16,38;0;0;
45224;-15,43;-6,37;-15,43;-6,37;27,84;14,97;27,84;14,97;0;0;
45277;-12,61;-33,46;-12,61;-33,46;23,54;12,33;23,54;12,33;0;0;
45344;-0,29;-1,3;-0,29;-1,3;13,92;10,55;13,92;10,55;0;0;
45391;-15,85;-0,02;-15,85;-0,02;6,89;10,03;6,89;10,03;0;0;
45435;-14,7;-2,8;-14,7;-2,8;6,22;9,31;6,22;9,31;0;0;
45483;-13,36;-1,92;-13,36;-1,92;5,86;8,86;5,86;8,86;0;0;
45555;-17,8;-6,8;-17,8;-6,8;6,28;6,76;6,28;6,76;0;0;
45602;-23,64;-0,42;-23,64;-0,42;5,88;5,15;5,88;5,15;0;0;
45654;-21,56;0;-21,56;0;5,15;5,65;5,15;5,65;0;0;
45706;-15,23;-11,17;-15,23;-11,17;5,61;4,92;5,61;4,92;0;0;
45774;-12,6;0;-12,6;0;5,74;4,94;5,74;4,94;0;0;
45824;-15,27;-16,81;-15,27;-16,81;4,7;5,23;4,7;5,23;0;0;
45873;-24,94;-5,13;-24,94;-5,13;5,34;5,27;5,34;5,27;0;0;
45919;-13,52;-27,47;-13,52;-27,47;5,33;6,18;5,33;6,18;0;0;
45990;-26,24;-6,33;-26,24;-6,33;5,21;5,91;5,21;5,91;0;0;
46037;-24,03;-6,66;-24,03;-6,66;4,62;5,55;4,62;5,55;0;0;
46083;-12;-1,19;-12;-1,19;4,42;5,83;4,42;5,83;0;0;
46129;-26,63;-7,08;-26,63;-7,08;4,49;5,24;4,49;5,24;0;0;
46190;-16,33;0;-16,33;0;3,5;5,46;3,5;5,46;0;0;
46235;-11,74;-13,16;-11,74;-13,16;4,24;4,57;4,24;4,57;0;0;
46283;-15,15;-22,82;-15,15;-22,82;4,38;5,32;4,38;5,32;0;0;
46327;-17,16;0,02;-17,16;0,02;4,6;5,13;4,6;5,13;0;0;
46374;-19,65;-1,48;-19,65;-1,48;5,16;5,27;5,16;5,27;0;0;
46434;-26,05;-9,25;-26,05;-9,25;5,38;5,18;5,38;5,18;0;0;
46487;-16,97;-18,43;-16,97;-18,43;5,12;6,34;5,12;6,34;0;0;
46534;-18,49;-13,18;-18,49;-13,18;5;5,85;5;5,85;0;0;
46580;-24,85;-13,02;-24,85;-13,02;5,01;6,21;5,01;6,21;1;0;
46639;-17,21;2,95;-17,21;2,95;4,44;6,18;4,44;6,18;1;0;
46689;-13,79;1,97;-13,79;1,97;4,07;6,32;4,07;6,32;1;0;
46735;-11,76;30,88;-11,76;30,88;4,38;11,07;4,38;11,07;1;0;
46781;-4,72;-14,5;-4,72;-14,5;5,3;18,08;5,3;18,08;1;0;
46842;60,46;1,41;60,46;1,41;23,18;18,87;23,18;18,87;1;0;
46893;-71,73;-117,47;-71,73;-117,47;24,39;31,99;24,39;31,99;1;0;
46939;1,2;-12,1;1,2;-12,1;26,85;32,19;26,85;32,19;0;0;
46987;-12,82;-13,44;-12,82;-13,44;28;32,82;28;32,82;0;0;
47049;-22,48;-6,97;-22,48;-6,97;28,02;25;28,02;25;1;0;
47100;-10;-1,83;-10;-1,83;16,32;24,22;16,32;24,22;1;0;
47171;-23,92;-29,12;-23,92;-29,12;9,77;18,26;9,77;18,26;1;0;
47223;-26,93;3,48;-26,93;3,48;8,28;14,47;8,28;14,47;1;0;
47321;33,88;-9,99;33,88;-9,99;33,41;16,92;33,41;16,92;1;0;
47369;1,57;3,35;1,57;3,35;34,29;17,73;34,29;17,73;0;0;
47417;-21,69;-10,34;-21,69;-10,34;36,29;16,88;36,29;16,88;0;0;
47453;-23,11;55,59;-23,11;55,59;36,11;23,35;36,11;23,35;0;0;
47515;-26,69;-26,3;-26,69;-26,3;34,76;22,29;34,76;22,29;0;0;
47562;-30,97;8,8;-30,97;8,8;18,95;20,25;18,95;20,25;0;0;
47607;-21,37;-2,72;-21,37;-2,72;8,72;18,15;8,72;18,15;0;0;
47654;-15,17;-9,33;-15,17;-9,33;6,93;18,54;6,93;18,54;0;0;
47707;2,26;-5,34;2,26;-5,34;9,52;14,55;9,52;14,55;0;0;
47766;-11,26;5,66;-11,26;5,66;10,6;8,86;10,6;8,86;0;0;
47817;-8,46;-13,5;-8,46;-13,5;10,82;7,93;10,82;7,93;0;0;
47868;-26,17;-12,32;-26,17;-12,32;10,18;8,21;10,18;8,21;0;0;
47914;-8,88;-2,99;-8,88;-2,99;10,52;8,13;10,52;8,13;0;0;
47977;-16,16;-9,18;-16,16;-9,18;8,71;6,47;8,71;6,47;0;0;
48026;-17,28;-4,55;-17,28;-4,55;6,09;6,59;6,09;6,59;0;0;
48083;-23,24;-19,52;-23,24;-19,52;5,43;6,75;5,43;6,75;0;0;
48133;-22,42;-17,36;-22,42;-17,36;4,66;5,93;4,66;5,93;0;0;
48200;-33,91;-6,7;-33,91;-6,7;5,91;4,67;5,91;4,67;0;0;
48255;-36,15;15,38;-36,15;15,38;5,76;5,51;5,76;5,51;0;0;
48317;-26,05;-8,01;-26,05;-8,01;7,04;5,17;7,04;5,17;0;0;
48366;-29,04;-12,73;-29,04;-12,73;6,88;4,95;6,88;4,95;1;0;
48432;-22,1;-26,72;-22,1;-26,72;8,35;6,57;8,35;6,57;1;0;
48480;-32,38;-27,03;-32,38;-27,03;8,35;9,1;8,35;9,1;1;0;
48530;124,27;16,85;124,27;16,85;22,69;10,56;22,69;10,56;1;0;
48576;16,19;18,43;16,19;18,43;33,42;11,58;33,42;11,58;1;0;
48641;-22,38;22,51;-22,38;22,51;35,3;14,53;35,3;14,53;0;0;
48696;13,82;12,37;13,82;12,37;36,45;16,61;36,45;16,61;0;0;
48746;-16,67;-18,05;-16,67;-18,05;36,6;14,75;36,6;14,75;0;0;
48794;-30,9;-4,96;-30,9;-4,96;32,51;13,98;32,51;13,98;0;0;
48857;-2,56;-2,27;-2,56;-2,27;17,99;12,94;17,99;12,94;0;0;
48903;-14,45;-13,95;-14,45;-13,95;9,97;10,14;9,97;10,14;0;0;
48962;0,94;5,22;0,94;5,22;8,14;7,1;8,14;7,1;0;0;
49012;-7,2;-14,14;-7,2;-14,14;7,4;5,65;7,4;5,65;0;0;
49071;-21,3;-3;-21,3;-3;7,18;4,67;7,18;4,67;0;0;
49122;-21,28;-16,92;-21,28;-16,92;6,07;4,29;6,07;4,29;0;0;
49171;-32,32;-13,78;-32,32;-13,78;5,7;3,93;5,7;3,93;0;0;
49221;-35,25;0,32;-35,25;0,32;6,8;5,46;6,8;5,46;0;0;
49284;-26,59;-6,19;-26,59;-6,19;7,07;5,72;7,07;5,72;0;0;
49330;-19,11;-4,84;-19,11;-4,84;6,17;5,52;6,17;5,52;0;0;
49383;-21,15;4,08;-21,15;4,08;6,91;5,96;6,91;5,96;0;0;
49435;-11,88;-9,6;-11,88;-9,6;6,87;5,57;6,87;5,57;0;0;
49498;-31;-2,72;-31;-2,72;7,13;4,74;7,13;4,74;0;0;
49549;-23,11;-1,64;-23,11;-1,64;6,64;4,94;6,64;4,94;0;0;
49594;-21,32;-5,69;-21,32;-5,69;5,99;4,75;5,99;4,75;0;0;
49643;-19,65;-24,24;-19,65;-24,24;5,95;5,75;5,95;5,75;0;0;
49710;-24,73;-10,32;-24,73;-10,32;6,22;6,5;6,22;6,5;0;0;
49764;-24,17;1,87;-24,17;1,87;6,1;6,56;6,1;6,56;0;0;
49812;-8,69;-5,97;-8,69;-5,97;5,6;6,08;5,6;6,08;0;0;
49862;-26,21;-9,78;-26,21;-9,78;6,51;6,93;6,51;6,93;0;0;
49928;-20,23;-10,11;-20,23;-10,11;6,66;8,31;6,66;8,31;0;0;
49976;-18,43;-11,83;-18,43;-11,83;6,69;6,54;6,69;6,54;0;0;
50022;-9,81;-8,26;-9,81;-8,26;5,77;7,1;5,77;7,1;0;0;
50069;-26,59;-33,08;-26,59;-33,08;5,26;9,68;5,26;9,68;0;0;
50132;-19,85;-14,01;-19,85;-14,01;5,98;13,69;5,98;13,69;0;0;
50185;-15,49;1,46;-15,49;1,46;4,94;16,08;4,94;16,08;0;0;
50231;-6,01;28,38;-6,01;28,38;5,24;17,54;5,24;17,54;1;0;
50276;-15,59;-8,84;-15,59;-8,84;5,07;18,71;5,07;18,71;1;0;
50340;1,59;-8,25;1,59;-8,25;16,29;21,36;16,29;21,36;1;0;
50386;10,32;-88,13;10,32;-88,13;18,78;26,25;18,78;26,25;1;0;
50431;-31,67;17,62;-31,67;17,62;20,62;27,42;20,62;27,42;1;0;
50481;5,4;-28,48;5,4;-28,48;22,57;26,92;22,57;26,92;1;0;
50554;-16,4;-8,8;-16,4;-8,8;23,12;34,11;23,12;34,11;0;0;
50606;-23,36;0,39;-23,36;0,39;17,51;31,94;17,51;31,94;0;0;
50655;-10,69;-6,07;-10,69;-6,07;13,1;28,19;13,1;28,19;0;0;
50709;-13,23;-11,1;-13,23;-11,1;8,87;19,2;8,87;19,2;0;0;
50776;-22,88;-8,15;-22,88;-8,15;6,55;16,34;6,55;16,34;0;0;
50824;-25,82;-9,86;-25,82;-9,86;5,34;12,69;5,34;12,69;0;0;
50876;-11,92;-15,5;-11,92;-15,5;4,95;7,25;4,95;7,25;0;0;
50919;-21,39;-7,23;-21,39;-7,23;5,27;6,44;5,27;6,44;0;0;
50980;-16,26;-4,4;-16,26;-4,4;5,56;4,95;5,56;4,95;0;0;
51031;-6,7;-6,66;-6,7;-6,66;6,2;6,39;6,2;6,39;0;0;
51077;-10,18;-15,36;-10,18;-15,36;6,67;6,7;6,67;6,7;0;0;
51121;-5,74;-4,36;-5,74;-4,36;6,1;6,18;6,1;6,18;0;0;
51167;-18,16;-1,7;-18,16;-1,7;5,75;7,15;5,75;7,15;0;0;
51225;0,04;-9,64;0,04;-9,64;5,64;7,31;5,64;7,31;0;0;
51278;-24,86;0,27;-24,86;0,27;5,57;6,62;5,57;6,62;0;0;
51322;-18,82;0,45;-18,82;0,45;5,03;6,28;5,03;6,28;0;0;
51372;-15,82;-14,16;-15,82;-14,16;4,75;5,94;4,75;5,94;0;0;
51417;-11,44;-13,8;-11,44;-13,8;4,78;6,15;4,78;6,15;0;0;
51482;-14,95;-4,36;-14,95;-4,36;4,95;5,31;4,95;5,31;0;0;
51526;-22;-45,97;-22;-45,97;4,73;6,1;4,73;6,1;0;0;
51573;-18,42;-10,8;-18,42;-10,8;4,78;5,59;4,78;5,59;0;0;
51617;-16,7;-5,91;-16,7;-5,91;4,75;5,95;4,75;5,95;0;0;
51685;-4,85;3,48;-4,85;3,48;6,03;6,72;6,03;6,72;0;0;
51734;-16,13;-16,45;-16,13;-16,45;5,68;7,47;5,68;7,47;0;0;
51787;-17,55;-9,45;-17,55;-9,45;5,42;8,09;5,42;8,09;0;0;
51843;-22,46;-7,08;-22,46;-7,08;5,03;8,02;5,03;8,02;0;0;
51905;-16,47;-9,73;-16,47;-9,73;5,43;7,78;5,43;7,78;0;0;
51949;-16,74;-9,86;-16,74;-9,86;5,26;6,31;5,26;6,31;0;0;
51994;-17,5;-4,83;-17,5;-4,83;4,6;5,95;4,6;5,95;1;0;
52039;-24,09;2,18;-24,09;2,18;5,17;5,82;5,17;5,82;1;0;
52109;1,54;-19,51;1,54;-19,51;9,26;6,6;9,26;6,6;1;0;
52157;-13,1;-37,32;-13,1;-37,32;10,59;13,97;10,59;13,97;1;0;
52212;-13,99;-6,42;-13,99;-6,42;11,7;17,4;11,7;17,4;1;0;
52266;-40,57;-8,17;-40,57;-8,17;14,63;18,65;14,63;18,65;1;0;
52330;-12,34;9,5;-12,34;9,5;14,12;20,73;14,12;20,73;0;0;
52379;-24,97;3,53;-24,97;3,53;11,51;23,84;11,51;23,84;0;0;
52425;-20,51;-7,8;-20,51;-7,8;9,06;20,37;9,06;20,37;0;0;
52476;-10,82;-9,38;-10,82;-9,38;8,53;13,8;8,53;13,8;0;0;
52537;-20,42;-0,1;-20,42;-0,1;6,14;12,3;6,14;12,3;0;0;
52595;-22,02;-3,06;-22,02;-3,06;5,22;10,03;5,22;10,03;0;0;
52647;-6,82;-5,08;-6,82;-5,08;5,31;7,68;5,31;7,68;0;0;
52699;-20,3;-6,29;-20,3;-6,29;4,6;4,13;4,6;4,13;0;0;
52760;-17,07;-7,31;-17,07;-7,31;4,15;3,81;4,15;3,81;0;0;
52803;-22,85;1,63;-22,85;1,63;4,02;6,18;4,02;6,18;0;0;
52852;-9,06;-22,59;-9,06;-22,59;4,18;6,07;4,18;6,07;0;0;
52898;-18;-7,55;-18;-7,55;4,37;7,17;4,37;7,17;0;0;
52956;-22,8;-2,61;-22,8;-2,61;3,89;9,12;3,89;9,12;0;0;
53005;-14,07;-5,64;-14,07;-5,64;4,07;9,47;4,07;9,47;0;0;
53051;-23,11;-28,43;-23,11;-28,43;4,14;9,25;4,14;9,25;0;0;
53099;-19,38;-15,37;-19,38;-15,37;4,16;8,72;4,16;8,72;0;0;
53163;-15,93;3,81;-15,93;3,81;3,99;9,5;3,99;9,5;0;0;
53208;-14,56;-7,18;-14,56;-7,18;4,03;8,6;4,03;8,6;0;0;
53256;-11,05;-3,22;-11,05;-3,22;4,9;8,08;4,9;8,08;0;0;
53303;-18,25;-0,55;-18,25;-0,55;5,08;8,07;5,08;8,07;0;0;
53365;-15,26;-3,13;-15,26;-3,13;4,83;7,16;4,83;7,16;0;0;
53419;-17,58;-8,66;-17,58;-8,66;4,39;5,87;4,39;5,87;0;0;
53465;-17,55;-12,01;-17,55;-12,01;4,56;5,01;4,56;5,01;0;0;
53509;-23,47;-4,23;-23,47;-4,23;4,63;5,24;4,63;5,24;0;0;
53571;-19,55;-1,39;-19,55;-1,39;4,36;5,67;4,36;5,67;0;0;
53620;-11,44;-18,33;-11,44;-18,33;4,74;6,72;4,74;6,72;0;0;
53660;-16,86;-6,57;-16,86;-6,57;4,66;7,42;4,66;7,42;0;0;
53705;-13,35;4,77;-13,35;4,77;4,79;9,55;4,79;9,55;0;0;
53753;-35,74;12,3;-35,74;12,3;4,15;11,18;4,15;11,18;0;0;
53827;-11,94;34,57;-11,94;34,57;3,71;13,07;3,71;13,07;1;0;
53875;-10,4;-8,6;-10,4;-8,6;4,51;15,24;4,51;15,24;1;0;
53922;-151,05;-14,52;-151,05;-14,52;12,13;15,18;12,13;15,18;1;0;
53968;-9,4;-33,1;-9,4;-33,1;27,64;19,02;27,64;19,02;1;0;
54040;-24,88;-74,91;-24,88;-74,91;29,96;20,24;29,96;20,24;0;0;
54093;0,57;-16,18;0,57;-16,18;31,66;25,15;31,66;25,15;0;0;
54141;-27,11;26,61;-27,11;26,61;32,03;26,03;32,03;26,03;0;0;
54189;-25,73;-9,9;-25,73;-9,9;27,81;24,62;27,81;24,62;0;0;
54256;-4,31;-0,88;-4,31;-0,88;17,56;22,08;17,56;22,08;0;0;
54301;-17,8;0,72;-17,8;0,72;7,71;18,29;7,71;18,29;0;0;
54355;-26,18;-0,51;-26,18;-0,51;7,65;14,87;7,65;14,87;0;0;
54404;-12,77;-3,24;-12,77;-3,24;5,38;10,55;5,38;10,55;0;0;
54464;-14,26;-13,73;-14,26;-13,73;4,49;7,28;4,49;7,28;0;0;
54511;-17,4;-42,27;-17,4;-42,27;4,38;8,19;4,38;8,19;0;0;
54559;-14,29;3,51;-14,29;3,51;3,82;10;3,82;10;0;0;
54615;-27,63;10,48;-27,63;10,48;4,28;9,47;4,28;9,47;0;0;
54679;-28,39;-10,51;-28,39;-10,51;4,24;8,51;4,24;8,51;0;0;
54728;-20,4;-48,08;-20,4;-48,08;4,16;9,59;4,16;9,59;0;0;
54774;-22,91;4,49;-22,91;4,49;4,34;9,69;4,34;9,69;0;0;
54821;-22,94;-17,27;-22,94;-17,27;4,06;7,88;4,06;7,88;0;0;
54884;-18,23;-40,06;-18,23;-40,06;4,1;8,01;4,1;8,01;1;0;
54927;-22,75;13,84;-22,75;13,84;4,01;16,02;4,01;16,02;1;0;
54973;-88,74;10,17;-88,74;10,17;14,27;16,28;14,27;16,28;1;0;
55028;-23,82;-69,34;-23,82;-69,34;16,25;19,41;16,25;19,41;1;0;
55093;-27,84;-29,72;-27,84;-29,72;17,23;20,74;17,23;20,74;1;0;
55145;-13,7;-11,98;-13,7;-11,98;18,86;21,39;18,86;21,39;1;0;
55192;-14,38;-1,1;-14,38;-1,1;19,27;16,89;19,27;16,89;1;0;
55239;-14,96;-16;-14,96;-16;13,7;11,73;13,7;11,73;0;0;
55306;-22,46;-1,76;-22,46;-1,76;8,69;10,46;8,69;10,46;0;0;
55356;-9,62;25,69;-9,62;25,69;7,22;7,91;7,22;7,91;0;0;
55402;-15,2;2,62;-15,2;2,62;5,36;6,79;5,36;6,79;0;0;
55453;-15,32;-25,86;-15,32;-25,86;4,82;9,17;4,82;9,17;0;0;
55518;-16,16;2,34;-16,16;2,34;4,77;9,43;4,77;9,43;0;0;
55567;-14,69;-16,23;-14,69;-16,23;4,58;11,75;4,58;11,75;1;0;
55612;-27,6;-10,52;-27,6;-10,52;5,3;11,49;5,3;11,49;1;0;
55661;-25,41;6,8;-25,41;6,8;5,3;14,21;5,3;14,21;1;0;
55723;-4,74;-7,32;-4,74;-7,32;5,97;12,71;5,97;12,71;1;0;
55766;-94,86;-17,12;-94,86;-17,12;11,61;13,59;11,61;13,59;1;0;
55817;-27,47;-16,46;-27,47;-16,46;17,23;14,7;17,23;14,7;1;0;
55859;-35,59;-10,63;-35,59;-10,63;21,68;19,66;21,68;19,66;1;0;
55918;-12,73;-45,57;-12,73;-45,57;22,26;20,54;22,26;20,54;0;0;
55966;-27,79;11,61;-27,79;11,61;23,2;23,7;23,2;23,7;0;0;
56011;-12,87;-8,4;-12,87;-8,4;20,58;22,75;20,58;22,75;0;0;
56058;-17,37;-8,58;-17,37;-8,58;13,34;20,29;13,34;20,29;0;0;
56107;-16,25;-45,08;-16,25;-45,08;8,56;17,7;8,56;17,7;0;0;
56179;-14,08;-36,28;-14,08;-36,28;7,22;16,95;7,22;16,95;0;0;
56246;-24,95;7,66;-24,95;7,66;5,97;14,6;5,97;14,6;0;0;
56317;1,7;-41,71;1,7;-41,71;6,26;14,18;6,26;14,18;0;0;
56389;-13,94;8,39;-13,94;8,39;6,77;19,22;6,77;19,22;0;0;
56483;-18,78;32,61;-18,78;32,61;6,42;19,97;6,42;19,97;0;0;
56543;-18,82;12,31;-18,82;12,31;6,13;19,4;6,13;19,4;0;0;
56615;-29,82;2,87;-29,82;2,87;6,33;16,62;6,33;16,62;1;0;
56685;-30,53;-6,54;-30,53;-6,54;7,26;17,16;7,26;17,16;1;0;
56730;-1,76;3,29;-1,76;3,29;6,91;16,37;6,91;16,37;1;0;
56781;17,85;-19,11;17,85;-19,11;19,46;17,85;19,46;17,85;1;0;
56831;-68,05;-43,27;-68,05;-43,27;26,02;23,48;26,02;23,48;1;0;
56894;-27,66;-102,51;-27,66;-102,51;26,61;25,58;26,61;25,58;1;0;
56937;-12,95;-2,74;-12,95;-2,74;25,96;26,12;25,96;26,12;0;0;
56983;-21,8;-23,99;-21,8;-23,99;26,16;23,92;26,16;23,92;0;0;
57028;-30,98;4,7;-30,98;4,7;20,26;22,96;20,26;22,96;0;0;
57090;-17,96;-14,36;-17,96;-14,36;11,41;19,68;11,41;19,68;0;0;
57144;-23,46;-94,34;-23,46;-94,34;7,7;20,31;7,7;20,31;0;0;
57196;-17,77;30,64;-17,77;30,64;7,71;18,44;7,71;18,44;0;0;
57243;-7,36;-19,72;-7,36;-19,72;8,06;18,91;8,06;18,91;0;0;
57304;98,81;1,79;98,81;1,79;21,11;18,65;21,11;18,65;1;0;
57353;2,47;-8,28;2,47;-8,28;22,45;18,62;22,45;18,62;1;0;
57399;-13,04;-32,94;-13,04;-32,94;23,26;16,59;23,26;16,59;1;0;
57446;-3,87;-7,22;-3,87;-7,22;23,4;13,76;23,4;13,76;1;0;
57509;-14;-23,59;-14;-23,59;23,57;12,56;23,57;12,56;1;0;
57558;-17,92;-16,4;-17,92;-16,4;18,06;11,3;18,06;11,3;1;0;
57600;-18,33;-1,79;-18,33;-1,79;9,21;11,31;9,21;11,31;1;0;
57656;-25,57;-30,63;-25,57;-30,63;7,84;11,71;7,84;11,71;0;0;
57731;-16,98;3,21;-16,98;3,21;8,13;13,28;8,13;13,28;0;0;
57777;-11,32;-11,41;-11,32;-11,41;7,6;15,32;7,6;15,32;0;0;
57822;-16,94;-25,09;-16,94;-25,09;6,91;15,14;6,91;15,14;0;0;
57870;-19,06;-6,81;-19,06;-6,81;6,4;15,85;6,4;15,85;0;0;
57936;-25,69;-8,36;-25,69;-8,36;6,04;17,88;6,04;17,88;0;0;
57992;-30,55;-12,37;-30,55;-12,37;4,97;16,08;4,97;16,08;0;0;
58040;-16,89;-8,99;-16,89;-8,99;5,2;15,16;5,2;15,16;0;0;
58092;-27,17;4,27;-27,17;4,27;5,64;13,82;5,64;13,82;0;0;
58158;-19,21;2,4;-19,21;2,4;5,66;12,12;5,66;12,12;0;0;
58205;-18,11;-6,7;-18,11;-6,7;6,19;11,77;6,19;11,77;0;0;
58254;-12,72;-1,9;-12,72;-1,9;7,3;9,08;7,3;9,08;0;0;
58298;-11,66;0,25;-11,66;0,25;7,14;7,48;7,14;7,48;0;0;
58363;-16,16;-57,96;-16,16;-57,96;6,74;8,41;6,74;8,41;0;0;
58421;-19,36;-7,13;-19,36;-7,13;7,46;8,57;7,46;8,57;1;0;
58467;-19,11;-17,39;-19,11;-17,39;6,97;8,52;6,97;8,52;1;0;
58510;-25,56;6,11;-25,56;6,11;6,33;11,72;6,33;11,72;1;0;
58571;-41,73;-2,95;-41,73;-2,95;16,19;13,62;16,19;13,62;1;0;
58617;-26,68;58,52;-26,68;58,52;21,18;26,67;21,18;26,67;1;0;
58662;-8,04;-8,49;-8,04;-8,49;21,93;26,57;21,93;26,57;1;0;
58710;-12,74;19,21;-12,74;19,21;23,08;31,11;23,08;31,11;1;0;
58762;-31,26;0,6;-31,26;0,6;23,24;29,54;23,24;29,54;0;0;
58834;-21,45;16,1;-21,45;16,1;18,53;30,53;18,53;30,53;0;0;
58884;-13;15,85;-13;15,85;9,87;32,88;9,87;32,88;0;0;
58932;-16,77;-3,47;-16,77;-3,47;7,4;25,93;7,4;25,93;0;0;
58983;-1,98;-62,41;-1,98;-62,41;6,03;26;6,03;26;0;0;
59052;-8,58;0,98;-8,58;0,98;5,88;21,84;5,88;21,84;0;0;
59095;-15,87;-6,18;-15,87;-6,18;6,06;21,54;6,06;21,54;1;0;
59143;-11,97;-9,18;-11,97;-9,18;5,8;17,12;5,8;17,12;1;0;
59189;-23,95;-12,16;-23,95;-12,16;4,55;15,95;4,55;15,95;1;0;
59256;-53,92;13,9;-53,92;13,9;11,71;18,17;11,71;18,17;1;0;
59301;-63,83;-44,53;-63,83;-44,53;18,27;19,01;18,27;19,01;1;0;
59344;-15,79;-11,06;-15,79;-11,06;18,36;17,72;18,36;17,72;1;0;
59387;-7,16;-3,62;-7,16;-3,62;19,09;17,41;19,09;17,41;1;0;
59449;-14,29;-63,23;-14,29;-63,23;19,29;19,84;19,29;19,84;0;0;
59496;-15,91;-19,34;-15,91;-19,34;17,49;21,01;17,49;21,01;0;0;
59540;-10,1;-35,94;-10,1;-35,94;9,17;19,69;9,17;19,69;0;0;
59597;-14,18;13,59;-14,18;13,59;4,62;21,78;4,62;21,78;0;0;
59658;-21,05;-1,6;-21,05;-1,6;3,82;23,63;3,82;23,63;0;0;
59705;-17,16;-13,63;-17,16;-13,63;3,27;23,64;3,27;23,64;0;0;
59759;-8,7;-73,91;-8,7;-73,91;3,68;23,09;3,68;23,09;0;0;
59804;-13,96;19,89;-13,96;19,89;4,68;20,89;4,68;20,89;0;0;
59861;-17,26;-48,17;-17,26;-48,17;4,49;18,88;4,49;18,88;0;0;
59905;-8,56;-3,88;-8,56;-3,88;4,69;19,04;4,69;19,04;0;0;
59964;-32,36;-6,65;-32,36;-6,65;5,18;16,41;5,18;16,41;0;0;
600021;-16,47;-19,97;-16,47;-19,97;4,89;15,88;4,89;15,88;0;0;
600084;-14,38;-5,52;-14,38;-5,52;4,36;9,88;4,36;9,88;0;0;
600127;-23,24;1,54;-23,24;1,54;4,55;11,51;4,55;11,51;0;0;
600174;-30,27;-150,27;-30,27;-150,27;4,81;13,26;4,81;13,26;0;0;
600222;-9,32;-14,47;-9,32;-14,47;5,34;14,07;5,34;14,07;1;0;
600286;-21,09;-0,58;-21,09;-0,58;5,09;15,17;5,09;15,17;1;0;
600331;-10,55;2,07;-10,55;2,07;5;16,2;5;16,2;1;0;
600383;-23,68;-10,1;-23,68;-10,1;4,87;17,15;4,87;17,15;1;0;
600428;-20,19;-6,04;-20,19;-6,04;4,72;15,06;4,72;15,06;1;0;
600495;20,28;-0,74;20,28;-0,74;14,47;12,74;14,47;12,74;1;0;
600553;-53,23;-26,33;-53,23;-26,33;17,36;15,19;17,36;15,19;1;0;
600599;-3,71;2,25;-3,71;2,25;17,94;16,46;17,94;16,46;0;0;
600647;-3,34;12,17;-3,34;12,17;19,02;21,5;19,02;21,5;0;0;
600716;-12,24;4,76;-12,24;4,76;18,54;23,56;18,54;23,56;0;0;
600765;-21,23;23,65;-21,23;23,65;17,2;23,23;17,2;23,23;0;0;
600823;-13,62;0,65;-13,62;0,65;8,26;20,26;8,26;20,26;0;0;
600868;-21,42;-9,69;-21,42;-9,69;6,17;19,7;6,17;19,7;1;0;
600927;-18,91;-5,93;-18,91;-5,93;4,87;16,45;4,87;16,45;1;0;
600981;-13,45;12,25;-13,45;12,25;4,23;14,3;4,23;14,3;1;0;
601030;-7,84;-12,81;-7,84;-12,81;5,18;14,73;5,18;14,73;1;0;
601076;-37,74;-21,93;-37,74;-21,93;10,38;15,68;10,38;15,68;1;0;
601138;-27,91;-25,63;-27,91;-25,63;14,13;17,17;14,13;17,17;1;0;
601184;-15,28;1,19;-15,28;1,19;14,06;20,09;14,06;20,09;1;0;
601236;-28,2;-27,66;-28,2;-27,66;15,37;26,11;15,37;26,11;0;0;
601294;-30,63;-7,33;-30,63;-7,33;15,95;25,03;15,95;25,03;0;0;
601368;-33,54;-93,69;-33,54;-93,69;13,12;26,56;13,12;26,56;0;0;
601415;-10,02;11,87;-10,02;11,87;9,35;27,13;9,35;27,13;0;0;
601463;-9,74;-11,84;-9,74;-11,84;6,18;24,35;6,18;24,35;0;0;
601508;-8,84;2,43;-8,84;2,43;6,36;16,21;6,36;16,21;0;0;
601574;-20,29;-9,63;-20,29;-9,63;5,24;13,23;5,24;13,23;0;0;
601617;-23,42;-3,55;-23,42;-3,55;4,08;13,31;4,08;13,31;0;0;
601668;-3,01;-11,41;-3,01;-11,41;4,7;10,21;4,7;10,21;0;0;
601714;-22,1;-11,88;-22,1;-11,88;4,63;8,38;4,63;8,38;0;0;
601784;-17,11;-3,94;-17,11;-3,94;4,75;7,12;4,75;7,12;0;0;
601832;-15,79;-0,32;-15,79;-0,32;4,61;6,44;4,61;6,44;0;0;
601883;-12,75;-11,13;-12,75;-11,13;4,49;6,24;4,49;6,24;0;0;
601927;-16,88;1,81;-16,88;1,81;3,67;5,61;3,67;5,61;0;0;
601992;-14,66;-8,86;-14,66;-8,86;3,42;7,36;3,42;7,36;0;0;
602045;-25,24;-59,84;-25,24;-59,84;4;10,97;4;10,97;1;0;
602093;-12,14;-7,87;-12,14;-7,87;4,13;14,22;4,13;14,22;1;0;
602137;-18,99;-2,15;-18,99;-2,15;4,02;17,92;4,02;17,92;1;0;
602199;-90,42;-15,18;-90,42;-15,18;13,05;18,67;13,05;18,67;1;0;
602248;27,75;0,5;27,75;0,5;24,95;18,25;24,95;18,25;1;0;
602305;-29,46;-60,15;-29,46;-60,15;27,41;21,59;27,41;21,59;0;0;
602354;-7,58;2,1;-7,58;2,1;26,99;19,22;26,99;19,22;0;0;
602426;-16,57;-24,84;-16,57;-24,84;27,21;17,08;27,21;17,08;0;0;
602486;-9,7;-7,27;-9,7;-7,27;20,53;14,3;20,53;14,3;0;0;
602530;-16,45;0,16;-16,45;0,16;11,93;14,51;11,93;14,51;0;0;
602577;-22,93;-0,35;-22,93;-0,35;5,02;14,6;5,02;14,6;0;0;
602636;-12,76;20,07;-12,76;20,07;4,54;19,85;4,54;19,85;0;0;
602679;-17,31;-6,04;-17,31;-6,04;4,56;18,87;4,56;18,87;1;0;
602725;24,85;11,98;24,85;11,98;9,84;18,6;9,84;18,6;1;0;
602778;-19,38;-9,88;-19,38;-9,88;12,58;18,19;12,58;18,19;1;0;
602825;-29,47;-2,98;-29,47;-2,98;20,34;18,01;20,34;18,01;1;0;
602893;-22,41;3,62;-22,41;3,62;19,78;16,4;19,78;16,4;1;0;
602945;-25,12;-11,05;-25,12;-11,05;20,01;11,78;20,01;11,78;1;0;
603004;-13,16;0;-13,16;0;18,02;10,93;18,02;10,93;1;0;
603046;-20,18;0;-20,18;0;12,76;11,39;12,76;11,39;0;0;
603117;-18,54;0;-18,54;0;7,41;11,49;7,41;11,49;0;0;
603161;-26,39;28,66;-26,39;28,66;4,34;11,58;4,34;11,58;0;0;
603212;-16,95;-1,52;-16,95;-1,52;4,36;10,86;4,36;10,86;0;0;
603264;-13,98;61,63;-13,98;61,63;4,16;16,17;4,16;16,17;0;0;
603330;-35,68;-197,73;-35,68;-197,73;5,3;31,49;5,3;31,49;0;0;
603380;-13,91;-7,7;-13,91;-7,7;6,48;31,48;6,48;31,48;0;0;
603425;-13,52;12,71;-13,52;12,71;7,5;39,48;7,5;39,48;0;0;
603470;-19,25;-14,01;-19,25;-14,01;6,7;40,78;6,7;40,78;0;0;
603532;-21,86;-100,39;-21,86;-100,39;7,53;44,47;7,53;44,47;0;0;
603574;-2,99;-18,93;-2,99;-18,93;7,59;37,99;7,59;37,99;0;0;
603622;-21,57;0,91;-21,57;0,91;6,43;34,45;6,43;34,45;0;0;
603672;-22,38;-8;-22,38;-8;5,64;25,94;5,64;25,94;0;0;
603719;-17,13;-17,97;-17,13;-17,97;5,7;22,04;5,7;22,04;0;0;
603784;-18,03;-12,74;-18,03;-12,74;4,96;19,32;4,96;19,32;0;0;
603832;-18,62;-78,37;-18,62;-78,37;4,68;21,37;4,68;21,37;1;0;
603885;1,83;41,75;1,83;41,75;5,63;16,35;5,63;16,35;1;0;
603938;14,72;-0,72;14,72;-0,72;5,89;15,21;5,89;15,21;1;0;
604001;17,49;2,15;17,49;2,15;20,43;17,44;20,43;17,44;1;0;
604050;-51,93;-4,9;-51,93;-4,9;24,77;21,37;24,77;21,37;1;0;
604111;-18,23;15,13;-18,23;15,13;26,12;23,27;26,12;23,27;0;0;
604158;-15,71;-124,09;-15,71;-124,09;25,77;22,31;25,77;22,31;0;0;
604225;-11,04;-66,37;-11,04;-66,37;25,68;26,85;25,68;26,85;0;0;
604275;-9,74;-16,09;-9,74;-16,09;17,27;26,52;17,27;26,52;0;0;
604322;-18,69;-89,03;-18,69;-89,03;9,4;27,54;9,4;27,54;0;0;
604369;-20,58;-30,14;-20,58;-30,14;5,83;26,21;5,83;26,21;0;0;
604431;-7,71;-22,77;-7,71;-22,77;6,26;22,73;6,26;22,73;0;0;
604479;-23,24;-51,01;-23,24;-51,01;5,81;19,22;5,81;19,22;1;0;
604527;-18,04;-22,43;-18,04;-22,43;6,39;14,13;6,39;14,13;1;0;
604571;-27,8;51,4;-27,8;51,4;6,19;15,93;6,19;15,93;1;0;
604633;12,99;-10,95;12,99;-10,95;17,02;15,6;17,02;15,6;1;0;
604680;-23,73;-17,49;-23,73;-17,49;21,88;14,05;21,88;14,05;1;0;
604723;-39,51;12,1;-39,51;12,1;25,87;17,83;25,87;17,83;1;0;
604772;-32,13;31,47;-32,13;31,47;26,87;18,09;26,87;18,09;1;0;
604819;-8,9;2,69;-8,9;2,69;26,4;18,79;26,4;18,79;1;0;
604887;-13,9;-2,03;-13,9;-2,03;18,67;16,65;18,67;16,65;0;0;
604935;-16,14;12,49;-16,14;12,49;13,49;17,02;13,49;17,02;0;0;
604984;-23,72;11,63;-23,72;11,63;7,94;16,47;7,94;16,47;0;0;
605032;-13,26;45,15;-13,26;45,15;4,9;18,31;4,9;18,31;0;0;
605102;-13,04;10,48;-13,04;10,48;3,75;19,13;3,75;19,13;0;0;
605152;-9,07;6,46;-9,07;6,46;4,27;18,45;4,27;18,45;0;0;
605196;-19,3;-4,94;-19,3;-4,94;4,89;17,68;4,89;17,68;0;0;
605240;-33,97;13,29;-33,97;13,29;5,81;17,13;5,81;17,13;0;0;
605310;-19,56;0;-19,56;0;5,34;15,83;5,34;15,83;0;0;
605357;-15,7;2,7;-15,7;2,7;5,85;10,37;5,85;10,37;0;0;
605409;-12,15;-59,2;-12,15;-59,2;5,97;15,81;5,97;15,81;0;0;
605461;-22,98;44,67;-22,98;44,67;6,14;19,3;6,14;19,3;0;0;
605523;-9,74;-19,23;-9,74;-19,23;5,7;21,5;5,7;21,5;0;0;
605569;-11,71;-92,87;-11,71;-92,87;6,54;25,66;6,54;25,66;0;0;
605620;-14,29;-13,92;-14,29;-13,92;6,21;28,95;6,21;28,95;1;0;
605664;-34,01;9,12;-34,01;9,12;6,97;25,22;6,97;25,22;1;0;
605731;-17,17;-10,07;-17,17;-10,07;6,5;20,45;6,5;20,45;1;0;
605780;-9,72;-8,55;-9,72;-8,55;7,1;14,49;7,1;14,49;1;0;
605828;-34,47;-14;-34,47;-14;8,37;12,11;8,37;12,11;1;0;
605875;-18,7;-26,38;-18,7;-26,38;7,64;12,85;7,64;12,85;1;0;
605944;-16,56;-40,56;-16,56;-40,56;7,46;15,95;7,46;15,95;1;0;
605998;0;77,69;0;77,69;9,23;19,47;9,23;19,47;0;0;
606044;-10,38;-9,54;-10,38;-9,54;8,96;23,32;8,96;23,32;0;0;
606099;-2,31;-24,76;-2,31;-24,76;9;23,78;9;23,78;0;0;
606166;-27,58;-2,47;-27,58;-2,47;7,98;22,78;7,98;22,78;0;0;
606213;-22,12;-30,8;-22,12;-30,8;8,44;18,43;8,44;18,43;0;0;
606257;-20,92;-1,65;-20,92;-1,65;8,04;13,9;8,04;13,9;1;0;
606305;-18,42;-1,1;-18,42;-1,1;6,43;10,77;6,43;10,77;1;0;
606365;-6,61;-14,69;-6,61;-14,69;6,04;7,83;6,04;7,83;1;0;
606416;-13,54;-12,49;-13,54;-12,49;5,08;6,67;5,08;6,67;1;0;
606464;-16,67;-7,43;-16,67;-7,43;4,61;6,11;4,61;6,11;1;0;
606521;-16,98;-12,55;-16,98;-12,55;4,08;4,65;4,08;4,65;1;0;
606582;-25,33;-31,64;-25,33;-31,64;5,42;8,82;5,42;8,82;1;0;
606627;-17,02;-15,3;-17,02;-15,3;5,72;8,98;5,72;8,98;0;0;
606679;-3,58;-7,92;-3,58;-7,92;6,45;9,63;6,45;9,63;0;0;
606729;-12,67;-4,79;-12,67;-4,79;7,06;9,16;7,06;9,16;0;0;
606797;-36,02;-10,85;-36,02;-10,85;8,19;10,46;8,19;10,46;0;0;
606845;-7,88;-12,63;-7,88;-12,63;8,3;7,29;8,3;7,29;0;0;
606891;6,88;-8,33;6,88;-8,33;11,55;7,3;11,55;7,3;0;0;
606939;-17,06;-20,23;-17,06;-20,23;11,68;13,97;11,68;13,97;0;0;
607009;-19,68;-6,6;-19,68;-6,6;10,64;14,01;10,64;14,01;0;0;
607059;-22,07;1,94;-22,07;1,94;17,75;14,25;17,75;14,25;0;0;
607103;-12,55;-9,07;-12,55;-9,07;16,1;14,06;16,1;14,06;0;0;
607148;-8,1;-16,85;-8,1;-16,85;15,96;13,91;15,96;13,91;0;0;
607209;-18,47;1,52;-18,47;1,52;12,85;11,66;12,85;11,66;0;0;
607253;-20,67;-1,27;-20,67;-1,27;12,77;5,8;12,77;5,8;0;0;
607299;-3,8;-4,71;-3,8;-4,71;8,56;6,03;8,56;6,03;0;0;
607351;-23,21;-5,56;-23,21;-5,56;7,02;5,76;7,02;5,76;0;0;
607395;-25,23;-13,02;-25,23;-13,02;6,96;6,15;6,96;6,15;1;0;
607463;-13,97;-4,19;-13,97;-4,19;7,21;5,65;7,21;5,65;1;0;
607508;-12,86;-11,49;-12,86;-11,49;6,88;5,16;6,88;5,16;1;0;
607559;-7,93;-0,94;-7,93;-0,94;6,57;5;6,57;5;1;0;
607601;-29,3;-7,39;-29,3;-7,39;6,34;4,05;6,34;4,05;1;0;
607661;-26,39;-16,45;-26,39;-16,45;6,14;3,99;6,14;3,99;1;0;
607712;-25,66;-5,34;-25,66;-5,34;6,75;3,65;6,75;3,65;1;0;
607764;-38,74;-6,13;-38,74;-6,13;7,88;4,15;7,88;4,15;0;0;
607812;-11,86;-16,11;-11,86;-16,11;7,93;4,05;7,93;4,05;0;0;
607873;-17,73;-13,78;-17,73;-13,78;7,87;4,57;7,87;4,57;0;0;
607922;-23,41;16,93;-23,41;16,93;7,31;4,84;7,31;4,84;0;0;
607969;-9,07;-5,08;-9,07;-5,08;7,09;4,65;7,09;4,65;0;0;
608019;-22,62;1,87;-22,62;1,87;6,26;5,11;6,26;5,11;0;0;
608084;1,24;-13,92;1,24;-13,92;6,05;5,24;6,05;5,24;1;0;
608136;-9;-15,95;-9;-15,95;5,77;4,85;5,77;4,85;1;0;
608181;-11,88;-13,17;-11,88;-13,17;5,5;4,73;5,5;4,73;1;0;
608227;-26,71;-2,28;-26,71;-2,28;5,53;4,56;5,53;4,56;1;0;
608290;-17,75;-10,8;-17,75;-10,8;4,95;8,01;4,95;8,01;1;0;
608341;-28,4;-2,27;-28,4;-2,27;4,91;7,14;4,91;7,14;1;0;
608387;-19,57;-3,72;-19,57;-3,72;4,05;7,41;4,05;7,41;1;0;
608448;19,33;-1,56;19,33;-1,56;9,09;8,1;9,09;8,1;0;0;
608513;-9,41;-4,17;-9,41;-4,17;13,62;7,6;13,62;7,6;0;0;
608569;-8,56;-7,67;-8,56;-7,67;15,25;5,9;15,25;5,9;0;0;
608616;-46,97;-7,7;-46,97;-7,7;16,63;4,95;16,63;4,95;0;0;
608667;0,94;0,03;0,94;0,03;21,22;5,22;21,22;5,22;0;0;
608730;-11,03;-10,86;-11,03;-10,86;21,29;4,8;21,29;4,8;0;0;
608778;-7,86;-13,04;-7,86;-13,04;13,84;4,45;13,84;4,45;0;0;
608822;-18,92;-26,28;-18,92;-26,28;11,79;5,85;11,79;5,85;0;0;
608866;-24,87;-8,08;-24,87;-8,08;10,96;5,23;10,96;5,23;0;0;
608936;-6,55;-8,95;-6,55;-8,95;6,12;5,13;6,12;5,13;0;0;
609003;0;-1,56;0;-1,56;6,6;4,99;6,6;4,99;1;0;
609051;-29,73;-3,87;-29,73;-3,87;6,76;4,82;6,76;4,82;1;0;
609097;-4,64;-10,77;-4,64;-10,77;8,98;3,93;8,98;3,93;1;0;
609162;-14,14;-5,4;-14,14;-5,4;9,34;3,58;9,34;3,58;1;0;
609211;-20,99;-10,97;-20,99;-10,97;9,57;4,12;9,57;4,12;1;0;
609259;-14,78;-11,68;-14,78;-11,68;8,95;4,7;8,95;4,7;1;0;
609313;-7,91;-14,51;-7,91;-14,51;7,85;4,69;7,85;4,69;1;0;
609386;-20,32;-13,11;-20,32;-13,11;5,87;5,15;5,87;5,15;0;0;
609433;-18,44;4,65;-18,44;4,65;4,69;5,76;4,69;5,76;0;0;
609479;-1,36;8,3;-1,36;8,3;6,04;9,72;6,04;9,72;0;0;
609535;-8,83;9,83;-8,83;9,83;5,6;9,79;5,6;9,79;0;0;
609600;-17,67;9,26;-17,67;9,26;5,42;11,74;5,42;11,74;0;0;
609655;-14,38;-6,63;-14,38;-6,63;5,66;13,88;5,66;13,88;0;0;
609704;-14,21;7,08;-14,21;7,08;5,75;21,46;5,75;21,46;0;0;
609754;-2,5;-25,96;-2,5;-25,96;11,22;19,46;11,22;19,46;0;0;
609819;28,48;9,87;28,48;9,87;22,09;20,03;22,09;20,03;0;0;
609863;10,82;-15,96;10,82;-15,96;27,09;19,16;27,09;19,16;0;0;
609908;13,55;-23,12;13,55;-23,12;35,31;23,84;35,31;23,84;0;0;
609956;-2,26;17,27;-2,26;17,27;35,72;25,47;35,72;25,47;0;0;
610021;-13,79;-2,09;-13,79;-2,09;31,23;23,38;31,23;23,38;0;0;
610065;-7,85;-0,78;-7,85;-0,78;27,41;24,31;27,41;24,31;1;0;
610110;-8,51;-6,44;-8,51;-6,44;15,68;22,07;15,68;22,07;1;0;
610162;-17,55;-12,45;-17,55;-12,45;9,45;21,94;9,45;21,94;1;0;
610223;-17,07;-67,3;-17,07;-67,3;5,37;21,06;5,37;21,06;1;0;
610268;-128,58;-20,19;-128,58;-20,19;21,58;17,87;21,58;17,87;1;0;
610311;-93,41;-80,15;-93,41;-80,15;32,97;20,84;32,97;20,84;1;0;
610363;18,41;-5,08;18,41;-5,08;39,66;20,38;39,66;20,38;1;0;
610423;5,19;-20,95;5,19;-20,95;41,89;21,73;41,89;21,73;0;0;
610473;-20,69;-0,07;-20,69;-0,07;42,64;23,68;42,64;23,68;0;0;
610518;-24,93;-31,35;-24,93;-31,35;38,19;21,01;38,19;21,01;0;0;
610572;-23,74;-10,97;-23,74;-10,97;24,14;19,9;24,14;19,9;0;0;
610629;-24,56;2,69;-24,56;2,69;12,81;17,76;12,81;17,76;0;0;
610684;-20,37;12,78;-20,37;12,78;7,94;18,03;7,94;18,03;0;0;
610736;-29,61;-5,27;-29,61;-5,27;5,73;16,67;5,73;16,67;0;0;
610782;-18,26;8,69;-18,26;8,69;4,98;13,65;4,98;13,65;1;0;
610846;-20,22;-6,94;-20,22;-6,94;5,25;12,07;5,25;12,07;1;0;
610891;164,16;12,98;164,16;12,98;21,35;12,83;21,35;12,83;1;0;
610939;0,61;-11,55;0,61;-11,55;31,99;13,97;31,99;13,97;1;0;
610991;-15,47;-12,22;-15,47;-12,22;34,77;14,52;34,77;14,52;1;0;
611051;-9,76;-24,69;-9,76;-24,69;35,63;14,56;35,63;14,56;1;0;
611097;-18,71;-20,99;-18,71;-20,99;35,69;15,34;35,69;15,34;0;0;
611142;-15,8;0,78;-15,8;0,78;25,08;15,68;25,08;15,68;0;0;
611187;-16,32;0;-16,32;0;12,44;14,98;12,44;14,98;0;0;
611254;-24,53;-8,37;-24,53;-8,37;6,1;12,98;6,1;12,98;0;0;
611308;-21,34;1,81;-21,34;1,81;3,98;11,32;3,98;11,32;0;0;
611356;-18,23;-3,96;-18,23;-3,96;3,16;9,29;3,16;9,29;0;0;
611409;-12,15;2,89;-12,15;2,89;3,57;10,67;3,57;10,67;0;0;
611476;-21,41;-18,3;-21,41;-18,3;3,46;10,04;3,46;10,04;0;0;
611521;-23,34;-1,92;-23,34;-1,92;4,2;9,46;4,2;9,46;0;0;
611571;-19,32;-10,77;-19,32;-10,77;4,72;8,85;4,72;8,85;0;0;
611618;-11,94;-22,8;-11,94;-22,8;5,1;9,31;5,1;9,31;0;0;
611686;-22,7;-31;-22,7;-31;4,72;9,37;4,72;9,37;1;0;
611730;-212,8;-25,61;-212,8;-25,61;15,08;8,98;15,08;8,98;1;0;
611790;46,39;-15,12;46,39;-15,12;23,59;12,54;23,59;12,54;1;0;
611837;-33,83;-19,74;-33,83;-19,74;26,72;12,99;26,72;12,99;0;0;
611903;-8,96;-5,72;-8,96;-5,72;26,63;11,78;26,63;11,78;0;0;
611951;-18,56;-12,07;-18,56;-12,07;26,96;11,35;26,96;11,35;0;0;
611997;-8,62;-5,98;-8,62;-5,98;26,02;10,28;26,02;10,28;0;0;
612043;-16,03;-1,58;-16,03;-1,58;12,18;7,28;12,18;7,28;0;0;
612110;-32,44;-22,69;-32,44;-22,69;8,92;7,51;8,92;7,51;0;0;
612157;-10,19;-13,02;-10,19;-13,02;6,25;7,84;6,25;7,84;0;0;
612205;-21,04;-4,29;-21,04;-4,29;5,92;8,1;5,92;8,1;0;0;
612248;-21,92;-12,3;-21,92;-12,3;5,42;9,2;5,42;9,2;0;0;
612316;-23,34;10,28;-23,34;10,28;5,03;8,84;5,03;8,84;0;0;
612364;-17,43;-13,01;-17,43;-13,01;4,01;9,67;4,01;9,67;0;0;
612408;-11,6;-4,21;-11,6;-4,21;3,83;8,75;3,83;8,75;0;0;
612451;-21,1;-7,9;-21,1;-7,9;3,55;8,92;3,55;8,92;0;0;
612514;-17,54;-7,86;-17,54;-7,86;4,52;7,57;4,52;7,57;0;0;
612560;-9,05;1,16;-9,05;1,16;4,8;7,04;4,8;7,04;1;0;
612611;-19,95;-11,38;-19,95;-11,38;5,09;7,87;5,09;7,87;1;0;
612660;37,14;-2,97;37,14;-2,97;6,44;7,31;6,44;7,31;1;0;
612721;-11,34;-14,77;-11,34;-14,77;24,89;8,85;24,89;8,85;1;0;
612768;20,8;7,34;20,8;7,34;30,05;9,1;30,05;9,1;0;0;
612819;-31,27;-80,21;-31,27;-80,21;30,38;16,67;30,38;16,67;0;0;
612865;-20,82;-1,72;-20,82;-1,72;30,41;17,18;30,41;17,18;0;0;
612924;-21,55;-47,86;-21,55;-47,86;30,18;18,83;30,18;18,83;0;0;
612975;-8,77;-18,91;-8,77;-18,91;17,4;19,36;17,4;19,36;0;0;
613022;-16,76;-19,08;-16,76;-19,08;8,91;17,58;8,91;17,58;0;0;
613065;-17,02;-8,85;-17,02;-8,85;5,56;15,55;5,56;15,55;0;0;
613125;-29,45;-11,57;-29,45;-11,57;5,35;9,85;5,35;9,85;0;0;
613177;-9,68;-13,49;-9,68;-13,49;5,09;9,09;5,09;9,09;0;0;
613232;-16,85;4,88;-16,85;4,88;4,65;6,45;4,65;6,45;0;0;
613275;-27,46;16,9;-27,46;16,9;4,76;7,19;4,76;7,19;0;0;
613335;-10,26;-6,43;-10,26;-6,43;5,21;6,35;5,21;6,35;0;0;
613386;-22,8;-7,35;-22,8;-7,35;5,21;6,4;5,21;6,4;0;0;
613437;-22,91;-1,37;-22,91;-1,37;5,35;5,85;5,35;5,85;1;0;
613489;-14,85;-12,19;-14,85;-12,19;5,62;6,5;5,62;6,5;1;0;
613553;-17,65;0,64;-17,65;0,64;5,1;5,61;5,1;5,61;1;0;
613600;-13,61;3,53;-13,61;3,53;5,91;5,01;5,91;5,01;1;0;
613643;-136,92;-28,3;-136,92;-28,3;21,85;6,02;21,85;6,02;1;0;
613693;59,43;-29,95;59,43;-29,95;30,52;9,34;30,52;9,34;1;0;
613762;-11,46;1,39;-11,46;1,39;30,55;13,3;30,55;13,3;0;0;
613819;-10,72;0,11;-10,72;0,11;31,23;16,07;31,23;16,07;0;0;
613869;-11,64;50,6;-11,64;50,6;29,99;19,58;29,99;19,58;0;0;
613921;-25,78;4,27;-25,78;4,27;24,65;21,36;24,65;21,36;0;0;
613986;-18,48;-35,2;-18,48;-35,2;11,31;21,59;11,31;21,59;0;0;
614035;-16,25;-1,41;-16,25;-1,41;5,73;18,1;5,73;18,1;0;0;
614083;-20,32;-14,49;-20,32;-14,49;4,21;14,92;4,21;14,92;0;0;
614127;-12,36;7,96;-12,36;7,96;4,35;13,09;4,35;13,09;0;0;
614198;-23,5;-6,42;-23,5;-6,42;3,54;10,04;3,54;10,04;0;0;
614243;-21,6;-11,47;-21,6;-11,47;3,64;7,99;3,64;7,99;0;0;
614293;-17,35;-8,8;-17,35;-8,8;4,04;5,27;4,04;5,27;0;0;
614343;-8,55;22,59;-8,55;22,59;4,03;7,18;4,03;7,18;1;0;
614402;-6,47;-0,67;-6,47;-0,67;5,21;6,38;5,21;6,38;1;0;
614445;-6,31;7,25;-6,31;7,25;5,78;6,68;5,78;6,68;1;0;
614494;-29,03;-13,94;-29,03;-13,94;5,59;7,63;5,59;7,63;1;0;
614538;-11,41;17,79;-11,41;17,79;23,99;10,66;23,99;10,66;1;0;
614611;-130,25;34,07;-130,25;34,07;36,51;13,24;36,51;13,24;0;0;
614658;-41,82;-40,55;-41,82;-40,55;43,39;18,62;43,39;18,62;0;0;
614706;-4,02;-16,7;-4,02;-16,7;44,19;21,79;44,19;21,79;0;0;
614749;-19,84;4,32;-19,84;4,32;44,96;24,19;44,96;24,19;0;0;
614809;-21,84;8,16;-21,84;8,16;35,8;25,26;35,8;25,26;0;0;
614860;-27,99;-16,13;-27,99;-16,13;24,1;23,07;24,1;23,07;0;0;
614910;-16,02;-16,94;-16,02;-16,94;10,97;19,23;10,97;19,23;0;0;
614959;-28,97;4,81;-28,97;4,81;6,12;15,45;6,12;15,45;0;0;
615029;-11,48;-13,71;-11,48;-13,71;5,5;12,33;5,5;12,33;0;0;
615080;-6,73;-6,76;-6,73;-6,76;4,77;11,09;4,77;11,09;0;0;
615125;-31,58;1,1;-31,58;1,1;5,72;9,05;5,72;9,05;0;0;
615169;-10,24;13,51;-10,24;13,51;6;10,67;6;10,67;0;0;
615228;-25,32;-18,9;-25,32;-18,9;8,28;11,38;8,28;11,38;1;0;
615272;-21,76;-4,07;-21,76;-4,07;7,67;12,3;7,67;12,3;1;0;
615316;-19,72;-0,29;-19,72;-0,29;7,25;12,67;7,25;12,67;1;0;
615367;-9,51;-13,3;-9,51;-13,3;7,16;14,32;7,16;14,32;1;0;
615411;-15,92;16,06;-15,92;16,06;7,04;13,25;7,04;13,25;1;0;
615472;-100,98;-6,66;-100,98;-6,66;37,65;14;37,65;14;1;0;
615521;82,99;-36,19;82,99;-36,19;63,95;15,62;63,95;15,62;1;0;
615566;-33,72;5,9;-33,72;5,9;71,24;15,96;71,24;15,96;0;0;
615612;5,16;43,43;5,16;43,43;74,46;27,1;74,46;27,1;0;0;
615662;-18,16;-8,2;-18,16;-8,2;74,59;29,81;74,59;29,81;0;0;
615729;-35,55;45,47;-35,55;45,47;59,97;32,41;59,97;32,41;0;0;
615799;-33,94;-46,58;-33,94;-46,58;31,39;32,4;31,39;32,4;0;0;
615850;-13,81;-11,33;-13,81;-11,33;12,01;29,44;12,01;29,44;0;0;
615896;-23,87;-7,33;-23,87;-7,33;8,01;22,67;8,01;22,67;0;0;
615960;-18,99;-4,38;-18,99;-4,38;6,87;14,41;6,87;14,41;0;0;
616007;-15,56;2,44;-15,56;2,44;6,75;11,81;6,75;11,81;0;0;
616052;-19,35;-8,76;-19,35;-8,76;4,74;7,92;4,74;7,92;0;0;
616099;-10,67;-11,52;-10,67;-11,52;3,93;7,41;3,93;7,41;0;0;
616151;-11,93;-8,88;-11,93;-8,88;4,19;7,54;4,19;7,54;1;0;
616222;-15,61;-14,63;-15,61;-14,63;4,31;8,93;4,31;8,93;1;0;
616268;36,24;7,77;36,24;7,77;7;7,6;7;7,6;1;0;
616321;-64,91;0;-64,91;0;16,96;8,27;16,96;8,27;1;0;
616372;-56,63;28,23;-56,63;28,23;23,83;12,24;23,83;12,24;1;0;
616439;-22,3;37,04;-22,3;37,04;26,7;22,43;26,7;22,43;0;0;
616485;-7,31;6,73;-7,31;6,73;28,6;25,56;28,6;25,56;0;0;
616531;-19,72;-5,34;-19,72;-5,34;28,15;26,95;28,15;26,95;0;0;
616585;-22,27;-6,44;-22,27;-6,44;21,36;26,77;21,36;26,77;0;0;
616654;-14,85;-52,47;-14,85;-52,47;13,31;25,29;13,31;25,29;0;0;
616701;-18,4;6,5;-18,4;6,5;6,31;17,82;6,31;17,82;0;0;
616747;-19,11;-15,79;-19,11;-15,79;5,03;13,17;5,03;13,17;0;0;
616790;-11,31;-11,26;-11,31;-11,26;2,93;9,55;2,93;9,55;0;0;
616850;-22,53;-14,41;-22,53;-14,41;4,41;9,97;4,41;9,97;0;0;
616891;-22,14;1,44;-22,14;1,44;4,51;11,41;4,51;11,41;0;0;
616936;-19,83;-11,67;-19,83;-11,67;4,91;11,07;4,91;11,07;0;0;
616986;-14,62;-5,73;-14,62;-5,73;5,5;11,09;5,5;11,09;0;0;
617029;-5;-5,92;-5;-5,92;6,47;9,65;6,47;9,65;0;0;
617090;-25,08;-12,2;-25,08;-12,2;6,77;9,49;6,77;9,49;0;0;
617133;-26,81;-11,64;-26,81;-11,64;6,16;8,89;6,16;8,89;0;0;
617176;-17,7;5,54;-17,7;5,54;6,27;7,68;6,27;7,68;0;0;
617225;-23,01;-16,09;-23,01;-16,09;6,22;6,08;6,22;6,08;0;0;
617270;-8,28;-28,53;-8,28;-28,53;5,71;7,01;5,71;7,01;1;0;
617332;-0,93;-1,72;-0,93;-1,72;5,48;7,69;5,48;7,69;1;0;
617383;25,14;-7,15;25,14;-7,15;6,26;9,63;6,26;9,63;1;0;
617429;-229,39;-37,15;-229,39;-37,15;20,46;15,71;20,46;15,71;1;0;
617477;68,57;-17,77;68,57;-17,77;34,78;19,95;34,78;19,95;1;0;
617553;-12,95;-89,63;-12,95;-89,63;35,49;21,55;35,49;21,55;0;0;
617601;-14,85;52,03;-14,85;52,03;36,05;27,33;36,05;27,33;0;0;
617649;-21,12;-127,38;-21,12;-127,38;35,98;31,52;35,98;31,52;0;0;
617693;-15,82;2,55;-15,82;2,55;28,64;28,49;28,64;28,49;0;0;
617761;-15,74;-14,77;-15,74;-14,77;14,51;24,36;14,51;24,36;0;0;
617814;-19,56;-3,01;-19,56;-3,01;6,14;21,51;6,14;21,51;0;0;
617868;-13,72;1,7;-13,72;1,7;4,99;18,33;4,99;18,33;0;0;
617916;-34,09;-14,75;-34,09;-14,75;5,81;11,18;5,81;11,18;1;0;
617977;-31,16;-5,42;-31,16;-5,42;7,1;8,11;7,1;8,11;1;0;
618020;-23;-2,9;-23;-2,9;7,65;8,14;7,65;8,14;1;0;
618073;-23,02;-38;-23,02;-38;7,17;8,37;7,17;8,37;1;0;
618122;-10,46;-11,11;-10,46;-11,11;7,78;7,99;7,78;7,99;1;0;
618192;13,41;7,02;13,41;7,02;8,51;8,37;8,51;8,37;1;0;
618239;-34,67;-9,21;-34,67;-9,21;26,99;8,17;26,99;8,17;0;0;
618287;-12,41;14,92;-12,41;14,92;41,16;12,98;41,16;12,98;0;0;
618339;-37,12;-7,68;-37,12;-7,68;43,36;13,71;43,36;13,71;0;0;
618399;-19,24;-90,33;-19,24;-90,33;44,19;18,55;44,19;18,55;0;0;
618451;-6,6;-4,95;-6,6;-4,95;45,33;21,57;45,33;21,57;0;0;
618508;0,58;1,63;0,58;1,63;36,1;21,46;36,1;21,46;0;0;
618554;-28,14;-11,1;-28,14;-11,1;17,14;22,58;17,14;22,58;0;0;
618620;-6,58;-46,32;-6,58;-46,32;9,17;20,72;9,17;20,72;0;0;
618664;-27,73;-30,78;-27,73;-30,78;8,01;19,96;8,01;19,96;0;0;
618713;-12,52;-12,13;-12,52;-12,13;7,19;15,23;7,19;15,23;0;0;
618757;-30,75;-19,82;-30,75;-19,82;7,66;14,48;7,66;14,48;0;0;
618820;-9,07;-4,43;-9,07;-4,43;7,49;12,91;7,49;12,91;1;0;
618874;-18,12;-10,1;-18,12;-10,1;7,17;10,18;7,17;10,18;1;0;
618917;-16,58;-5,31;-16,58;-5,31;5,97;8,13;5,97;8,13;1;0;
618964;-19,58;19,16;-19,58;19,16;5,22;9,14;5,22;9,14;1;0;
619033;-82,17;6,75;-82,17;6,75;10,27;10,26;10,27;10,26;1;0;
619081;61,96;0;61,96;0;25,64;9,4;25,64;9,4;1;0;
619126;-32,56;-29,06;-32,56;-29,06;30,43;12,99;30,43;12,99;1;0;
619170;-16,52;-10,56;-16,52;-10,56;31,58;18,16;31,58;18,16;0;0;
619233;-14,52;-154,71;-14,52;-154,71;31,7;28,18;31,7;28,18;0;0;
619282;-17,93;0;-17,93;0;30,93;26,98;30,93;26,98;0;0;
619326;-27,99;0;-27,99;0;17,61;26,31;17,61;26,31;0;0;
619375;-8,53;-8,39;-8,53;-8,39;7,62;23,17;7,62;23,17;0;0;
619435;-10,38;0;-10,38;0;5,25;21,3;5,25;21,3;0;0;
619491;-0,32;7,03;-0,32;7,03;6,89;16,19;6,89;16,19;0;0;
619538;-24,45;-1,76;-24,45;-1,76;7,02;7,75;7,02;7,75;0;0;
619585;-9,78;-31,03;-9,78;-31,03;7,49;9,08;7,49;9,08;0;0;
619648;-10,28;-9,42;-10,28;-9,42;6,97;8,64;6,97;8,64;0;0;
619703;-17,98;-15,43;-17,98;-15,43;6,86;9,23;6,86;9,23;0;0;
619748;-21,36;-11,49;-21,36;-11,49;5,01;7,93;5,01;7,93;1;0;
619797;-17,68;-4,39;-17,68;-4,39;3,93;7,5;3,93;7,5;1;0;
619859;-16,42;-6,41;-16,42;-6,41;3,32;5,94;3,32;5,94;1;0;
619910;61,85;-2,8;61,85;-2,8;18,97;9,98;18,97;9,98;1;0;
619952;207,51;12,02;207,51;12,02;40,2;10,87;40,2;10,87;1;0;
619996;14,8;21,56;14,8;21,56;45,88;15,9;45,88;15,9;0;0;
620057;-20,53;-44,73;-20,53;-44,73;49,94;21,57;49,94;21,57;0;0;
620106;-22,99;37,37;-22,99;37,37;50,27;30,94;50,27;30,94;0;0;
620156;-22,98;5,21;-22,98;5,21;47,38;36,07;47,38;36,07;0;0;
620204;-4,67;-11,15;-4,67;-11,15;26,28;34,11;26,28;34,11;0;0;
620268;-13,98;-12,49;-13,98;-12,49;12,5;30,72;12,5;30,72;0;0;
620313;-27,82;-1,13;-27,82;-1,13;9,95;25,97;9,95;25,97;0;0;
620356;-19;-12,85;-19;-12,85;8,43;18,47;8,43;18,47;0;0;
620402;-25,52;-11,49;-25,52;-11,49;7,7;11,92;7,7;11,92;0;0;
620463;-10,78;0,61;-10,78;0,61;7,87;8,41;7,87;8,41;0;0;
620511;-16,74;-19,21;-16,74;-19,21;7,48;8,77;7,48;8,77;0;0;
620567;-20,12;3,04;-20,12;3,04;7,31;8,39;7,31;8,39;0;0;
620622;-26,4;2,47;-26,4;2,47;7,16;8,97;7,16;8,97;1;0;
620692;-15,94;-6,35;-15,94;-6,35;7,05;8,36;7,05;8,36;1;0;
620737;-1,2;-4,03;-1,2;-4,03;24,78;10,08;24,78;10,08;1;0;
620788;-12,87;-41,68;-12,87;-41,68;28,06;11,7;28,06;11,7;1;0;
620830;-46,46;-12,42;-46,46;-12,42;29,48;11,87;29,48;11,87;1;0;
620889;-13,15;-3,46;-13,15;-3,46;30,15;13,67;30,15;13,67;1;0;
620930;-8,08;5,34;-8,08;5,34;29,6;13,1;29,6;13,1;0;0;
620988;-6,67;9,24;-6,67;9,24;27,96;11,8;27,96;11,8;0;0;
621034;0,94;-5,3;0,94;-5,3;13,05;10,01;13,05;10,01;0;0;
621102;-15,13;-8,06;-15,13;-8,06;9,44;8,23;9,44;8,23;0;0;
621152;-8,35;-9,21;-8,35;-9,21;8,55;7,12;8,55;7,12;0;0;
621197;-9,86;-7,48;-9,86;-7,48;8,28;6,22;8,28;6,22;0;0;
621240;-19,47;-8,42;-19,47;-8,42;8,03;6,28;8,03;6,28;0;0;
621305;-19,37;7;-19,37;7;6,37;6,61;6,37;6,61;0;0;
621350;-30,18;3,83;-30,18;3,83;6,7;7,57;6,7;7,57;0;0;
621405;-24,04;4,56;-24,04;4,56;6,59;8,42;6,59;8,42;0;0;
621450;-14,99;-14,88;-14,99;-14,88;5,96;8,08;5,96;8,08;0;0;
621512;-7,18;-37,75;-7,18;-37,75;5,11;7,51;5,11;7,51;0;0;
621556;-14,31;-7,35;-14,31;-7,35;5,57;7,52;5,57;7,52;1;0;
621611;-2,46;-4,27;-2,46;-4,27;5,97;6,78;5,97;6,78;1;0;
621656;309,82;21,62;309,82;21,62;34,94;8,82;34,94;8,82;1;0;
621719;-40,97;4,06;-40,97;4,06;42,14;12,65;42,14;12,65;1;0;
621773;12,01;-11,32;12,01;-11,32;45,9;12,67;45,9;12,67;1;0;
621820;-14,72;-11,94;-14,72;-11,94;46,19;13,3;46,19;13,3;1;0;
621866;-5,64;-9,78;-5,64;-9,78;46,04;12,88;46,04;12,88;0;0;
621928;-5,19;-1,76;-5,19;-1,76;37,11;13,3;37,11;13,3;0;0;
621978;-12,92;-29,16;-12,92;-29,16;11,9;12,98;11,9;12,98;0;0;
622027;-21,5;12,45;-21,5;12,45;7,85;10,9;7,85;10,9;0;0;
622069;-1,35;-20;-1,35;-20;6,16;11,82;6,16;11,82;0;0;
622132;-10,18;-18,24;-10,18;-18,24;5,33;13,84;5,33;13,84;0;0;
622184;-22,2;-4,92;-22,2;-4,92;5,94;11,87;5,94;11,87;0;0;
622232;-33,98;-9,79;-33,98;-9,79;5,82;9,89;5,82;9,89;0;0;
622276;-28,62;-11,67;-28,62;-11,67;5,96;7,63;5,96;7,63;0;0;
622342;-18,47;-5,42;-18,47;-5,42;6,35;6,75;6,35;6,75;0;0;
622386;-4,24;-5,33;-4,24;-5,33;6,13;4,01;6,13;4,01;0;0;
622429;-5,18;-1,5;-5,18;-1,5;6,35;3,33;6,35;3,33;0;0;
622472;-9,33;-7,54;-9,33;-7,54;7,48;4,18;7,48;4,18;0;0;
622519;-24,23;-9,84;-24,23;-9,84;6,39;4,68;6,39;4,68;0;0;
622586;-27,81;-9,15;-27,81;-9,15;6,73;4,64;6,73;4,64;0;0;
622631;-17,56;-6,54;-17,56;-6,54;6,74;4,45;6,74;4,45;0;0;
622679;-14,02;-3,57;-14,02;-3,57;6,79;4,36;6,79;4,36;0;0;
622724;-22,41;-9,96;-22,41;-9,96;7,34;4,15;7,34;4,15;0;0;
622787;-24,08;-8,92;-24,08;-8,92;7;3,67;7;3,67;0;0;
622832;-16,17;-9,96;-16,17;-9,96;6,59;3,42;6,59;3,42;0;0;
622881;-20,81;1,42;-20,81;1,42;6,6;4,11;6,6;4,11;0;0;
622936;-17,32;-9,71;-17,32;-9,71;6,22;4,13;6,22;4,13;0;0;
622998;-23,54;-28,07;-23,54;-28,07;6,38;7,33;6,38;7,33;0;0;
623045;-21,42;-18,87;-21,42;-18,87;5,88;8,82;5,88;8,82;0;0;
623095;-24,76;-8,47;-24,76;-8,47;5,19;9,23;5,19;9,23;0;0;
623141;-18,99;-6,07;-18,99;-6,07;5,65;9,15;5,65;9,15;0;0;
623210;-14,55;-13,02;-14,55;-13,02;4,76;8,72;4,76;8,72;0;0;
623253;-20,21;-2,05;-20,21;-2,05;4,57;10,04;4,57;10,04;0;0;
623296;-9,32;-2,13;-9,32;-2,13;3,84;6,9;3,84;6,9;0;0;
623351;-14,04;12,67;-14,04;12,67;4,54;6,74;4,54;6,74;0;0;
623416;-18,43;-4,98;-18,43;-4,98;5,19;6,46;5,19;6,46;0;0;
623459;3,94;-0,12;3,94;-0,12;5,9;6,58;5,9;6,58;0;0;
623504;-11,3;1,89;-11,3;1,89;5,61;6,92;5,61;6,92;0;0;
623548;-5,52;-4,32;-5,52;-4,32;5,89;6,14;5,89;6,14;0;0;
623618;-16,56;0,37;-16,56;0,37;5,87;6,64;5,87;6,64;0;0;
623662;-22,66;-10;-22,66;-10;6,37;5,89;6,37;5,89;0;0;
623705;-45,43;-19,07;-45,43;-19,07;7,82;6,04;7,82;6,04;0;0;
623756;-3,04;-4,4;-3,04;-4,4;8,69;6,76;8,69;6,76;0;0;
623820;-14,32;0,14;-14,32;0,14;8,95;7,15;8,95;7,15;0;1;
623872;-17,77;10,57;-17,77;10,57;8,94;8,47;8,94;8,47;0;1;
623922;-9,49;2,17;-9,49;2,17;10,11;8,55;10,11;8,55;0;1;
623968;-4,25;2,41;-4,25;2,41;9,16;11,53;9,16;11,53;0;1;
624026;-50,95;-145,83;-50,95;-145,83;10,02;24,52;10,02;24,52;0;1;
624068;0,9;151,4;0,9;151,4;11,36;31,86;11,36;31,86;0;1;
624122;3,82;110,68;3,82;110,68;11,43;38,38;11,43;38,38;0;1;
624172;-16,09;-18,58;-16,09;-18,58;12,9;52,74;12,9;52,74;0;0;
624232;-34,08;-45,92;-34,08;-45,92;14,13;52,63;14,13;52,63;0;0;
624278;-9,77;-5,43;-9,77;-5,43;14,42;47,53;14,42;47,53;0;0;
624322;-28,9;-9,75;-28,9;-9,75;11,39;35,34;11,39;35,34;0;0;
624364;-20,48;-13,81;-20,48;-13,81;9,74;27,83;9,74;27,83;0;0;
624407;-12,77;-15,28;-12,77;-15,28;7,67;19,57;7,67;19,57;0;0;
624468;-5,01;-6,07;-5,01;-6,07;6,18;5,59;6,18;5,59;0;0;
624518;-20,24;-11,05;-20,24;-11,05;4,73;4,1;4,73;4,1;0;0;
624562;-26,74;-12,78;-26,74;-12,78;4,88;4,22;4,88;4,22;0;0;
624616;-28,38;-7,15;-28,38;-7,15;4,53;3,09;4,53;3,09;0;0;
624662;-18,22;-15,92;-18,22;-15,92;4,3;3,63;4,3;3,63;0;0;
624723;-19,38;-8,86;-19,38;-8,86;4,45;3,46;4,45;3,46;0;0;
624772;-12,05;-16,25;-12,05;-16,25;4,62;3,31;4,62;3,31;0;0;
624820;-17,49;-2,74;-17,49;-2,74;4,79;3,19;4,79;3,19;0;0;
624863;-13,67;-7,39;-13,67;-7,39;4,39;3,58;4,39;3,58;0;0;
624940;-18,97;-15,13;-18,97;-15,13;5,05;3,65;5,05;3,65;0;0;
624982;-23,54;-8,56;-23,54;-8,56;4,67;2,94;4,67;2,94;0;0;
625027;-16,12;-12,55;-16,12;-12,55;4,57;2,99;4,57;2,99;0;0;
625072;-13,67;-8,03;-13,67;-8,03;3,97;3,09;3,97;3,09;0;0;
625137;-28,58;-10,08;-28,58;-10,08;4,54;2,87;4,54;2,87;0;0;
625183;-8,76;-6,04;-8,76;-6,04;4,3;3,19;4,3;3,19;0;0;
625230;-6,86;-6,1;-6,86;-6,1;4,71;3,11;4,71;3,11;0;0;
625287;-14,02;-5,89;-14,02;-5,89;4,97;3,17;4,97;3,17;0;0;
625350;-16,51;-8,78;-16,51;-8,78;4,79;2,82;4,79;2,82;0;0;
625394;-9,83;-3,38;-9,83;-3,38;6,16;3,26;6,16;3,26;0;0;
625437;-9,37;-7,82;-9,37;-7,82;5,42;3,06;5,42;3,06;0;0;
625487;-16,11;-3,75;-16,11;-3,75;5,34;3,46;5,34;3,46;0;1;
625552;-14,79;-9,27;-14,79;-9,27;4,76;3,65;4,76;3,65;0;1;
625596;-19,01;1,84;-19,01;1,84;5,44;4,17;5,44;4,17;0;1;
625639;-37,11;-102,08;-37,11;-102,08;6,41;13,41;6,41;13,41;0;1;
625690;-27,85;23,11;-27,85;23,11;6,59;19,27;6,59;19,27;0;1;
625751;-33,91;8,96;-33,91;8,96;7,42;21,97;7,42;21,97;0;1;
625796;-22,64;53,1;-22,64;53,1;7,52;25,3;7,52;25,3;0;1;
625839;-22,72;-24,41;-22,72;-24,41;7,46;30,48;7,46;30,48;0;0;
625886;-20,06;-12,28;-20,06;-12,28;7,58;27,89;7,58;27,89;0;0;
625949;-10,66;-5,23;-10,66;-5,23;6,16;20,04;6,16;20,04;0;0;
625996;-6,23;-6,43;-6,23;-6,43;6,5;14,76;6,5;14,76;0;0;
626044;-16,97;-11,75;-16,97;-11,75;6,02;11,96;6,02;11,96;0;0;
626093;-28,21;-0,09;-28,21;-0,09;6,03;9,53;6,03;9,53;0;0;
626151;-5,29;-12,87;-5,29;-12,87;5,8;3,51;5,8;3,51;0;0;
626206;-16,34;-20,42;-16,34;-20,42;5,17;3,1;5,17;3,1;0;0;
626250;-12,72;-18,38;-12,72;-18,38;5,38;3,77;5,38;3,77;0;0;
626300;-17,48;-5,89;-17,48;-5,89;4,02;4,04;4,02;4,04;0;0;
626362;-22,1;-11,78;-22,1;-11,78;3,43;4,35;3,43;4,35;0;0;
626407;-13,63;-6,55;-13,63;-6,55;3,41;4,45;3,41;4,45;0;0;
626456;-7,3;-10,52;-7,3;-10,52;3,5;4,8;3,5;4,8;0;0;
626501;-14,95;-4,01;-14,95;-4,01;4,06;4,6;4,06;4,6;0;0;
626558;-10,44;-6,94;-10,44;-6,94;4,28;3,98;4,28;3,98;0;0;
626603;-9,63;-9,54;-9,63;-9,54;4,48;3,99;4,48;3,99;0;0;
626670;-15;-4,98;-15;-4,98;4,39;3,57;4,39;3,57;0;0;
626730;-19,22;-11,19;-19,22;-11,19;4,42;3,68;4,42;3,68;0;0;
626808;-12,57;-11,43;-12,57;-11,43;4,6;3,73;4,6;3,73;0;0;
626864;-16,44;-12,86;-16,44;-12,86;4,42;3,66;4,42;3,66;0;0;
626927;-16,66;-0,89;-16,66;-0,89;4,31;4,13;4,31;4,13;0;0;
626978;-19,16;-9,24;-19,16;-9,24;3,82;4,02;3,82;4,02;0;0;
627069;-11,76;-10,18;-11,76;-10,18;4,16;3,91;4,16;3,91;0;0;
627128;-16,47;-4,88;-16,47;-4,88;3,56;3,77;3,56;3,77;0;0;
627190;-17,33;-6,33;-17,33;-6,33;2,95;3,93;2,95;3,93;0;0;
627273;-18,08;-10,09;-18,08;-10,09;2,96;4,1;2,96;4,1;0;0;
627316;-9,35;-6,45;-9,35;-6,45;3,27;3,77;3,27;3,77;0;1;
627360;-18,07;-4,92;-18,07;-4,92;3,54;3,9;3,54;3,9;0;1;
627416;-16,05;-11,33;-16,05;-11,33;2,92;3,95;2,92;3,95;0;1;
627479;-1,56;117,48;-1,56;117,48;4,23;14,75;4,23;14,75;0;1;
627524;-17,97;-24,88;-17,97;-24,88;5,7;30,4;5,7;30,4;0;1;
627569;-22,96;-69,78;-22,96;-69,78;6,92;42,39;6,92;42,39;0;1;
627621;-5,61;-3,51;-5,61;-3,51;7,51;51,18;7,51;51,18;0;0;
627685;-16,88;-9,66;-16,88;-9,66;8,19;55,75;8,19;55,75;0;0;
627729;-15,47;-4,71;-15,47;-4,71;8,05;54,77;8,05;54,77;0;0;
627787;-26,54;4,8;-26,54;4,8;7,88;45,59;7,88;45,59;0;0;
627838;-11,88;-13,92;-11,88;-13,92;6,39;33,96;6,39;33,96;0;0;
627897;-13,48;-11,32;-13,48;-11,32;5,05;18,22;5,05;18,22;0;0;
627946;-16,99;-9,26;-16,99;-9,26;5,05;14,23;5,05;14,23;0;0;
627989;-27,78;-12,05;-27,78;-12,05;4,91;9,14;4,91;9,14;0;0;
628036;-13,92;-6,05;-13,92;-6,05;5,27;6,59;5,27;6,59;0;0;
628101;-26,67;-0,09;-26,67;-0,09;5,52;3,5;5,52;3,5;0;0;
628147;-14,4;-13,96;-14,4;-13,96;5,11;2,95;5,11;2,95;0;0;
628195;-15;-0,33;-15;-0,33;4,93;3,24;4,93;3,24;0;0;
628239;-26,91;-4,72;-26,91;-4,72;4,79;3,22;4,79;3,22;0;0;
628303;-18,36;-8,41;-18,36;-8,41;4,07;3,28;4,07;3,28;0;0;
628351;-18,33;-1,65;-18,33;-1,65;3,94;3,39;3,94;3,39;0;0;
628395;-12,09;-9,03;-12,09;-9,03;3,68;3,57;3,68;3,57;0;0;
628440;-16,62;-6,29;-16,62;-6,29;4,49;3,35;4,49;3,35;0;0;
628503;-21,26;-13,86;-21,26;-13,86;4,8;3,18;4,8;3,18;0;0;
628551;-25,55;-3,59;-25,55;-3,59;4,62;3,35;4,62;3,35;0;0;
628600;-20,96;-41,98;-20,96;-41,98;4,65;6,33;4,65;6,33;0;0;
628649;-18,58;2,78;-18,58;2,78;4,49;6,74;4,49;6,74;0;0;
628713;-13,04;-16,1;-13,04;-16,1;4,46;6,77;4,46;6,77;0;0;
628760;-13,54;-8,28;-13,54;-8,28;4,06;6,78;4,06;6,78;0;0;
628803;-14,42;-4,24;-14,42;-4,24;4,2;7,05;4,2;7,05;0;0;
628847;-16,9;-9,08;-16,9;-9,08;4,12;6,22;4,12;6,22;0;0;
628914;-18,66;-14,73;-18,66;-14,73;4,13;4,8;4,13;4,8;0;0;
628967;-15,94;-11,93;-15,94;-11,93;4,05;3,95;4,05;3,95;0;0;
629012;-13,26;-7,04;-13,26;-7,04;4,42;3,63;4,42;3,63;0;0;
629055;-17,09;7,53;-17,09;7,53;3,82;13,16;3,82;13,16;0;1;
629118;-20,99;-224,98;-20,99;-224,98;4,47;30,83;4,47;30,83;0;1;
629160;-16,5;22,75;-16,5;22,75;5,12;40,87;5,12;40,87;0;1;
629208;-12,53;-110,12;-12,53;-110,12;6,02;45,67;6,02;45,67;0;1;
629252;-30,4;-60,61;-30,4;-60,61;6,01;51,76;6,01;51,76;0;0;
629297;-15,25;-37,05;-15,25;-37,05;5,61;54;5,61;54;0;0;
629368;-3,17;-8,4;-3,17;-8,4;5,92;44,49;5,92;44,49;0;0;
629420;-14,57;-3,15;-14,57;-3,15;5,35;25,11;5,35;25,11;0;0;
629464;-17,98;-4,18;-17,98;-4,18;4,98;22,03;4,98;22,03;0;0;
629507;-16,73;-14,26;-16,73;-14,26;4,4;18,34;4,4;18,34;0;0;
629567;-15,93;-9,61;-15,93;-9,61;4,48;12,26;4,48;12,26;0;0;
629611;-17,93;-4,72;-17,93;-4,72;4,84;5,68;4,84;5,68;0;0;
629655;-18,21;-7,33;-18,21;-7,33;4,51;4,92;4,51;4,92;0;0;
629708;-18,96;-6,98;-18,96;-6,98;3,68;3,32;3,68;3,32;0;0;
629753;-17,45;-8,25;-17,45;-8,25;3,48;3,03;3,48;3,03;0;0;
629813;-19,59;-0,03;-19,59;-0,03;3,39;2,93;3,39;2,93;0;0;
629861;-16,72;-10,68;-16,72;-10,68;3,27;3,31;3,27;3,31;0;0;
629907;-26,66;-9,42;-26,66;-9,42;3,79;3,31;3,79;3,31;0;0;
629951;-18,24;-5,71;-18,24;-5,71;3,6;3,68;3,6;3,68;0;0;
630019;-11,99;-8,38;-11,99;-8,38;3,76;4,33;3,76;4,33;0;0;
630062;-20,87;-3,92;-20,87;-3,92;3,27;4,05;3,27;4,05;0;0;
630111;-15,39;-16,99;-15,39;-16,99;4,35;4,36;4,35;4,36;0;0;
630158;-23,43;-5,7;-23,43;-5,7;4,39;3,61;4,39;3,61;0;0;
630226;-7,57;-8,03;-7,57;-8,03;4,26;3,16;4,26;3,16;0;0;
630275;-12,08;-10,07;-12,08;-10,07;4,67;2,37;4,67;2,37;0;0;
630316;-26,63;-10,43;-26,63;-10,43;5,21;3,02;5,21;3,02;0;0;
630360;-20,35;-8,17;-20,35;-8,17;5,37;2,87;5,37;2,87;0;0;
630420;-17,6;-3,09;-17,6;-3,09;4,86;2,53;4,86;2,53;0;0;
630463;-25,24;-10,09;-25,24;-10,09;5,68;2,57;5,68;2,57;0;0;
630512;-14,03;-7,94;-14,03;-7,94;5,46;2,83;5,46;2,83;0;0;
630560;-12,07;-9,46;-12,07;-9,46;5,89;2,84;5,89;2,84;0;0;
630605;-16,66;-7,25;-16,66;-7,25;5,63;2,49;5,63;2,49;0;0;
630668;-17,74;-8,49;-17,74;-8,49;5,65;2,94;5,65;2,94;0;0;
630710;-12,23;-6,19;-12,23;-6,19;5,58;2,82;5,58;2,82;0;0;
630753;-16,01;-7,43;-16,01;-7,43;4,52;2,84;4,52;2,84;0;0;
630800;-14,72;-5,71;-14,72;-5,71;4,47;3,03;4,47;3,03;0;0;
630856;-11,92;-3,92;-11,92;-3,92;4,23;3,15;4,23;3,15;0;0;
630917;-12,54;26,31;-12,54;26,31;4,39;10,22;4,39;10,22;0;1;
630959;-19,92;19,4;-19,92;19,4;5,14;19,17;5,14;19,17;0;1;
631004;-14,1;-32,85;-14,1;-32,85;4,95;22,38;4,95;22,38;0;1;
631049;-8,03;17,26;-8,03;17,26;4,99;23,24;4,99;23,24;0;1;
631111;-8,76;26;-8,76;26;5,45;26,82;5,45;26,82;0;1;
631160;-20,32;-45,9;-20,32;-45,9;4,88;23,46;4,88;23,46;0;1;
631204;-8,4;-9,1;-8,4;-9,1;4,62;20,59;4,62;20,59;0;1;
631254;-9,82;-15,91;-9,82;-15,91;4,66;16,22;4,66;16,22;0;0;
631328;-13,64;-14,11;-13,64;-14,11;4,92;15,12;4,92;15,12;0;0;
631375;-21,09;-14,25;-21,09;-14,25;4,57;12,8;4,57;12,8;0;0;
631420;-17,88;-10,4;-17,88;-10,4;4,53;9,97;4,53;9,97;0;0;
631465;-19,83;-10,35;-19,83;-10,35;4,5;8,16;4,5;8,16;0;0;
631531;-16,27;-5,11;-16,27;-5,11;3,71;5,74;3,71;5,74;0;0;
631577;-9,93;-7,53;-9,93;-7,53;3,89;3,57;3,89;3,57;0;0;
631622;-9,52;-4,99;-9,52;-4,99;4,06;3,15;4,06;3,15;0;0;
631672;-21,74;-14,75;-21,74;-14,75;3,45;3,25;3,45;3,25;0;0;
631738;-16,41;-6,93;-16,41;-6,93;3,3;2,93;3,3;2,93;0;0;
631782;-16,83;-9,02;-16,83;-9,02;3,72;2,88;3,72;2,88;0;0;
631825;-18,59;-3,76;-18,59;-3,76;3,5;3,32;3,5;3,32;0;0;
631872;-21,53;-3,2;-21,53;-3,2;3,55;3,51;3,55;3,51;0;0;
631933;-22,29;-1,63;-22,29;-1,63;3,45;3,23;3,45;3,23;0;0;
631981;-11,1;-1,64;-11,1;-1,64;3,38;3,52;3,38;3,52;0;0;
632032;-19,94;-3,83;-19,94;-3,83;3,33;3,2;3,33;3,2;0;0;
632081;-15,28;-8,89;-15,28;-8,89;3,25;3,07;3,25;3,07;0;0;
632143;-16,97;-11,58;-16,97;-11,58;3,41;2,84;3,41;2,84;0;0;
632185;-26,81;-9,87;-26,81;-9,87;3,54;3,05;3,54;3,05;0;0;
632233;-17,2;-11,21;-17,2;-11,21;4,08;3,11;4,08;3,11;0;0;
632276;-18,44;-5,7;-18,44;-5,7;4,45;3,01;4,45;3,01;0;0;
632343;-17,88;-13,22;-17,88;-13,22;4,04;3,04;4,04;3,04;0;0;
632386;-20,29;-9,01;-20,29;-9,01;4,32;3,25;4,32;3,25;0;0;
632438;-16,55;-9,96;-16,55;-9,96;3,74;3,24;3,74;3,24;0;0;
632484;-17,1;-7,97;-17,1;-7,97;3,5;2,85;3,5;2,85;0;0;
632546;-14,25;-2,33;-14,25;-2,33;3,49;3,07;3,49;3,07;0;0;
632589;-8,07;-12,79;-8,07;-12,79;3,99;3,25;3,99;3,25;0;0;
632629;-22,56;-4,22;-22,56;-4,22;4,2;3,19;4,2;3,19;0;1;
632677;-6,91;-3,24;-6,91;-3,24;4,93;3,29;4,93;3,29;0;1;
632720;-17,7;-26,24;-17,7;-26,24;5,01;8,88;5,01;8,88;0;1;
632780;-40,69;83,03;-40,69;83,03;5,86;17,1;5,86;17,1;0;1;
632835;-13,61;39,81;-13,61;39,81;7,68;25,66;7,68;25,66;0;1;
632880;-15,94;-2,13;-15,94;-2,13;8,95;31,49;8,95;31,49;0;1;
632924;-16,77;-14,74;-16,77;-14,74;9,1;33,21;9,1;33,21;0;1;
632991;-18,66;-0,74;-18,66;-0,74;9,11;36,66;9,11;36,66;0;0;
633037;-18,92;-11,07;-18,92;-11,07;9,08;29,58;9,08;29,58;0;0;
633084;-14,21;-5,2;-14,21;-5,2;7,01;20,83;7,01;20,83;0;0;
633128;-14,42;-5,53;-14,42;-5,53;5,25;12,58;5,25;12,58;0;0;
633196;-15,91;-7,18;-15,91;-7,18;4,02;9,94;4,02;9,94;0;0;
633242;-16,42;-7,92;-16,42;-7,92;3,26;6,04;3,26;6,04;0;0;
633293;-18,33;-8,91;-18,33;-8,91;2,68;4,79;2,68;4,79;0;0;
633339;-14,04;-8,99;-14,04;-8,99;2,12;4,27;2,12;4,27;0;0;
633407;-18,4;-5,87;-18,4;-5,87;2,65;2,51;2,65;2,51;0;0;
633450;-19,7;-7,65;-19,7;-7,65;2,52;2,7;2,52;2,7;0;0;
633526;-26,78;-0,31;-26,78;-0,31;3,36;2,95;3,36;2,95;0;0;
633580;-23,54;-11,68;-23,54;-11,68;3,55;2,96;3,55;2,96;0;0;
633648;-18,83;-5,23;-18,83;-5,23;3,8;2,76;3,8;2,76;0;0;
633694;-20,01;-11,07;-20,01;-11,07;3,72;2,94;3,72;2,94;0;0;
633745;-18,3;-9,07;-18,3;-9,07;3,74;2,97;3,74;2,97;0;0;
633792;-16,27;-8,58;-16,27;-8,58;3,61;2,89;3,61;2,89;0;0;
633855;-18,33;-11,52;-18,33;-11,52;3,08;3,26;3,08;3,26;0;0;
633905;-15,91;-5,45;-15,91;-5,45;3,22;3,08;3,22;3,08;0;0;
633955;-15,94;-6,86;-15,94;-6,86;3,04;3,36;3,04;3,36;0;0;
634007;-14,94;-9,3;-14,94;-9,3;3,04;3,13;3,04;3,13;0;0;
634084;-18,44;-12,06;-18,44;-12,06;3,16;3,45;3,16;3,45;0;0;
634126;-15,43;-9,11;-15,43;-9,11;3,17;3,4;3,17;3,4;0;0;
634170;-11,62;-5,07;-11,62;-5,07;3,32;2,93;3,32;2,93;0;0;
634217;-21,07;-12,06;-21,07;-12,06;3,53;2,9;3,53;2,9;0;0;
634279;-10,05;-6,44;-10,05;-6,44;3,53;2,92;3,53;2,92;0;0;
634323;-7,75;-9,45;-7,75;-9,45;3,43;3,26;3,43;3,26;0;0;
634368;-14,03;-5;-14,03;-5;3,58;3,17;3,58;3,17;0;0;
634411;-15,82;-10;-15,82;-10;3,48;3,23;3,48;3,23;0;0;
634455;-13,86;-8,04;-13,86;-8,04;3,27;3,4;3,27;3,4;0;0;
634514;-28,27;-2,97;-28,27;-2,97;3,29;3,26;3,29;3,26;0;0;
634559;-21,95;-10,02;-21,95;-10,02;3,46;3,13;3,46;3,13;0;0;
634608;-13,95;-4,32;-13,95;-4,32;3,33;3,04;3,33;3,04;0;0;
634652;-18,12;-11,5;-18,12;-11,5;3,65;3,29;3,65;3,29;0;0;
634700;-18,84;-10,17;-18,84;-10,17;3,38;3,33;3,38;3,33;0;0;
634772;-18,56;-5,7;-18,56;-5,7;3,92;3,28;3,92;3,28;0;0;
634846;-11,84;-5,31;-11,84;-5,31;4,79;3,4;4,79;3,4;0;0;
634904;-39,45;0,18;-39,45;0,18;6,29;3,76;6,29;3,76;0;0;
634950;-24,62;5,24;-24,62;5,24;7,56;9,97;7,56;9,97;0;1;
635017;-18,59;5,52;-18,59;5,52;8,76;14,99;8,76;14,99;0;1;
635066;-28,51;-37,63;-28,51;-37,63;10,35;19,78;10,35;19,78;0;1;
635116;-14,94;-13,69;-14,94;-13,69;10,1;19,67;10,1;19,67;0;1;
635170;-17,96;-7,55;-17,96;-7,55;9,23;21,54;9,23;21,54;0;1;
635233;-21,63;3,65;-21,63;3,65;7,45;18,64;7,45;18,64;0;1;
635280;-17,22;56,82;-17,22;56,82;7,26;25,02;7,26;25,02;0;0;
635326;-13,01;4,17;-13,01;4,17;7,27;25,51;7,27;25,51;0;0;
635376;-21,33;14,82;-21,33;14,82;6,33;36,09;6,33;36,09;0;0;
635443;-13,83;-13,55;-13,83;-13,55;6,95;38,72;6,95;38,72;0;0;
635490;-16,76;3,02;-16,76;3,02;7,09;39,15;7,09;39,15;0;0;
635553;-22,37;-2,74;-22,37;-2,74;6,34;36,62;6,34;36,62;0;0;
635606;-21,17;-4,34;-21,17;-4,34;5,17;27,43;5,17;27,43;0;0;
635667;-21,71;-23,56;-21,71;-23,56;5,6;20,14;5,6;20,14;0;0;
635710;-14,39;-5,96;-14,39;-5,96;5,22;10,28;5,22;10,28;0;0;
635757;-18,27;-8,42;-18,27;-8,42;5,18;6,21;5,18;6,21;0;0;
635803;-12,22;-6,43;-12,22;-6,43;5,86;3,72;5,86;3,72;0;1;
635865;-13,72;-7,76;-13,72;-7,76;6,21;3,67;6,21;3,67;0;1;
635909;-1,95;62,98;-1,95;62,98;6,41;6,17;6,41;6,17;0;1;
635956;-29,33;5,71;-29,33;5,71;8,05;11,39;8,05;11,39;0;1;
636002;-1,65;116,93;-1,65;116,93;9,34;27,13;9,34;27,13;0;1;
636046;-16,19;66,58;-16,19;66,58;10,66;36,4;10,66;36,4;0;1;
636106;-18,75;31,24;-18,75;31,24;10,78;39,31;10,78;39,31;0;1;
636150;-30,56;-107,83;-30,56;-107,83;11,03;46,43;11,03;46,43;0;0;
636193;-8,28;-2,35;-8,28;-2,35;8,91;45,43;8,91;45,43;0;0;
636238;-13,41;-5,34;-13,41;-5,34;7,62;33,85;7,62;33,85;0;0;
636289;-27,97;-3,95;-27,97;-3,95;6,63;22,92;6,63;22,92;0;0;
636350;-8,87;9,76;-8,87;9,76;6,82;18,18;6,82;18,18;0;0;
636394;-4,38;-5,16;-4,38;-5,16;6,8;14,27;6,8;14,27;0;0;
636439;3,21;-8,19;3,21;-8,19;7,23;6,17;7,23;6,17;0;0;
636484;-16,91;-12,39;-16,91;-12,39;8,52;6,99;8,52;6,99;0;0;
636528;-15;-19,84;-15;-19,84;9,34;6,9;9,34;6,9;0;0;
636590;-16,28;17,24;-16,28;17,24;8,72;7,3;8,72;7,3;0;0;
636634;-9,09;-0,5;-9,09;-0,5;8,5;15,67;8,5;15,67;0;0;
636685;-48,28;-141,55;-48,28;-141,55;8,6;23,13;8,6;23,13;0;0;
636729;7,54;-45,63;7,54;-45,63;8,86;30,54;8,86;30,54;0;1;
636798;-47,63;-31,13;-47,63;-31,13;8,55;30,93;8,55;30,93;0;1;
636848;-9,66;10,92;-9,66;10,92;8,56;34,33;8,56;34,33;0;1;
636893;-27,61;-22,73;-27,61;-22,73;7,63;33,84;7,63;33,84;0;1;
636940;-13,76;2,65;-13,76;2,65;6,69;28,87;6,69;28,87;0;1;
637005;-20,04;4,87;-20,04;4,87;5,43;26,6;5,43;26,6;0;1;
637051;-16,63;-12,56;-16,63;-12,56;4,54;19,82;4,54;19,82;0;1;
637101;-4,99;-8,73;-4,99;-8,73;5,04;17,6;5,04;17,6;0;0;
637148;-18,86;-9,86;-18,86;-9,86;4,99;13,92;4,99;13,92;0;0;
637216;-12,31;-4,97;-12,31;-4,97;5,36;7,79;5,36;7,79;0;0;
637260;-15,73;-2,6;-15,73;-2,6;6,13;5,73;6,13;5,73;0;0;
637309;-16,58;-4,53;-16,58;-4,53;5,91;4,02;5,91;4,02;0;0;
637352;-27,05;-13,04;-27,05;-13,04;6,29;4,14;6,29;4,14;0;0;
637419;-25,62;-3,87;-25,62;-3,87;6,05;4,56;6,05;4,56;0;0;
637469;-21,21;-11,82;-21,21;-11,82;5,65;4,69;5,65;4,69;0;0;
637526;-11,13;-19,36;-11,13;-19,36;5,77;4,64;5,77;4,64;0;0;
637574;-25,32;-6,87;-25,32;-6,87;5,41;4,17;5,41;4,17;0;0;
637638;-22,99;-8,58;-22,99;-8,58;5,41;3,74;5,41;3,74;0;0;
637681;-19,34;-19,89;-19,34;-19,89;4,21;3,22;4,21;3,22;0;0;
637727;-21,89;-7,42;-21,89;-7,42;4,28;2,92;4,28;2,92;0;0;
637785;-25,05;-7,04;-25,05;-7,04;3,9;3,08;3,9;3,08;0;0;
637853;-15,56;-11,06;-15,56;-11,06;3,47;2,58;3,47;2,58;0;0;
637905;-18,1;-10,58;-18,1;-10,58;3,11;2,69;3,11;2,69;0;0;
637952;-25,42;-1,3;-25,42;-1,3;3,65;3,24;3,65;3,24;0;0;
637996;-18,24;-1,35;-18,24;-1,35;3,4;3,67;3,4;3,67;0;0;
638056;-23,87;-3,41;-23,87;-3,41;3,56;3,76;3,56;3,76;0;0;
638103;-14,75;-11,74;-14,75;-11,74;3,75;3,96;3,75;3,96;0;0;
638155;-16,83;-5,16;-16,83;-5,16;3,7;4,28;3,7;4,28;0;0;
638198;-12,01;-16,35;-12,01;-16,35;3,49;4,01;3,49;4,01;0;0;
638264;-24,23;-5,88;-24,23;-5,88;2,9;3,92;2,9;3,92;0;0;
638313;-8,93;-9,48;-8,93;-9,48;3,11;3,64;3,11;3,64;0;0;
638360;-16,55;0;-16,55;0;3,12;3,98;3,12;3,98;0;0;
638402;-20,67;-9,74;-20,67;-9,74;3,63;3,67;3,63;3,67;0;0;
638463;-13,66;0;-13,66;0;3,65;4,34;3,65;4,34;0;0;
638508;-14,5;-7,99;-14,5;-7,99;3,73;4,26;3,73;4,26;0;1;
638558;-5,08;-10,26;-5,08;-10,26;4,89;4,2;4,89;4,2;0;1;
638613;-20,08;-3,79;-20,08;-3,79;5,71;4,16;5,71;4,16;0;1;
638672;-18,98;0;-18,98;0;5,43;4,81;5,43;4,81;0;1;
638730;-28,73;-1,69;-28,73;-1,69;6,34;10,86;6,34;10,86;0;1;
638773;-13,52;-84,2;-13,52;-84,2;8,21;16,59;8,21;16,59;0;1;
638823;-18,17;35,03;-18,17;35,03;7,98;19,98;7,98;19,98;0;1;
638867;-4,76;-5,19;-4,76;-5,19;7,6;28,02;7,6;28,02;0;0;
638930;-19,68;-7,21;-19,68;-7,21;6,91;28,31;6,91;28,31;0;0;
638975;-22,86;-3,85;-22,86;-3,85;6,23;24,16;6,23;24,16;0;0;
639023;-13,66;-9,82;-13,66;-9,82;5,24;18,26;5,24;18,26;0;0;
639075;-13,9;0;-13,9;0;3,94;14,95;3,94;14,95;0;0;
639134;-24,78;-7,2;-24,78;-7,2;4,02;8,55;4,02;8,55;0;0;
639178;-17,69;-3,06;-17,69;-3,06;3,78;3,49;3,78;3,49;0;0;
639221;-11,27;-4,91;-11,27;-4,91;3,98;3,16;3,98;3,16;0;0;
639265;-21,54;-9,13;-21,54;-9,13;3,94;3,61;3,94;3,61;0;0;
639310;-16,83;-5,69;-16,83;-5,69;3,52;3,47;3,52;3,47;0;0;
639374;-18,11;-8,91;-18,11;-8,91;3,49;2,9;3,49;2,9;0;0;
639430;-13,22;-0,58;-13,22;-0,58;3,07;3,28;3,07;3,28;0;0;
639473;-20,58;-11,51;-20,58;-11,51;3,08;3,61;3,08;3,61;0;0;
639516;-19,39;0;-19,39;0;2,68;4,24;2,68;4,24;0;0;
639576;-19,19;-9,63;-19,19;-9,63;2,62;3,89;2,62;3,89;0;0;
639624;-28,62;-11,02;-28,62;-11,02;3,1;4,13;3,1;4,13;0;0;
639667;-19,81;-9,31;-19,81;-9,31;3,3;3,69;3,3;3,69;0;0;
639715;-14,28;-7,07;-14,28;-7,07;3,43;3,73;3,43;3,73;0;0;
639757;-20,33;-15,91;-20,33;-15,91;3,29;3,45;3,29;3,45;0;0;
639827;-16,28;0;-16,28;0;3;3,88;3;3,88;0;0;
639868;-14,04;-9,24;-14,04;-9,24;3,03;4,12;3,03;4,12;0;0;
639917;-10,91;0;-10,91;0;2,97;4,78;2,97;4,78;0;0;
639960;-16,57;0;-16,57;0;2,5;5,74;2,5;5,74;0;0;
640021;-22;0;-22;0;2,57;6,25;2,57;6,25;0;0;
640064;-16,79;0;-16,79;0;3,19;6,6;3,19;6,6;0;0;
640110;-12,03;0;-12,03;0;3,29;6,8;3,29;6,8;0;0;
640153;-11,62;0;-11,62;0;2,97;7,31;2,97;7,31;0;0;
640201;-30,03;-5,3;-30,03;-5,3;3,75;6,63;3,75;6,63;0;0;
640262;-7,98;-9,45;-7,98;-9,45;4,86;6,06;4,86;6,06;0;0;
640311;-28,52;-9,28;-28,52;-9,28;5,84;5,23;5,84;5,23;0;0;
640358;-64,29;30,68;-64,29;30,68;7,63;12,91;7,63;12,91;0;1;
640400;-0,32;0;-0,32;0;9,51;14,49;9,51;14,49;0;1;
640466;7,62;0;7,62;0;12,71;14,82;12,71;14,82;0;1;
640510;-30,01;33,82;-30,01;33,82;13,76;18,17;13,76;18,17;0;1;
640559;-15,9;-5,69;-15,9;-5,69;13,42;24,66;13,42;24,66;0;1;
640601;-22,21;-18,87;-22,21;-18,87;12,53;31,05;12,53;31,05;0;1;
640661;-20,11;73,72;-20,11;73,72;11,08;25,74;11,08;25,74;0;1;
640712;-18,62;-12,33;-18,62;-12,33;8,97;25,15;8,97;25,15;0;0;
640768;-10,54;0;-10,54;0;5,56;24,01;5,56;24,01;0;0;
640825;-14,56;-41,52;-14,56;-41,52;3,81;22,75;3,81;22,75;0;0;
640907;-15,82;-8,21;-15,82;-8,21;3,17;17,02;3,17;17,02;0;0;
640956;-21,12;0;-21,12;0;3,44;12,38;3,44;12,38;0;0;
641001;-16,88;0;-16,88;0;3,07;9,89;3,07;9,89;0;0;
641046;-11,76;-6,45;-11,76;-6,45;3,45;9,69;3,45;9,69;0;0;
641106;-22,16;0;-22,16;0;3,43;6,99;3,43;6,99;0;0;
641155;-15,12;-4,4;-15,12;-4,4;3,48;5,35;3,48;5,35;0;0;
641197;-19,34;-6,81;-19,34;-6,81;3,94;4,98;3,94;4,98;0;0;
641239;-21,72;-8,39;-21,72;-8,39;3,72;4,12;3,72;4,12;0;0;
641284;-19,51;-7,65;-19,51;-7,65;3,92;3,94;3,92;3,94;0;0;
641349;-15,46;-8,01;-15,46;-8,01;3,59;3,66;3,59;3,66;0;0;
641396;-11,35;-9,11;-11,35;-9,11;3,6;3,24;3,6;3,24;0;0;
641439;-15,9;-7,11;-15,9;-7,11;3,35;3,19;3,35;3,19;0;0;
641502;-15,89;-13,54;-15,89;-13,54;3,24;3,29;3,24;3,29;0;0;
641565;-13,46;-7,58;-13,46;-7,58;3,6;3,36;3,6;3,36;0;0;
641610;-16,4;-7,56;-16,4;-7,56;3,58;3,12;3,58;3,12;0;0;
641655;-18;-9,03;-18;-9,03;3,55;3,29;3,55;3,29;0;0;
641700;-15,65;-15,32;-15,65;-15,32;3,34;3,46;3,34;3,46;0;0;
641754;-15,98;-8,4;-15,98;-8,4;3,17;3,12;3,17;3,12;0;0;
641817;-21,01;-12,34;-21,01;-12,34;2,91;3,1;2,91;3,1;0;0;
641860;-20,43;-9,44;-20,43;-9,44;2,6;2,85;2,6;2,85;0;0;
641911;-12,05;-13,77;-12,05;-13,77;2,8;2,99;2,8;2,99;0;0;
641960;-14,77;-11,04;-14,77;-11,04;3,67;2,85;3,67;2,85;0;0;
642025;-20,06;-5,36;-20,06;-5,36;4,42;2,64;4,42;2,64;0;0;
642069;-26,35;4,38;-26,35;4,38;5,08;9,56;5,08;9,56;0;0;
642115;-28,96;35,23;-28,96;35,23;6,03;23,94;6,03;23,94;0;1;
642167;-7,48;-6,49;-7,48;-6,49;7,18;25,05;7,18;25,05;0;1;
642227;-18,59;11,55;-18,59;11,55;7,1;27,38;7,1;27,38;0;1;
642274;-10,56;0;-10,56;0;8,23;28;8,23;28;0;1;
642321;6,58;103,76;6,58;103,76;8,45;33,67;8,45;33,67;0;1;
642368;-3,04;110,03;-3,04;110,03;10,33;38,95;10,33;38,95;0;1;
642432;-3,29;-117,94;-3,29;-117,94;9,84;46,65;9,84;46,65;0;0;
642476;-14,64;0,46;-14,64;0,46;9,04;45,81;9,04;45,81;0;0;
642526;-13,54;-8,16;-13,54;-8,16;8,63;43,96;8,63;43,96;0;0;
642570;-18,95;-5,05;-18,95;-5,05;7;40,34;7;40,34;0;0;
642633;-11,73;1,05;-11,73;1,05;5,66;28,08;5,66;28,08;0;0;
642683;-19,47;-7,85;-19,47;-7,85;4,34;18,04;4,34;18,04;0;0;
642728;-16,33;-1,02;-16,33;-1,02;3,49;3,57;3,49;3,57;0;0;
642778;-24,77;-13,28;-24,77;-13,28;3,79;3,76;3,79;3,76;0;0;
642839;-20,51;0;-20,51;0;3,74;4,57;3,74;4,57;0;0;
642887;-17,52;0;-17,52;0;3,85;4,77;3,85;4,77;0;0;
642936;-16,95;-10,27;-16,95;-10,27;3,08;4,42;3,08;4,42;0;0;
642981;-8,66;0;-8,66;0;3,3;5,15;3,3;5,15;0;0;
643042;-21,16;0;-21,16;0;3,48;6,03;3,48;6,03;0;0;
643090;-17,81;0;-17,81;0;3,6;6,4;3,6;6,4;0;0;
643133;-22,8;0;-22,8;0;3,93;6,51;3,93;6,51;0;0;
643176;-22,25;-5,33;-22,25;-5,33;4,11;6,27;4,11;6,27;0;0;
643221;-16,78;-5,68;-16,78;-5,68;4;6,19;4;6,19;0;0;
643283;-24,33;-8,39;-24,33;-8,39;3,52;5,18;3,52;5,18;0;0;
643331;-19,01;-8,71;-19,01;-8,71;3,27;4,21;3,27;4,21;0;0;
643376;-23,42;-6,03;-23,42;-6,03;2,97;3,45;2,97;3,45;0;0;
643423;-16,87;-9,56;-16,87;-9,56;3,23;2,73;3,23;2,73;0;0;
643467;-16,89;-5,49;-16,89;-5,49;3,17;2,5;3,17;2,5;0;0;
643528;-14,95;-10,49;-14,95;-10,49;3,12;2,86;3,12;2,86;0;0;
643573;-9,33;-13,79;-9,33;-13,79;3,59;2,86;3,59;2,86;0;0;
643626;-20,73;-4,58;-20,73;-4,58;3,94;2,96;3,94;2,96;0;0;
643673;-11,79;-1,28;-11,79;-1,28;4,31;4,36;4,31;4,36;0;0;
643733;-17,05;-11,2;-17,05;-11,2;4;4,35;4;4,35;0;0;
643775;-17,56;-5,86;-17,56;-5,86;3,77;4,3;3,77;4,3;0;0;
643817;-10,02;73,6;-10,02;73,6;4,95;11,88;4,95;11,88;0;0;
643857;-15,98;-43,47;-15,98;-43,47;5,31;15,5;5,31;15,5;0;1;
643903;-27,01;-115,65;-27,01;-115,65;5,57;20,4;5,57;20,4;0;1;
643961;-10,63;-0,4;-10,63;-0,4;5,46;21,76;5,46;21,76;0;1;
644004;-20,85;29,69;-20,85;29,69;6,66;25,48;6,66;25,48;0;1;
644052;-16,52;-28,62;-16,52;-28,62;5,82;24,16;5,82;24,16;0;1;
644094;-25,16;-14,35;-25,16;-14,35;5,42;19,38;5,42;19,38;0;1;
644136;-19,63;16,75;-19,63;16,75;4,96;18,48;4,96;18,48;0;1;
644195;-17,96;-4;-17,96;-4;4,87;16,32;4,87;16,32;0;0;
644243;-19,24;-16,58;-19,24;-16,58;4,46;15,47;4,46;15,47;0;0;
644289;-13,11;-12,88;-13,11;-12,88;3,92;14,35;3,92;14,35;0;0;
644339;-14,66;-8,39;-14,66;-8,39;3,8;12,72;3,8;12,72;0;1;
644394;-21,93;-6,61;-21,93;-6,61;3,51;9,94;3,51;9,94;0;1;
644456;-23,23;-10,52;-23,23;-10,52;3,19;7,9;3,19;7,9;0;1;
644502;-11,64;-10,1;-11,64;-10,1;2,97;6,35;2,97;6,35;0;1;
644546;-16,87;-13,42;-16,87;-13,42;3,75;5,52;3,75;5,52;0;1;
644588;-24,34;-15,15;-24,34;-15,15;3,94;4,25;3,94;4,25;0;1;
644661;-31,42;28,51;-31,42;28,51;5,07;8,19;5,07;8,19;0;0;
644709;-21,75;-9,24;-21,75;-9,24;5,79;10,28;5,79;10,28;0;0;
644753;-22,12;29,81;-22,12;29,81;6,45;17,58;6,45;17,58;0;0;
644806;-15,4;-21,31;-15,4;-21,31;6;21,28;6;21,28;0;0;
644865;-18,04;34,81;-18,04;34,81;6,21;22,36;6,21;22,36;0;0;
644911;-10,44;-26,71;-10,44;-26,71;5,95;24,7;5,95;24,7;0;0;
644956;-13,86;3,71;-13,86;3,71;4,77;22,5;4,77;22,5;0;0;
645007;-9,17;-29,74;-9,17;-29,74;5,04;22,08;5,04;22,08;0;0;
645075;-24,72;-9,93;-24,72;-9,93;5,11;16,91;5,11;16,91;0;0;
645123;-5,79;-10,03;-5,79;-10,03;5,93;14,06;5,93;14,06;0;0;
645166;-21,89;-16,24;-21,89;-16,24;5,75;11,28;5,75;11,28;0;0;
645218;-19,87;-4,67;-19,87;-4,67;5,91;7,99;5,91;7,99;0;0;
645278;-8,94;-8,92;-8,94;-8,92;6,01;6,49;6,01;6,49;0;0;
645322;-14,93;-4,36;-14,93;-4,36;5,58;4,56;5,58;4,56;0;0;
645366;-22,84;-9,31;-22,84;-9,31;4,59;4,51;4,59;4,51;0;0;
645422;-25,61;-9;-25,61;-9;4,34;3,81;4,34;3,81;0;0;
645490;-10,43;-6,51;-10,43;-6,51;4,51;3,41;4,51;3,41;0;0;
645533;-24,2;-4,48;-24,2;-4,48;4,19;3,68;4,19;3,68;0;0;
645582;-3,97;-12,09;-3,97;-12,09;4,28;3,37;4,28;3,37;0;0;
645627;-29,61;-110,43;-29,61;-110,43;6,48;17,43;6,48;17,43;0;0;
645689;-12,37;176,13;-12,37;176,13;7,96;30,28;7,96;30,28;0;1;
645735;7,9;15,31;7,9;15,31;9,83;38,52;9,83;38,52;0;1;
645780;-11,67;12,2;-11,67;12,2;10,16;40,3;10,16;40,3;0;1;
645825;-28,72;-49,17;-28,72;-49,17;9,96;43,75;9,96;43,75;0;1;
645868;-18,75;-13,05;-18,75;-13,05;10,01;36,06;10,01;36,06;0;1;
645929;-15,17;-7;-15,17;-7;7,84;26,02;7,84;26,02;0;1;
645988;-11,73;-9,24;-11,73;-9,24;5,73;12,03;5,73;12,03;0;1;
646034;-21,68;-2,77;-21,68;-2,77;4,36;9,51;4,36;9,51;0;0;
646080;-19,62;-6,25;-19,62;-6,25;4,41;7,33;4,41;7,33;0;0;
646146;-19,13;-14,38;-19,13;-14,38;5,12;5,11;5,12;5,11;0;0;
646190;-13,81;-3,2;-13,81;-3,2;5,23;4,69;5,23;4,69;0;0;
646240;-22,66;-10,11;-22,66;-10,11;5,07;4,19;5,07;4,19;0;0;
646288;-13,67;-8,39;-13,67;-8,39;4,99;4,25;4,99;4,25;0;0;
646357;-15,81;-6,56;-15,81;-6,56;5,11;3,29;5,11;3,29;0;0;
646399;-21,78;-10,52;-21,78;-10,52;4,73;3,32;4,73;3,32;0;0;
646445;-18,25;-12,8;-18,25;-12,8;3,47;2,64;3,47;2,64;0;0;
646486;-18,91;-10,88;-18,91;-10,88;4,18;2,84;4,18;2,84;0;0;
646551;-15,17;-8,4;-15,17;-8,4;4,09;2,72;4,09;2,72;0;0;
646594;-15,25;-13,77;-15,25;-13,77;3,88;2,77;3,88;2,77;0;0;
646640;-15,45;-7,48;-15,45;-7,48;4,75;2,26;4,75;2,26;0;0;
646684;-19,87;-7,63;-19,87;-7,63;4,54;2,26;4,54;2,26;0;0;
646736;-18,82;-7,13;-18,82;-7,13;4,79;2,09;4,79;2,09;0;0;
646797;-29,81;-4,69;-29,81;-4,69;4,71;1,95;4,71;1,95;0;0;
646855;-22,32;-1,37;-22,32;-1,37;4,99;2,29;4,99;2,29;0;0;
646900;-18;-6,42;-18;-6,42;4,57;2,13;4,57;2,13;0;0;
646953;-16,86;-2,03;-16,86;-2,03;4,13;2,62;4,13;2,62;0;0;
647022;-9,7;-7,41;-9,7;-7,41;4,61;2,58;4,61;2,58;0;0;
647076;-10,36;-10,35;-10,36;-10,35;4,3;2,96;4,3;2,96;0;0;
647119;-18,41;-9,56;-18,41;-9,56;4,06;2,86;4,06;2,86;0;0;
647169;-18,68;-12,06;-18,68;-12,06;3,71;3,13;3,71;3,13;0;0;
647230;-21,83;-8,02;-21,83;-8,02;3,02;3,82;3,02;3,82;0;0;
647272;-18,66;-10,73;-18,66;-10,73;3,57;3,58;3,57;3,58;0;0;
647318;-12,36;-31,04;-12,36;-31,04;3,32;5,55;3,32;5,55;0;0;
647362;-8,1;-6,83;-8,1;-6,83;4,98;15,66;4,98;15,66;0;0;
647407;-25,1;-50,23;-25,1;-50,23;5,4;18,25;5,4;18,25;0;0;
647470;-6,2;-5,2;-6,2;-5,2;5,86;18,38;5,86;18,38;0;1;
647521;-19,53;-8,05;-19,53;-8,05;5,87;18,11;5,87;18,11;0;1;
647569;-22,05;-3,98;-22,05;-3,98;5,62;18,44;5,62;18,44;0;1;
647615;-16,96;-7,64;-16,96;-7,64;4,84;8,45;4,84;8,45;0;1;
647682;-13,13;-2,66;-13,13;-2,66;4,67;5,47;4,67;5,47;0;1;
647725;-3,76;-42,97;-3,76;-42,97;5,85;9,32;5,85;9,32;0;1;
647771;-4,23;18,8;-4,23;18,8;5,94;16,46;5,94;16,46;0;1;
647816;-20,18;-32,94;-20,18;-32,94;5,5;19,64;5,5;19,64;0;0;
647884;-15,75;-15,13;-15,75;-15,13;4,94;19,71;4,94;19,71;0;0;
647933;-22,63;-18,61;-22,63;-18,61;5,31;21,47;5,31;21,47;0;0;
647978;-17,86;-16,36;-17,86;-16,36;3,9;18,43;3,9;18,43;0;0;
648028;-13,63;-14;-13,63;-14;3,13;14,02;3,13;14,02;0;0;
648089;-13,45;-6,84;-13,45;-6,84;3;8,4;3;8,4;0;0;
648133;-19,94;-13,4;-19,94;-13,4;3,32;7,16;3,32;7,16;0;0;
648178;-22,29;-7,46;-22,29;-7,46;3,31;5,36;3,31;5,36;0;0;
648223;-16,78;-5,15;-16,78;-5,15;2,99;4,89;2,99;4,89;0;0;
648273;-18,64;-8,64;-18,64;-8,64;3,06;3,44;3,06;3,44;0;0;
648335;-19,97;-12,85;-19,97;-12,85;2,96;2,41;2,96;2,41;0;0;
648378;-20,66;-5,51;-20,66;-5,51;2,66;2,4;2,66;2,4;0;0;
648423;-21,58;-11,35;-21,58;-11,35;2,83;2;2,83;2;0;0;
648467;-24,41;-5,89;-24,41;-5,89;3,07;2,17;3,07;2,17;0;0;
648531;-18,72;-12,32;-18,72;-12,32;3,33;2,33;3,33;2,33;0;0;
648576;-15,92;0,17;-15,92;0,17;3,27;2,93;3,27;2,93;0;0;
648619;-18,18;-14,2;-18,18;-14,2;3,03;2,99;3,03;2,99;0;0;
648668;-11,35;-4,42;-11,35;-4,42;2,79;3,06;2,79;3,06;0;0;
648711;-25,13;-16,75;-25,13;-16,75;4;3,23;4;3,23;0;0;
648787;-7,8;-6,62;-7,8;-6,62;3,72;3,55;3,72;3,55;0;1;
648831;-12,85;-7,78;-12,85;-7,78;4,06;3,17;4,06;3,17;0;1;
648874;-7,09;-2,25;-7,09;-2,25;5,01;2,96;5,01;2,96;0;1;
648922;-3,33;46,11;-3,33;46,11;7,35;11,74;7,35;11,74;0;1;
648991;-13,95;-54,18;-13,95;-54,18;8,93;24,08;8,93;24,08;0;1;
649036;-26,53;24,01;-26,53;24,01;9,62;33,79;9,62;33,79;0;1;
649091;-27,16;-35,59;-27,16;-35,59;10,03;39,06;10,03;39,06;0;1;
649136;-15,79;4,14;-15,79;4,14;10,2;42,17;10,2;42,17;0;0;
649196;-12,36;-15,51;-12,36;-15,51;8,8;42,49;8,8;42,49;0;0;
649239;-20,16;-40,07;-20,16;-40,07;7,5;32,41;7,5;32,41;0;0;
649286;-15,51;-13,42;-15,51;-13,42;5,84;22,08;5,84;22,08;0;0;
649334;-9,9;-14,21;-9,9;-14,21;4,17;12,69;4,17;12,69;0;0;
649382;-28,54;-21,68;-28,54;-21,68;4;9,13;4;9,13;0;0;
649446;-18,91;-5,41;-18,91;-5,41;3,34;5,66;3,34;5,66;0;0;
649491;-14,98;-5,52;-14,98;-5,52;2,94;5,05;2,94;5,05;0;0;
649539;-18,59;-8,32;-18,59;-8,32;3,13;4,25;3,13;4,25;0;0;
649581;-19,45;-6,18;-19,45;-6,18;3,16;4,06;3,16;4,06;0;0;
649643;-25,51;-11,8;-25,51;-11,8;3,7;3,68;3,7;3,68;0;0;
649692;-22,07;-0,36;-22,07;-0,36;3,68;2,55;3,68;2,55;0;0;
649737;-16,55;-12,41;-16,55;-12,41;3,72;2,85;3,72;2,85;0;0;
649781;-18,1;-9,12;-18,1;-9,12;3,57;2,92;3,57;2,92;0;0;
649832;-18,54;-4,35;-18,54;-4,35;3,15;2,96;3,15;2,96;0;0;
649894;-20,14;-6,1;-20,14;-6,1;4,13;3,06;4,13;3,06;0;0;
649940;-25,88;-12,35;-25,88;-12,35;4,22;3,21;4,22;3,21;0;0;
649986;-8,99;-9,07;-8,99;-9,07;4,22;3,19;4,22;3,19;0;0;
650037;-20,72;-8,92;-20,72;-8,92;4,06;2,71;4,06;2,71;0;0;
650099;-23,41;-1,75;-23,41;-1,75;4,68;3,11;4,68;3,11;0;0;
650144;-15,93;-9,14;-15,93;-9,14;4,32;3,4;4,32;3,4;0;1;
650193;-11,23;-12,22;-11,23;-12,22;3,94;3,74;3,94;3,74;0;1;
650236;-10,72;89,85;-10,72;89,85;3,81;9,51;3,81;9,51;0;1;
650295;-27,75;-85,7;-27,75;-85,7;7,41;24,19;7,41;24,19;0;1;
650342;-4,48;42,52;-4,48;42,52;8,15;33,77;8,15;33,77;0;1;
650387;-24,02;8,9;-24,02;8,9;9,22;49,39;9,22;49,39;0;0;
650431;1,71;90,29;1,71;90,29;9,65;54,56;9,65;54,56;0;0;
650478;-13,91;-4,79;-13,91;-4,79;10,3;56,87;10,3;56,87;0;0;
650551;-17,52;-18,06;-17,52;-18,06;8,27;50,54;8,27;50,54;0;0;
