Time;EMG1;EMG2;EMG3;EMG4;EMG1_F;EMG2_F;EMG3_F;EMG4_F;Note_R;Note_V;;Level 3;Joueur;Score;Notes hit;% Reussite R;Offset EMG1;Onset EMG1;% Reussite V;Offset EMG2;Onset EMG2
10;-31,17;-41;-31,17;-41;3,12;2,65;3,12;2,65;0;0;;;1;10200;90;36,36364;-23,98696;51,41173;54,54546;-39,30177;34,01276
34;-25,14;-41,43;-25,14;-41,43;2,6;2,48;2,6;2,48;0;0;;;2;10600;92;38,38384;-23,98696;51,41183;54,54546;-39,30177;34,01254
54;-26,67;-39,74;-26,67;-39,74;2,64;2,46;2,64;2,46;0;0;
70;-26,67;-39,74;-26,67;-39,74;2,64;2,57;2,64;2,57;0;0;
87;-23,75;-41,32;-23,75;-41,32;2,28;2,68;2,28;2,68;0;0;
103;-20,16;-37,38;-20,16;-37,38;2,02;2,66;2,02;2,66;0;0;
120;-26,32;-37,95;-26,32;-37,95;1,91;2,44;1,91;2,44;0;0;
139;-27,21;-40,83;-27,21;-40,83;2,24;2,38;2,24;2,38;0;0;
156;-22,79;-38,85;-22,79;-38,85;2,42;2,05;2,42;2,05;0;0;
174;-20,93;-36,33;-20,93;-36,33;2,35;1,91;2,35;1,91;0;0;
196;-25,23;-44,77;-25,23;-44,77;2,57;1,75;2,57;1,75;0;0;
216;-25,85;-40,28;-25,85;-40,28;2,55;1,79;2,55;1,79;0;0;
233;-25,49;-35,39;-25,49;-35,39;2,43;1,93;2,43;1,93;0;0;
253;-22,37;-43,65;-22,37;-43,65;2,3;2,12;2,3;2,12;0;0;
269;-22,37;-43,65;-22,37;-43,65;2,28;2,47;2,28;2,47;0;0;
285;-28,33;-43,4;-28,33;-43,4;2,46;2,43;2,46;2,43;0;0;
304;-26,18;-41,34;-26,18;-41,34;2,38;2,45;2,38;2,45;0;0;
323;-22,64;-39,91;-22,64;-39,91;2,69;2,33;2,69;2,33;0;0;
342;-29,14;-46,71;-29,14;-46,71;2,86;2,73;2,86;2,73;0;0;
361;-22,54;-36,14;-22,54;-36,14;2,81;2,79;2,81;2,79;0;0;
380;-22,96;-36,87;-22,96;-36,87;2,77;2,56;2,77;2,56;0;0;
397;-24,5;-36,27;-24,5;-36,27;2,65;2,73;2,65;2,73;0;0;
413;-21,11;-39,62;-21,11;-39,62;2,49;2,85;2,49;2,85;0;0;
429;-21,11;-39,62;-21,11;-39,62;2,61;2,93;2,61;2,93;0;0;
449;-24,9;-40,27;-24,9;-40,27;2,51;2,7;2,51;2,7;0;0;
465;-31,85;-43,96;-31,85;-43,96;2,79;2,63;2,79;2,63;0;0;
483;-23,11;-37,2;-23,11;-37,2;2,74;2,64;2,74;2,64;0;0;
500;-24,02;-37,57;-24,02;-37,57;2,59;2,35;2,59;2,35;0;0;
522;-22,8;-39,42;-22,8;-39,42;2,41;2,13;2,41;2,13;0;0;
540;-22,41;-41,08;-22,41;-41,08;2,43;2,25;2,43;2,25;0;0;
558;-28,25;-38,49;-28,25;-38,49;2,34;2,08;2,34;2,08;0;0;
576;-17,84;-39,19;-17,84;-39,19;2,38;1,88;2,38;1,88;0;0;
593;-21,19;-38,41;-21,19;-38,41;2,37;1,98;2,37;1,98;0;0;
611;-28,89;-36,1;-28,89;-36,1;2,67;2,22;2,67;2,22;0;0;
627;-28,89;-36,1;-28,89;-36,1;2,78;2,39;2,78;2,39;0;0;
645;-21,02;-38,66;-21,02;-38,66;3,12;2,24;3,12;2,24;0;0;
663;-21,75;-37,82;-21,75;-37,82;3,02;2,17;3,02;2,17;0;0;
684;-23,16;-40,94;-23,16;-40,94;3,08;2,35;3,08;2,35;0;0;
701;-26,7;-38,64;-26,7;-38,64;3,08;2,22;3,08;2,22;0;0;
722;-22,41;-43,26;-22,41;-43,26;2,83;2,13;2,83;2,13;0;0;
740;-22,36;-41,92;-22,36;-41,92;2,75;2,08;2,75;2,08;0;0;
757;-22,43;-39,5;-22,43;-39,5;2,74;2,44;2,74;2,44;0;0;
774;-28,18;-34,08;-28,18;-34,08;2,53;2,38;2,53;2,38;0;0;
791;-21,62;-43,44;-21,62;-43,44;2,58;2,42;2,58;2,42;0;0;
808;-21,62;-43,44;-21,62;-43,44;2,59;2,53;2,59;2,53;0;0;
826;-25,87;-40,22;-25,87;-40,22;2,88;2,55;2,88;2,55;0;0;
848;-24,17;-35,47;-24,17;-35,47;2,29;2,47;2,29;2,47;0;0;
866;-15,05;-39,07;-15,05;-39,07;2,8;2,33;2,8;2,33;0;0;
883;-29,11;-40,13;-29,11;-40,13;3,09;2,47;3,09;2,47;0;0;
900;-24,19;-42,91;-24,19;-42,91;3,04;2,56;3,04;2,56;0;0;
919;-26,46;-37,75;-26,46;-37,75;2,92;2,47;2,92;2,47;0;0;
936;-22,18;-40,4;-22,18;-40,4;2,91;2,24;2,91;2,24;0;0;
953;-30,85;-37,62;-30,85;-37,62;2,85;2,22;2,85;2,22;0;0;
971;-30,85;-37,62;-30,85;-37,62;2,54;2,23;2,54;2,23;0;0;
988;-28,23;-41,95;-28,23;-41,95;2,61;2,26;2,61;2,26;0;0;
1010;-26,42;-37,79;-26,42;-37,79;2,93;2,09;2,93;2,09;0;0;
1027;-25,2;-40,75;-25,2;-40,75;3,45;2,13;3,45;2,13;0;0;
1044;-21,05;-39,27;-21,05;-39,27;3,37;2,06;3,37;2,06;0;0;
1061;-21,22;-40,42;-21,22;-40,42;3,37;2,04;3,37;2,04;0;0;
1080;-25,03;-42,09;-25,03;-42,09;3,26;2,04;3,26;2,04;0;0;
1097;-21,84;-35,88;-21,84;-35,88;2,95;2,06;2,95;2,06;0;0;
1116;-19,85;-41,35;-19,85;-41,35;2,54;1,87;2,54;1,87;0;0;
1131;-19,85;-41,35;-19,85;-41,35;2,28;1,67;2,28;1,67;0;0;
1148;-19,85;-41,35;-19,85;-41,35;2,04;1,52;2,04;1,52;0;0;
1167;-24,89;-42,2;-24,89;-42,2;2,02;1,36;2,02;1,36;0;0;
1186;-16,44;-38,12;-16,44;-38,12;1,94;1,56;1,94;1,56;0;0;
1205;-19,86;-41,53;-19,86;-41,53;2,08;1,65;2,08;1,65;0;0;
1225;-25,2;-39,61;-25,2;-39,61;2,15;2;2,15;2;0;0;
1243;-22,37;-40,98;-22,37;-40,98;2,24;2,21;2,24;2,21;0;0;
1261;-26,93;-37,68;-26,93;-37,68;2,31;2,36;2,31;2,36;0;0;
1279;-19,24;-38,12;-19,24;-38,12;2,7;2,11;2,7;2,11;0;0;
1296;-28,65;-40,82;-28,65;-40,82;2,55;2,57;2,55;2,57;0;0;
1314;-22,18;-41,12;-22,18;-41,12;2,44;2,69;2,44;2,69;0;0;
1336;-29,31;-39,84;-29,31;-39,84;2,74;2,39;2,74;2,39;0;0;
1360;-23,54;-37,57;-23,54;-37,57;2,85;2,46;2,85;2,46;0;0;
1377;-26,44;-37,57;-26,44;-37,57;3,23;2,72;3,23;2,72;0;0;
1396;-27,25;-47,69;-27,25;-47,69;2,81;3,13;2,81;3,13;0;0;
1414;-24,08;-44,66;-24,08;-44,66;2,87;2,9;2,87;2,9;0;0;
1431;-24,08;-44,66;-24,08;-44,66;2,9;3,22;2,9;3,22;0;0;
1448;-20,47;-37,66;-20,47;-37,66;2,63;3,39;2,63;3,39;0;0;
1466;-25,64;-39,86;-25,64;-39,86;2,93;3,4;2,93;3,4;0;0;
1485;-26,02;-40,43;-26,02;-40,43;2,68;3,13;2,68;3,13;0;0;
1504;-23,49;-36,22;-23,49;-36,22;2,59;2,78;2,59;2,78;0;0;
1521;-25,14;-38,23;-25,14;-38,23;2,73;2,7;2,73;2,7;0;0;
1539;-27,68;-40,85;-27,68;-40,85;2,78;2,38;2,78;2,38;0;0;
1556;-18,7;-38,09;-18,7;-38,09;2,47;2,14;2,47;2,14;0;0;
1574;-25,47;-38,27;-25,47;-38,27;2,51;2,01;2,51;2,01;0;0;
1592;-21,85;-40,64;-21,85;-40,64;2,8;1,91;2,8;1,91;0;0;
1609;-21,85;-40,64;-21,85;-40,64;3;1,72;3;1,72;0;0;
1628;-21,72;-39,61;-21,72;-39,61;2,4;1,76;2,4;1,76;0;0;
1651;-18,95;-40,78;-18,95;-40,78;2,78;1,81;2,78;1,81;0;0;
1669;-30,22;-40,1;-30,22;-40,1;2,96;1,81;2,96;1,81;0;0;
1686;-25,13;-39,39;-25,13;-39,39;2,74;1,95;2,74;1,95;0;0;
1702;-27,27;-42,1;-27,27;-42,1;2,51;1,95;2,51;1,95;0;0;
1722;-23,04;-38,65;-23,04;-38,65;2,47;1,68;2,47;1,68;0;0;
1740;-22,54;-40,13;-22,54;-40,13;2,25;1,75;2,25;1,75;0;0;
1757;-26,16;-42,43;-26,16;-42,43;2,1;1,78;2,1;1,78;0;0;
1774;-29,88;-39,14;-29,88;-39,14;2,07;1,82;2,07;1,82;0;0;
1793;-24,1;-38,39;-24,1;-38,39;2,22;1,95;2,22;1,95;0;0;
1815;-23,78;-39,83;-23,78;-39,83;2,11;1,95;2,11;1,95;0;0;
1832;-27,7;-33,14;-27,7;-33,14;2,22;2,04;2,22;2,04;0;0;
1851;-21,04;-43,36;-21,04;-43,36;2,77;2,26;2,77;2,26;0;0;
1869;-21,04;-43,36;-21,04;-43,36;3,09;2,52;3,09;2,52;0;0;
1886;-26,53;-35,55;-26,53;-35,55;3,31;2,45;3,31;2,45;0;0;
1905;-25,71;-44,51;-25,71;-44,51;3,19;2,62;3,19;2,62;0;0;
1923;-20,41;-39,67;-20,41;-39,67;3,08;2,71;3,08;2,71;0;0;
1940;-19;-40,4;-19;-40,4;3,12;2,64;3,12;2,64;0;0;
1958;-22,64;-42,69;-22,64;-42,69;3,25;2,55;3,25;2,55;0;0;
1982;-27,21;-46,25;-27,21;-46,25;3,13;2,7;3,13;2,7;0;0;
1998;-20,86;-35,32;-20,86;-35,32;2,96;2,74;2,96;2,74;0;0;
2014;-20,42;-40,85;-20,42;-40,85;3,14;2,93;3,14;2,93;0;0;
2032;-24,72;-42,06;-24,72;-42,06;3,14;2,97;3,14;2,97;0;0;
2052;-20,29;-40,83;-20,29;-40,83;2,87;2,96;2,87;2,96;0;0;
2070;-20,29;-40,83;-20,29;-40,83;2,33;3,11;2,33;3,11;0;0;
2085;-31,12;-36,2;-31,12;-36,2;2,47;2,68;2,47;2,68;0;0;
2104;-21,92;-37,2;-21,92;-37,2;2,64;2,35;2,64;2,35;0;0;
2126;-23,9;-36,6;-23,9;-36,6;2,36;2,25;2,36;2,25;0;0;
2148;-25,56;-42,31;-25,56;-42,31;2,59;2,21;2,59;2,21;0;0;
2168;-23,15;-38,03;-23,15;-38,03;2,5;2,18;2,5;2,18;0;0;
2185;-24,08;-36,23;-24,08;-36,23;2,72;2,39;2,72;2,39;0;0;
2205;-30,63;-36,4;-30,63;-36,4;3;2,47;3;2,47;0;0;
2224;-23,88;-42,72;-23,88;-42,72;2,89;2,55;2,89;2,55;0;0;
2243;-31,84;-45;-31,84;-45;2,9;2,77;2,9;2,77;0;0;
2261;-24,71;-41,36;-24,71;-41,36;2,75;2,75;2,75;2,75;0;0;
2278;-29,87;-42,32;-29,87;-42,32;2,79;2,52;2,79;2,52;0;0;
2299;-20,54;-37,66;-20,54;-37,66;2,54;2,37;2,54;2,37;0;0;
2317;-26,06;-37,75;-26,06;-37,75;2,27;2,38;2,27;2,38;0;0;
2335;-19,22;-42,55;-19,22;-42,55;2,48;2,53;2,48;2,53;0;0;
2352;-24,02;-40,81;-24,02;-40,81;2,28;2,34;2,28;2,34;0;0;
2372;-24,29;-36,11;-24,29;-36,11;2,4;2,42;2,4;2,42;0;0;
2390;-24,29;-36,11;-24,29;-36,11;2,26;2,46;2,26;2,46;0;0;
2406;-23,93;-40,62;-23,93;-40,62;2,21;2,19;2,21;2,19;0;0;
2424;-26,22;-35,96;-26,22;-35,96;2,19;2,08;2,19;2,08;0;0;
2444;-23,55;-39,76;-23,55;-39,76;2,24;2,24;2,24;2,24;0;0;
2465;-29,8;-40,96;-29,8;-40,96;2,39;2,08;2,39;2,08;0;0;
2482;-25,44;-39,14;-25,44;-39,14;2,41;2,06;2,41;2,06;0;0;
2498;-24,78;-42,56;-24,78;-42,56;2,42;2,39;2,42;2,39;0;0;
2515;-26,94;-34,44;-26,94;-34,44;2,3;2,74;2,3;2,74;0;0;
2533;-26,19;-35,64;-26,19;-35,64;2,1;2,5;2,1;2,5;0;0;
2551;-21,35;-37,95;-21,35;-37,95;2,33;2,41;2,33;2,41;0;0;
2567;-21,35;-37,95;-21,35;-37,95;2,44;2,4;2,44;2,4;0;0;
2585;-24,66;-40,78;-24,66;-40,78;2,54;2,31;2,54;2,31;0;0;
2603;-22,84;-35,86;-22,84;-35,86;2,89;2,36;2,89;2,36;0;0;
2623;-32,35;-37,68;-32,35;-37,68;3,15;2,29;3,15;2,29;0;0;
2640;-24,05;-38,49;-24,05;-38,49;3,09;2,16;3,09;2,16;0;0;
2657;-24,05;-38,49;-24,05;-38,49;2,92;2,04;2,92;2,04;0;0;
2674;-29,62;-43,15;-29,62;-43,15;3,12;2,13;3,12;2,13;0;0;
2690;-29,62;-43,15;-29,62;-43,15;3,4;2,28;3,4;2,28;0;0;
2708;-21,57;-43,32;-21,57;-43,32;3,16;2,1;3,16;2,1;0;0;
2727;-23,48;-33,73;-23,48;-33,73;3,16;2,23;3,16;2,23;0;0;
2746;-27,92;-38,53;-27,92;-38,53;3,07;2,42;3,07;2,42;0;0;
2764;-27,92;-38,53;-27,92;-38,53;2,82;2,46;2,82;2,46;0;0;
2786;-27,58;-38,04;-27,58;-38,04;2,35;2,11;2,35;2,11;0;0;
2804;-21,45;-36,5;-21,45;-36,5;2,25;2,17;2,25;2,17;0;0;
2822;-23,52;-40,35;-23,52;-40,35;2,11;2,1;2,11;2,1;0;0;
2841;-21,76;-38,64;-21,76;-38,64;2,33;2,18;2,33;2,18;0;0;
2860;-25,84;-38,53;-25,84;-38,53;2,44;2,1;2,44;2,1;0;0;
2880;-24,36;-43,95;-24,36;-43,95;2,28;2,19;2,28;2,19;0;0;
2898;-24,15;-34,25;-24,15;-34,25;2,18;2,27;2,18;2,27;0;0;
2916;-26,06;-40,36;-26,06;-40,36;2,42;2,3;2,42;2,3;0;0;
2944;-25,74;-33,27;-25,74;-33,27;2,56;2,34;2,56;2,34;0;0;
2962;-22,94;-41,25;-22,94;-41,25;2,24;2,49;2,24;2,49;0;0;
2981;-19,84;-39,65;-19,84;-39,65;2,42;2,53;2,42;2,53;0;0;
3000;-31,21;-33,05;-31,21;-33,05;2,58;2,48;2,58;2,48;0;0;
3016;-21,2;-38,75;-21,2;-38,75;2,51;2,16;2,51;2,16;0;0;
3033;-26,84;-39,32;-26,84;-39,32;2,24;2,24;2,24;2,24;0;0;
3051;-23,78;-43,19;-23,78;-43,19;2,21;2,11;2,21;2,11;0;0;
3069;-23,78;-43,19;-23,78;-43,19;2,02;2,05;2,02;2,05;0;0;
3090;-26,92;-40,26;-26,92;-40,26;1,88;2,18;1,88;2,18;0;0;
3108;-24,88;-42,26;-24,88;-42,26;1,91;2,05;1,91;2,05;0;0;
3126;-27;-35,51;-27;-35,51;1,96;2,02;1,96;2,02;0;0;
3142;-21,61;-40,86;-21,61;-40,86;2,21;1,92;2,21;1,92;0;0;
3160;-28,77;-39,92;-28,77;-39,92;2,3;1,91;2,3;1,91;0;0;
3178;-23,77;-41,01;-23,77;-41,01;2,4;1,9;2,4;1,9;0;0;
3196;-24,19;-42,52;-24,19;-42,52;2,52;1,92;2,52;1,92;0;0;
3214;-19,95;-39,04;-19,95;-39,04;2,89;2,03;2,89;2,03;0;0;
3235;-27,02;-42,76;-27,02;-42,76;2,64;1,99;2,64;1,99;0;0;
3256;-18,78;-41,7;-18,78;-41,7;3,1;1,96;3,1;1,96;0;0;
3277;-29,56;-38,88;-29,56;-38,88;3,11;2,04;3,11;2,04;0;0;
3294;-18,13;-36,46;-18,13;-36,46;3,6;2,14;3,6;2,14;0;0;
3314;-23,47;-41,72;-23,47;-41,72;3,15;1,98;3,15;1,98;0;0;
3332;-21,59;-35,97;-21,59;-35,97;3,01;2,12;3,01;2,12;0;0;
3349;-21,59;-35,97;-21,59;-35,97;2,74;2,28;2,74;2,28;0;0;
3367;-23,97;-43,06;-23,97;-43,06;2,94;2,35;2,94;2,35;0;0;
3388;-22,93;-37,94;-22,93;-37,94;3,08;2,38;3,08;2,38;0;0;
3408;-21,47;-36,92;-21,47;-36,92;2,96;2,4;2,96;2,4;0;0;
3424;-24,71;-40,46;-24,71;-40,46;3,3;2,4;3,3;2,4;0;0;
3442;-24,71;-40,46;-24,71;-40,46;3,49;2,38;3,49;2,38;0;0;
3460;-22,09;-41,61;-22,09;-41,61;3,37;2,31;3,37;2,31;0;0;
3480;-23,79;-38,41;-23,79;-38,41;3,34;2,41;3,34;2,41;0;0;
3497;-32,29;-41,31;-32,29;-41,31;3,07;2,26;3,07;2,26;0;0;
3516;-20,84;-36,44;-20,84;-36,44;3,55;2,58;3,55;2,58;0;0;
3532;-25,4;-42,52;-25,4;-42,52;3,29;2,52;3,29;2,52;0;0;
3553;-25,12;-39,33;-25,12;-39,33;2,86;2,24;2,86;2,24;0;0;
3579;-27,37;-36,12;-27,37;-36,12;2,79;2,09;2,79;2,09;0;0;
3597;-22,97;-41,6;-22,97;-41,6;2,88;2,34;2,88;2,34;0;0;
3615;-28,2;-36,42;-28,2;-36,42;2,55;2,2;2,55;2,2;0;0;
3631;-28,2;-36,42;-28,2;-36,42;2,29;2,03;2,29;2,03;0;0;
3648;-31,24;-37,61;-31,24;-37,61;2,69;2,1;2,69;2,1;0;0;
3667;-22,27;-43,09;-22,27;-43,09;2,73;2,19;2,73;2,19;0;0;
3686;-23,2;-32,06;-23,2;-32,06;2,66;2,29;2,66;2,29;0;0;
3704;-28,63;-38,24;-28,63;-38,24;2,89;2,02;2,89;2,02;0;0;
3726;-21,58;-41,37;-21,58;-41,37;2,94;1,95;2,94;1,95;0;0;
3745;-23,4;-38,27;-23,4;-38,27;2,67;1,94;2,67;1,94;0;0;
3763;-21,63;-37,65;-21,63;-37,65;2,6;1,75;2,6;1,75;0;0;
3781;-22,56;-36,88;-22,56;-36,88;2,84;2,06;2,84;2,06;0;0;
3799;-26,14;-37,4;-26,14;-37,4;3,11;2,04;3,11;2,04;0;0;
3818;-27,03;-40,26;-27,03;-40,26;2,89;2,1;2,89;2,1;0;0;
3839;-27,22;-35,22;-27,22;-35,22;3,01;2,29;3,01;2,29;0;0;
3858;-25,68;-38,19;-25,68;-38,19;3,04;2,44;3,04;2,44;0;0;
3883;-30,1;-39,65;-30,1;-39,65;2,96;2,96;2,96;2,96;0;0;
3901;-24,41;-38,33;-24,41;-38,33;3,13;2,73;3,13;2,73;0;0;
3920;-24,45;-35,43;-24,45;-35,43;3,11;2,81;3,11;2,81;0;0;
3937;-29,41;-40,12;-29,41;-40,12;3,08;2,68;3,08;2,68;0;0;
3955;-21,49;-38,07;-21,49;-38,07;3,01;2,39;3,01;2,39;0;0;
3973;-28,36;-38,77;-28,36;-38,77;2,99;2,14;2,99;2,14;0;0;
3990;-28,36;-38,77;-28,36;-38,77;2,59;1,82;2,59;1,82;0;0;
4007;-22,23;-41,61;-22,23;-41,61;2,91;1,69;2,91;1,69;0;0;
4023;-23,4;-37,68;-23,4;-37,68;3,03;1,59;3,03;1,59;0;0;
4047;-21,26;-44,04;-21,26;-44,04;3,01;1,68;3,01;1,68;0;0;
4064;-27,87;-38,03;-27,87;-38,03;3,01;2;3,01;2;0;0;
4082;-20,77;-34,93;-20,77;-34,93;3,22;2,08;3,22;2,08;0;0;
4100;-24,16;-39,28;-24,16;-39,28;2,89;2,13;2,89;2,13;0;0;
4118;-24,24;-36,47;-24,24;-36,47;2,36;2,26;2,36;2,26;0;0;
4135;-26,2;-35,67;-26,2;-35,67;2,2;2,32;2,2;2,32;0;0;
4152;-24,54;-41,07;-24,54;-41,07;2,66;2,39;2,66;2,39;0;0;
4170;-24,54;-41,07;-24,54;-41,07;2,77;2,26;2,77;2,26;0;0;
4189;-23,15;-40,02;-23,15;-40,02;2,69;2,41;2,69;2,41;0;0;
4211;-26,5;-40,64;-26,5;-40,64;2,96;2,43;2,96;2,43;0;0;
4228;-21,02;-39,62;-21,02;-39,62;3,19;2,33;3,19;2,33;0;0;
4246;-27,01;-34,95;-27,01;-34,95;3,21;2,33;3,21;2,33;0;0;
4264;-25,63;-41,12;-25,63;-41,12;2,75;2,17;2,75;2,17;0;0;
4282;-20,81;-38,5;-20,81;-38,5;2,44;1,78;2,44;1,78;0;0;
4299;-28,75;-42,78;-28,75;-42,78;2,65;1,9;2,65;1,9;0;0;
4317;-23,73;-39,28;-23,73;-39,28;2,36;1,91;2,36;1,91;0;0;
4333;-22,9;-35,61;-22,9;-35,61;2,34;1,91;2,34;1,91;0;0;
4350;-22,9;-35,61;-22,9;-35,61;2,3;1,96;2,3;1,96;0;0;
4371;-25,31;-37,96;-25,31;-37,96;2,48;2,15;2,48;2,15;0;0;
4389;-20,75;-36,96;-20,75;-36,96;2,47;2,36;2,47;2,36;0;0;
4409;-25,33;-43,06;-25,33;-43,06;2,2;2,32;2,2;2,32;0;0;
4426;-18,11;-37,25;-18,11;-37,25;2,46;2,5;2,46;2,5;0;0;
4445;-28,43;-38,03;-28,43;-38,03;2,63;2,38;2,63;2,38;0;0;
4463;-23,57;-35,97;-23,57;-35,97;2,66;2,28;2,66;2,28;0;0;
4481;-27,19;-37,65;-27,19;-37,65;2,47;2,41;2,47;2,41;0;0;
4498;-26,86;-41,96;-26,86;-41,96;2,48;2,49;2,48;2,49;0;0;
4515;-29,18;-43,45;-29,18;-43,45;2,79;2,33;2,79;2,33;0;0;
4541;-19,11;-42,35;-19,11;-42,35;2,95;2,36;2,95;2,36;0;0;
4559;-17,77;-36,87;-17,77;-36,87;2,94;2,43;2,94;2,43;0;0;
4576;-18,75;-39,71;-18,75;-39,71;3,24;2,4;3,24;2,4;0;0;
4593;-25,86;-39,26;-25,86;-39,26;3,25;2,09;3,25;2,09;0;0;
4610;-25,86;-39,26;-25,86;-39,26;3,15;1,97;3,15;1,97;0;0;
4626;-23,54;-36,6;-23,54;-36,6;2,71;1,82;2,71;1,82;0;0;
4644;-21,42;-39,09;-21,42;-39,09;2,67;1,93;2,67;1,93;0;0;
4663;-24,74;-40,19;-24,74;-40,19;2,64;1,96;2,64;1,96;0;0;
4682;8,35;-39,6;8,35;-39,6;2,92;1,83;2,92;1,83;0;0;
4703;-34,18;-39,52;-34,18;-39,52;3,92;1,85;3,92;1,85;0;0;
4721;-27,68;-38,32;-27,68;-38,32;4,04;1,86;4,04;1,86;0;0;
4739;-24,62;-36,17;-24,62;-36,17;3,97;1,81;3,97;1,81;0;0;
4756;-26,23;-39,04;-26,23;-39,04;3,93;1,85;3,93;1,85;0;0;
4773;-27,55;-36,06;-27,55;-36,06;3,97;1,83;3,97;1,83;0;0;
4793;-28,36;-38,66;-28,36;-38,66;2,68;1,83;2,68;1,83;0;0;
4810;-28,36;-38,66;-28,36;-38,66;2,35;1,82;2,35;1,82;0;0;
4826;-21,56;-39,26;-21,56;-39,26;2,34;1,87;2,34;1,87;0;0;
4845;-21,56;-39,26;-21,56;-39,26;2,44;1,84;2,44;1,84;0;0;
4866;-26,59;-45,47;-26,59;-45,47;2,64;1,99;2,64;1,99;0;0;
4884;-27,08;-40,45;-27,08;-40,45;2,87;2,17;2,87;2,17;0;0;
4902;-20,83;-33,75;-20,83;-33,75;2,65;2,32;2,65;2,32;0;0;
4920;-22,2;-34,07;-22,2;-34,07;2,87;2,55;2,87;2,55;0;0;
4939;-27,64;-36,85;-27,64;-36,85;2,82;2,62;2,82;2,62;0;0;
4957;-25,97;-38,56;-25,97;-38,56;2,52;2,45;2,52;2,45;0;0;
4976;-25,52;-40,26;-25,52;-40,26;2,35;2,18;2,35;2,18;0;0;
4998;-20,12;-40,26;-20,12;-40,26;2,46;2,18;2,46;2,18;0;0;
5020;-30,67;-41,29;-30,67;-41,29;2,57;2,13;2,57;2,13;0;0;
5041;-25,38;-37,29;-25,38;-37,29;2,34;2,03;2,34;2,03;0;0;
5061;-25,46;-34,09;-25,46;-34,09;2,32;2,05;2,32;2,05;0;0;
5079;-18,16;-41,35;-18,16;-41,35;2,61;2,21;2,61;2,21;0;0;
5098;-29,89;-38,94;-29,89;-38,94;2,83;2,44;2,83;2,44;0;0;
5117;-19,07;-41,65;-19,07;-41,65;2,81;2,62;2,81;2,62;0;0;
5133;-22,08;-41,31;-22,08;-41,31;2,49;2,54;2,49;2,54;0;0;
5153;-28,92;-38,6;-28,92;-38,6;2,71;2,28;2,71;2,28;0;0;
5176;-25,1;-40,8;-25,1;-40,8;2,68;2,07;2,68;2,07;0;0;
5194;-24,13;-40,61;-24,13;-40,61;2,36;1,95;2,36;1,95;0;0;
5214;-26,46;-39,62;-26,46;-39,62;2,19;1,78;2,19;1,78;0;0;
5230;-26,46;-39,62;-26,46;-39,62;2,17;1,72;2,17;1,72;0;0;
5247;-19,12;-35,95;-19,12;-35,95;2,2;1,76;2,2;1,76;0;0;
5266;-25,69;-36,16;-25,69;-36,16;2,12;1,89;2,12;1,89;0;0;
5284;-25,65;-40,01;-25,65;-40,01;2,16;1,91;2,16;1,91;0;0;
5304;-29,02;-41,33;-29,02;-41,33;2,4;2,08;2,4;2,08;0;0;
5328;-27,63;-37,18;-27,63;-37,18;2,46;1,97;2,46;1,97;0;0;
5347;-28,4;-38,8;-28,4;-38,8;2,56;2,21;2,56;2,21;0;0;
5366;-24,76;-40,41;-24,76;-40,41;2,41;2,4;2,41;2,4;0;0;
5387;-22,02;-39,53;-22,02;-39,53;2,47;2,47;2,47;2,47;0;1;
5407;-24,83;-39,18;-24,83;-39,18;2,54;2,27;2,54;2,27;0;1;
5425;-20,49;-35,4;-20,49;-35,4;2,46;2,47;2,46;2,47;0;1;
5442;-23,62;-41,07;-23,62;-41,07;2,4;2,49;2,4;2,49;0;1;
5460;-22,55;-36,43;-22,55;-36,43;2,19;2,26;2,19;2,26;0;1;
5483;-26,48;-39,37;-26,48;-39,37;2,17;1,96;2,17;1,96;0;1;
5501;-20,48;-38,89;-20,48;-38,89;2,24;1,86;2,24;1,86;0;1;
5520;-19,11;-41,15;-19,11;-41,15;2,09;2,03;2,09;2,03;0;1;
5537;-24,14;-40,98;-24,14;-40,98;2,25;2,09;2,25;2,09;0;1;
5555;-27,94;-38,31;-27,94;-38,31;2,33;1,92;2,33;1,92;0;1;
5576;-22,65;-37,79;-22,65;-37,79;2,24;1,89;2,24;1,89;0;1;
5594;-26,31;-41,99;-26,31;-41,99;2,24;2,1;2,24;2,1;0;1;
5612;-27,9;-40,02;-27,9;-40,02;2,18;2,27;2,18;2,27;0;1;
5633;-22,29;-39,63;-22,29;-39,63;1,99;2,1;1,99;2,1;0;1;
5652;-27,17;-40,73;-27,17;-40,73;2,5;2,11;2,5;2,11;0;1;
5668;-27,17;-40,73;-27,17;-40,73;3,02;2,21;3,02;2,21;0;1;
5685;-21,21;-42,32;-21,21;-42,32;3,66;2,47;3,66;2,47;0;1;
5702;-23,38;-37,53;-23,38;-37,53;3,8;2,32;3,8;2,32;0;1;
5723;-27,3;-40,99;-27,3;-40,99;3,64;2,35;3,64;2,35;0;0;
5739;-20,36;-40,65;-20,36;-40,65;3,57;2,57;3,57;2,57;0;0;
5755;-27,21;-37,19;-27,21;-37,19;3,11;2,57;3,11;2,57;0;0;
5773;-25,26;-40,99;-25,26;-40,99;2,71;2,32;2,71;2,32;0;0;
5796;-21,98;-28,85;-21,98;-28,85;2,42;2,36;2,42;2,36;0;0;
5816;-21,82;-41,61;-21,82;-41,61;2,39;5,24;2,39;5,24;0;0;
5833;-24,35;-34,26;-24,35;-34,26;2,39;6,71;2,39;6,71;0;0;
5850;-24,35;-34,26;-24,35;-34,26;2,21;8,31;2,21;8,31;0;0;
5866;-13,99;-35,67;-13,99;-35,67;2,49;8,46;2,49;8,46;0;0;
5883;-13,99;-35,67;-13,99;-35,67;2,64;8,62;2,64;8,62;0;0;
5900;-24,7;-42,2;-24,7;-42,2;2,46;6,63;2,46;6,63;0;0;
5916;-34,28;-38,23;-34,28;-38,23;2,9;4,01;2,9;4,01;0;0;
5935;-33,54;-35,84;-33,54;-35,84;4,67;2,42;4,67;2,42;0;0;
5956;-24,08;-40,98;-24,08;-40,98;4,71;2,04;4,71;2,04;0;0;
5977;6,32;-37,11;6,32;-37,11;6,24;1,98;6,24;1,98;0;0;
5995;-30,5;-44,66;-30,5;-44,66;7,7;1,86;7,7;1,86;0;0;
6013;-24,44;-35,84;-24,44;-35,84;8,24;2,44;8,24;2,44;0;0;
6031;-23,01;-39,63;-23,01;-39,63;6,39;2,62;6,39;2,62;0;0;
6048;-23,01;-39,63;-23,01;-39,63;5,75;2,76;5,75;2,76;0;0;
6065;-30,61;-35,8;-30,61;-35,8;4,97;3,02;4,97;3,02;0;0;
6082;-20,39;-38,26;-20,39;-38,26;3,15;3,17;3,15;3,17;0;0;
6102;-20,08;-42,93;-20,08;-42,93;2,35;3,1;2,35;3,1;0;0;
6131;-22,73;-37,66;-22,73;-37,66;2,38;2,65;2,38;2,65;0;0;
6148;-22,69;-40,99;-22,69;-40,99;2,43;2,55;2,43;2,55;0;0;
6165;-22,77;-42,59;-22,77;-42,59;2,68;2,2;2,68;2,2;0;0;
6183;-28,43;-32,76;-28,43;-32,76;2,68;2,11;2,68;2,11;0;0;
6203;-19,33;-37,85;-19,33;-37,85;3,84;2,2;3,84;2,2;0;0;
6221;169,02;-42,86;169,02;-42,86;27,53;2,31;27,53;2,31;0;0;
6237;-156,78;-40,59;-156,78;-40,59;47,44;2,66;47,44;2,66;0;0;
6256;-98,94;-31,49;-98,94;-31,49;60,72;2,92;60,72;2,92;0;0;
6279;-27,08;-43,52;-27,08;-43,52;67,7;3,16;67,7;3,16;0;0;
6297;1,1;-17,61;1,1;-17,61;68,68;4,21;68,68;4,21;0;0;
6318;-28,2;-42,22;-28,2;-42,22;58,98;4,65;58,98;4,65;0;0;
6336;55,96;-41,59;55,96;-41,59;37,51;4,54;37,51;4,54;0;0;
6354;14,45;-38,36;14,45;-38,36;23,97;4,41;23,97;4,41;0;0;
6370;14,45;-38,36;14,45;-38,36;15,79;4,09;15,79;4,09;0;0;
6387;-24,17;-37,57;-24,17;-37,57;14,15;3,98;14,15;3,98;0;0;
6406;-32,29;-41,23;-32,29;-41,23;14,17;2,48;14,17;2,48;0;0;
6426;-25,63;-40,06;-25,63;-40,06;13,9;2,36;13,9;2,36;0;0;
6443;-36,95;-38,34;-36,95;-38,34;11,84;2,36;11,84;2,36;0;0;
6462;-33,11;-36,67;-33,11;-36,67;10,08;2,36;10,08;2,36;0;0;
6479;-31,63;-40,87;-31,63;-40,87;8,79;2,15;8,79;2,15;0;0;
6495;-17,38;-40,32;-17,38;-40,32;10,4;2,47;10,4;2,47;0;0;
6516;-18,63;-2,38;-18,63;-2,38;9,98;5,15;9,98;5,15;0;0;
6538;-15,46;-10,84;-15,46;-10,84;9,32;9,35;9,32;9,35;0;0;
6560;-31,06;-40,14;-31,06;-40,14;9,13;14,55;9,13;14,55;0;0;
6586;-22,78;86,81;-22,78;86,81;8,9;23,09;8,9;23,09;0;0;
6611;-10,41;-60,69;-10,41;-60,69;8,45;28,92;8,45;28,92;0;0;
6633;-31,22;-74,68;-31,22;-74,68;7,37;31,9;7,37;31,9;0;0;
6654;-20,76;-72,68;-20,76;-72,68;7,93;33,3;7,93;33,3;0;0;
6674;-10,42;-46,84;-10,42;-46,84;7,48;36,3;7,48;36,3;0;0;
6696;-5,61;-14,21;-5,61;-14,21;8,68;40,74;8,68;40,74;0;0;
6717;-17,01;20,27;-17,01;20,27;9,57;39,38;9,57;39,38;0;0;
6739;-16,78;9,81;-16,78;9,81;9,94;42,69;9,94;42,69;0;0;
6756;-33,72;-59,64;-33,72;-59,64;10,04;46,47;10,04;46,47;0;0;
6772;-24,74;-4,12;-24,74;-4,12;10;46,31;10;46,31;0;0;
6790;-24,74;-4,12;-24,74;-4,12;9,31;42,53;9,31;42,53;0;0;
6811;-35,54;-144,59;-35,54;-144,59;8,15;42,41;8,15;42,41;0;0;
6829;-35,54;-144,59;-35,54;-144,59;7,48;42,96;7,48;42,96;0;0;
6847;-27,17;-19,23;-27,17;-19,23;5,52;41,6;5,52;41,6;0;0;
6863;-22,7;-97,03;-22,7;-97,03;5,31;41,66;5,31;41,66;0;0;
6883;-31,79;-28,6;-31,79;-28,6;5,69;39,8;5,69;39,8;0;0;
6906;-35,09;18,24;-35,09;18,24;5,58;38,61;5,58;38,61;0;0;
6925;-24,67;-53;-24,67;-53;5,41;32,87;5,41;32,87;0;0;
6942;-20,27;33,95;-20,27;33,95;5,26;26,94;5,26;26,94;0;0;
6960;-37,31;-46,75;-37,31;-46,75;5,45;23,76;5,45;23,76;0;0;
6977;-8,02;-41,45;-8,02;-41,45;5,27;21,32;5,27;21,32;0;0;
6995;-19,83;-50,02;-19,83;-50,02;5,13;18,93;5,13;18,93;0;0;
7013;-40,93;-5,73;-40,93;-5,73;4,99;18,63;4,99;18,63;0;0;
7030;-40,93;-5,73;-40,93;-5,73;5,07;19,2;5,07;19,2;0;0;
7050;-26,76;-39,62;-26,76;-39,62;5,42;19,56;5,42;19,56;0;0;
7071;-24,85;-41,75;-24,85;-41,75;5,09;19,46;5,09;19,46;0;0;
7087;-13,38;-36,09;-13,38;-36,09;5,15;20,29;5,15;20,29;0;0;
7105;-23,54;-57;-23,54;-57;5,28;17,88;5,28;17,88;0;0;
7124;-23,66;-46,07;-23,66;-46,07;5,15;15,75;5,15;15,75;0;0;
7140;-25,74;-54,45;-25,74;-54,45;5,07;14,18;5,07;14,18;0;0;
7157;-25,62;-55,06;-25,62;-55,06;5,03;13,4;5,03;13,4;0;0;
7174;-24,32;-58,96;-24,32;-58,96;4,82;11,82;4,82;11,82;0;0;
7194;-15,05;0,02;-15,05;0,02;4,72;12,42;4,72;12,42;0;0;
7215;-37,96;-39,41;-37,96;-39,41;4,96;12,82;4,96;12,82;0;0;
7236;-29,55;-35,1;-29,55;-35,1;4,6;13,48;4,6;13,48;0;0;
7256;-31,55;-39,84;-31,55;-39,84;4,75;12,24;4,75;12,24;0;0;
7273;-16,98;-35,73;-16,98;-35,73;4,49;11,6;4,49;11,6;0;0;
7290;-16,98;-35,73;-16,98;-35,73;4,07;10,79;4,07;10,79;0;0;
7309;-20,52;-57,71;-20,52;-57,71;3,98;9,82;3,98;9,82;0;0;
7328;-22,96;-33,3;-22,96;-33,3;3,87;7,92;3,87;7,92;0;0;
7349;-20,77;-45;-20,77;-45;3,41;7,55;3,41;7,55;0;0;
7366;-22,87;-43,2;-22,87;-43,2;3,49;7,21;3,49;7,21;0;0;
7390;-24,95;-21;-24,95;-21;3,68;6,68;3,68;6,68;0;0;
7408;-22,55;-41,08;-22,55;-41,08;3,33;5,8;3,33;5,8;0;0;
7424;-23,45;-34,89;-23,45;-34,89;2,77;5,08;2,77;5,08;0;0;
7441;-19,5;-45,37;-19,5;-45,37;2,32;4,06;2,32;4,06;0;0;
7459;-23,37;-38,78;-23,37;-38,78;2,43;2,82;2,43;2,82;0;0;
7476;-26,8;-44,48;-26,8;-44,48;2,37;3,22;2,37;3,22;0;0;
7493;-27,42;-39,8;-27,42;-39,8;2,33;2,92;2,33;2,92;0;0;
7516;-22,24;-37,64;-22,24;-37,64;3,94;3,02;3,94;3,02;0;0;
7535;14,53;-40,29;14,53;-40,29;8,71;2,97;8,71;2,97;0;0;
7554;-39,02;-40,91;-39,02;-40,91;9,69;2,92;9,69;2,92;0;0;
7573;-28,86;-35,22;-28,86;-35,22;11,24;2,65;11,24;2,65;0;0;
7592;-19,38;-40,52;-19,38;-40,52;11,23;2,13;11,23;2,13;0;0;
7608;-19,38;-40,52;-19,38;-40,52;11,05;2,05;11,05;2,05;0;0;
7627;-32,44;-40,67;-32,44;-40,67;6,66;2,45;6,66;2,45;0;0;
7645;-23,05;-40,06;-23,05;-40,06;5,22;2,81;5,22;2,81;0;0;
7664;-23,23;-38,05;-23,23;-38,05;4,43;3,01;4,43;3,01;0;0;
7681;-21,41;-40,31;-21,41;-40,31;4,34;3,14;4,34;3,14;0;0;
7698;-12,4;-35,43;-12,4;-35,43;4,91;3,31;4,91;3,31;0;0;
7723;-20,85;-38,39;-20,85;-38,39;4,87;2,97;4,87;2,97;0;0;
7741;-27,92;-38,53;-27,92;-38,53;4,02;2,59;4,02;2,59;0;0;
7762;-21,09;-42,75;-21,09;-42,75;4,25;2,35;4,25;2,35;0;0;
7781;-21,05;-38,16;-21,05;-38,16;4,08;2,2;4,08;2,2;0;0;
7801;-16,89;-41,54;-16,89;-41,54;3,74;2,09;3,74;2,09;0;1;
7819;-28,7;-31,29;-28,7;-31,29;2,57;2,49;2,57;2,49;0;1;
7837;-24,39;-40,02;-24,39;-40,02;2,28;2,57;2,28;2,57;0;1;
7856;-25,24;-44;-25,24;-44;2,25;2,73;2,25;2,73;0;1;
7878;-24,51;-34,88;-24,51;-34,88;1,77;3,02;1,77;3,02;0;1;
7896;-20,29;-39,26;-20,29;-39,26;2,13;3,12;2,13;3,12;0;1;
7914;-25,13;-42,54;-25,13;-42,54;1,96;2,96;1,96;2,96;0;1;
7935;-30,51;-36,25;-30,51;-36,25;2,22;2,98;2,22;2,98;0;1;
7954;-23,73;-35,86;-23,73;-35,86;2,59;3,12;2,59;3,12;0;1;
7973;-25,23;-38,64;-25,23;-38,64;2,8;2,81;2,8;2,81;0;1;
7995;-24;-42,41;-24;-42,41;2,86;2,39;2,86;2,39;0;1;
8014;-20,69;-37,15;-20,69;-37,15;4,12;2,29;4,12;2,29;0;1;
8035;-24,03;-39,66;-24,03;-39,66;4,09;1,79;4,09;1,79;0;1;
8055;-20,34;-38,9;-20,34;-38,9;4,04;1,82;4,04;1,82;0;1;
8072;-29,54;-40,31;-29,54;-40,31;3,97;1,59;3,97;1,59;0;1;
8088;-29,54;-40,31;-29,54;-40,31;3,9;1,54;3,9;1,54;0;1;
8106;-20,04;-39,19;-20,04;-39,19;3,18;1,52;3,18;1,52;0;1;
8125;-19,73;-37,86;-19,73;-37,86;2,41;1,49;2,41;1,49;0;1;
8142;-33,82;-34,66;-33,82;-34,66;2,73;1,44;2,73;1,44;0;0;
8159;-24,64;-42,11;-24,64;-42,11;2,81;1,49;2,81;1,49;0;0;
8179;-29,17;-36,07;-29,17;-36,07;2,87;1,74;2,87;1,74;0;0;
8201;-29,61;-40,4;-29,61;-40,4;3,24;1,84;3,24;1,84;0;0;
8221;-20,83;-34,34;-20,83;-34,34;3,32;2,18;3,32;2,18;0;0;
8241;-24,83;-40,23;-24,83;-40,23;3,21;2,33;3,21;2,33;0;0;
8258;-21,86;-36,96;-21,86;-36,96;2,74;2,45;2,74;2,45;0;0;
8277;-24,5;-41,94;-24,5;-41,94;2,49;2,39;2,49;2,39;0;0;
8296;-26,73;-42,41;-26,73;-42,41;2,23;2,48;2,23;2,48;0;0;
8313;-22,17;-36,18;-22,17;-36,18;1,95;2,44;1,95;2,44;0;0;
8329;-22,17;-36,18;-22,17;-36,18;2;2,21;2;2,21;0;0;
8353;-32,79;-31,34;-32,79;-31,34;1,97;2,43;1,97;2,43;0;0;
8370;-32,79;-31,34;-32,79;-31,34;2,29;2,71;2,29;2,71;0;0;
8386;-22,94;-36,84;-22,94;-36,84;2,32;2,61;2,32;2,61;0;0;
8403;-20,83;-37,93;-20,83;-37,93;2,37;2,68;2,37;2,68;0;0;
8422;-18,99;-36,95;-18,99;-36,95;2,42;2,78;2,42;2,78;0;0;
8441;-24,98;-38,62;-24,98;-38,62;2,46;2,86;2,46;2,86;0;0;
8458;-25,32;-40,18;-25,32;-40,18;2,22;2,45;2,22;2,45;0;0;
8475;-23,45;-41,79;-23,45;-41,79;2,3;2,2;2,3;2,2;0;0;
8492;-22,48;-32,92;-22,48;-32,92;2,34;2,31;2,34;2,31;0;0;
8514;-19,46;-41,45;-19,46;-41,45;2,34;2,58;2,34;2,58;0;0;
8533;-24,88;-34,26;-24,88;-34,26;2,34;2,53;2,34;2,53;1;0;
8552;-26,73;-38,27;-26,73;-38,27;2,43;2,54;2,43;2,54;1;0;
8567;-26,73;-38,27;-26,73;-38,27;2,27;2,58;2,27;2,58;1;0;
8586;-21,26;-41,83;-21,26;-41,83;2,13;2,53;2,13;2,53;1;0;
8604;-25,67;-38,19;-25,67;-38,19;2,33;2,22;2,33;2,22;1;0;
8620;-24,84;-34,52;-24,84;-34,52;2,3;2,16;2,3;2,16;1;0;
8639;-19,47;-31,35;-19,47;-31,35;2,13;2,36;2,13;2,36;1;0;
8657;-24,41;-16,14;-24,41;-16,14;2,42;5,47;2,42;5,47;1;0;
8679;-45,64;-23,55;-45,64;-23,55;3;10,95;3;10,95;1;0;
8696;-26,11;-2,87;-26,11;-2,87;4,34;17,57;4,34;17,57;1;0;
8716;-12,82;-95,06;-12,82;-95,06;5,23;25,15;5,23;25,15;1;0;
8734;-29,16;-71,72;-29,16;-71,72;6,67;30,68;6,67;30,68;1;0;
8752;-39,81;-85,75;-39,81;-85,75;7,52;33,85;7,52;33,85;1;0;
8768;-39,81;-85,75;-39,81;-85,75;7,89;33,11;7,89;33,11;1;0;
8786;-25,65;-62,09;-25,65;-62,09;7,85;31,92;7,85;31,92;1;0;
8804;-16,04;13,96;-16,04;13,96;8,19;34,04;8,19;34,04;1;0;
8823;-3,24;-69,27;-3,24;-69,27;9,12;34,19;9,12;34,19;1;0;
8845;-24,38;-131,77;-24,38;-131,77;8,33;34,86;8,33;34,86;1;0;
8863;-17,88;-64,72;-17,88;-64,72;8,33;36,55;8,33;36,55;1;0;
8882;-26,91;11,25;-26,91;11,25;7,44;36,03;7,44;36,03;0;0;
8900;-30,46;-46,59;-30,46;-46,59;6,92;31,96;6,92;31,96;0;0;
8919;-32,79;-56,68;-32,79;-56,68;5,91;28,46;5,91;28,46;0;0;
8938;-30,95;-46,18;-30,95;-46,18;4,67;25,53;4,67;25,53;0;0;
8956;-16,21;-53,03;-16,21;-53,03;4,65;21,54;4,65;21,54;0;0;
8978;-22,91;-68,78;-22,91;-68,78;4,8;21,1;4,8;21,1;0;0;
9003;-12,12;-96,05;-12,12;-96,05;4,79;17,24;4,79;17,24;0;0;
9022;-20,14;-39,01;-20,14;-39,01;4,61;17,4;4,61;17,4;0;0;
9039;-32,18;-52,54;-32,18;-52,54;5,04;18,72;5,04;18,72;0;0;
9058;-9,64;-34,24;-9,64;-34,24;5,21;15,42;5,21;15,42;0;0;
9074;-19,35;-10,48;-19,35;-10,48;4,86;14,68;4,86;14,68;0;0;
9092;-24,18;-37,64;-24,18;-37,64;4,62;13,9;4,62;13,9;0;0;
9108;-24,18;-37,64;-24,18;-37,64;4,6;10,11;4,6;10,11;0;0;
9127;-29,57;-39,8;-29,57;-39,8;4,48;9,78;4,48;9,78;0;0;
9149;-24,28;-26,06;-24,28;-26,06;4,03;8,34;4,03;8,34;0;0;
9174;-20,43;-34,36;-20,43;-34,36;3,91;8,18;3,91;8,18;0;0;
9191;-16,83;-49,89;-16,83;-49,89;3,74;7,17;3,74;7,17;0;0;
9212;-21,57;-43,31;-21,57;-43,31;3,67;7,4;3,67;7,4;0;0;
9234;-22,34;-43,63;-22,34;-43,63;3,37;8,03;3,37;8,03;0;0;
9252;-17,86;-38,78;-17,86;-38,78;3,37;7,55;3,37;7,55;0;0;
9271;-17,86;-38,78;-17,86;-38,78;3,11;6,85;3,11;6,85;0;0;
9289;-23,17;-44,38;-23,17;-44,38;2,61;6,54;2,61;6,54;0;0;
9307;-24,16;-32,02;-24,16;-32,02;2,51;5,74;2,51;5,74;0;0;
9330;-23,47;-36,16;-23,47;-36,16;2,66;5,03;2,66;5,03;0;0;
9355;-24,62;-34,4;-24,62;-34,4;2,33;4,36;2,33;4,36;0;0;
9373;-23,98;-38,85;-23,98;-38,85;2;4,1;2;4,1;0;0;
9392;-21,53;-37,56;-21,53;-37,56;1,87;4,03;1,87;4,03;0;0;
9412;-29,31;-42,38;-29,31;-42,38;2,48;4,16;2,48;4,16;0;0;
9432;-26,84;-32,94;-26,84;-32,94;2,46;3,91;2,46;3,91;0;0;
9450;-26,84;-32,94;-26,84;-32,94;2,21;3,96;2,21;3,96;0;0;
9467;-23,8;-40,56;-23,8;-40,56;2,5;3,95;2,5;3,95;0;0;
9488;-29,85;-37,57;-29,85;-37,57;3,08;3,65;3,08;3,65;0;0;
9504;-3,91;-37,54;-3,91;-37,54;4,27;3,28;4,27;3,28;0;0;
9523;-26,23;-37,54;-26,23;-37,54;4,23;2,63;4,23;2,63;0;0;
9539;-27,06;-47,71;-27,06;-47,71;4,31;2,36;4,31;2,36;0;0;
9557;-23,51;-35,92;-23,51;-35,92;4,81;2,46;4,81;2,46;0;0;
9575;-22,42;-38,59;-22,42;-38,59;4,62;3,59;4,62;3,59;0;0;
9592;-27,29;-40,54;-27,29;-40,54;3,65;4,21;3,65;4,21;0;0;
9609;-27,29;-40,54;-27,29;-40,54;2,84;5,05;2,84;5,05;0;0;
9625;-25,13;-43,18;-25,13;-43,18;2,84;5,34;2,84;5,34;0;0;
9647;-22,43;-39,89;-22,43;-39,89;2,61;5,13;2,61;5,13;0;0;
9663;-13,79;-38,58;-13,79;-38,58;3,02;4,3;3,02;4,3;0;0;
9680;-32,04;-38,02;-32,04;-38,02;3,77;2,93;3,77;2,93;0;0;
9697;-27,2;-46,21;-27,2;-46,21;4,39;2,5;4,39;2,5;0;0;
9717;-18,6;-40,72;-18,6;-40,72;4,59;2,41;4,59;2,41;1;0;
9732;-28,79;-40,94;-28,79;-40,94;4,59;2,67;4,59;2,67;1;0;
9748;-28,79;-40,94;-28,79;-40,94;4,65;2,97;4,65;2,97;1;0;
9767;-26,63;-39,62;-26,63;-39,62;3,43;3,32;3,43;3,32;1;0;
9786;-28,16;-43,31;-28,16;-43,31;2,77;3,34;2,77;3,34;1;0;
9808;-20,82;-38,25;-20,82;-38,25;2,56;3,35;2,56;3,35;1;0;
9824;-25,47;-37,1;-25,47;-37,1;2,5;3,67;2,5;3,67;1;0;
9843;-28,14;-39,15;-28,14;-39,15;2,73;3,29;2,73;3,29;1;0;
9860;-23,01;-44,14;-23,01;-44,14;2,52;3,18;2,52;3,18;1;0;
9878;-30,02;-40,2;-30,02;-40,2;2,91;3,19;2,91;3,19;1;0;
9896;-18,99;-40,4;-18,99;-40,4;2,75;3,56;2,75;3,56;1;0;
9917;-21,07;-37,68;-21,07;-37,68;2,75;3,67;2,75;3,67;1;0;
9935;-23,29;-40,02;-23,29;-40,02;3,03;3,34;3,03;3,34;1;0;
9955;-21,01;-38,55;-21,01;-38,55;2,86;3,03;2,86;3,03;1;0;
9977;-23,42;-36,57;-23,42;-36,57;2,94;2,9;2,94;2,9;1;0;
9995;-24,97;-35,32;-24,97;-35,32;2,75;2,68;2,75;2,68;1;0;
10013;-26,02;-46,54;-26,02;-46,54;2,65;2,51;2,65;2,51;1;0;
10031;-26,02;-46,54;-26,02;-46,54;2,3;2,54;2,3;2,54;1;0;
10049;-28,67;-33,95;-28,67;-33,95;2,31;2,73;2,31;2,73;1;0;
10066;-25,73;-43,52;-25,73;-43,52;2,32;2,59;2,32;2,59;0;0;
10085;-24,73;-45,02;-24,73;-45,02;2,27;2,55;2,27;2,55;0;0;
10101;-21,91;-42,62;-21,91;-42,62;2,44;2,49;2,44;2,49;0;0;
10120;-18,87;-38,47;-18,87;-38,47;2,7;2,57;2,7;2,57;0;0;
10144;-18,17;-39,26;-18,17;-39,26;3,22;2,52;3,22;2,52;0;0;
10164;-23,69;-35,36;-23,69;-35,36;3,23;2,27;3,23;2,27;0;0;
10183;-27,57;-38,17;-27,57;-38,17;3,25;2,72;3,25;2,72;0;0;
10200;-27,59;-43,75;-27,59;-43,75;3,02;2,97;3,02;2,97;0;0;
10218;-22,07;-36,95;-22,07;-36,95;3,35;3,55;3,35;3,55;0;0;
10237;-23,5;-36,69;-23,5;-36,69;2,89;3,29;2,89;3,29;0;0;
10256;-24,51;-38,53;-24,51;-38,53;2,4;3,49;2,4;3,49;0;0;
10273;-17,01;-41,33;-17,01;-41,33;2,47;3,53;2,47;3,53;0;0;
10296;-27,5;-40,16;-27,5;-40,16;2,8;3,58;2,8;3,58;0;0;
10315;-16,9;-38,86;-16,9;-38,86;2,82;3,07;2,82;3,07;0;0;
10334;-23,05;-47,19;-23,05;-47,19;2,78;3,45;2,78;3,45;0;0;
10350;-23,05;-47,19;-23,05;-47,19;3;3,83;3;3,83;0;0;
10368;-25,93;-44,22;-25,93;-44,22;3,18;3,81;3,18;3,81;0;0;
10387;-25,86;-41,92;-25,86;-41,92;3,01;3,8;3,01;3,8;0;0;
10408;-24,15;-49,28;-24,15;-49,28;2,85;3,69;2,85;3,69;0;0;
10424;-22,9;-40,38;-22,9;-40,38;2,48;3,47;2,48;3,47;0;0;
10446;-29,73;-37,81;-29,73;-37,81;2,74;3,21;2,74;3,21;0;0;
10463;-25,27;-42,75;-25,27;-42,75;2,75;2,76;2,75;2,76;0;0;
10480;-24,63;-41,76;-24,63;-41,76;2,46;2,96;2,46;2,96;0;0;
10497;-31,2;-37,16;-31,2;-37,16;2,74;3,7;2,74;3,7;0;0;
10514;-23,24;-44,55;-23,24;-44,55;3,28;3,49;3,28;3,49;0;0;
10532;-26,98;-37,2;-26,98;-37,2;3,36;3,55;3,36;3,55;0;0;
10551;-16,24;-34,47;-16,24;-34,47;3,8;3,81;3,8;3,81;0;0;
10569;-16,24;-34,47;-16,24;-34,47;4,46;3,73;4,46;3,73;0;0;
10586;-28,15;-42,7;-28,15;-42,7;4,61;3,52;4,61;3,52;0;0;
10607;-25,04;-37,83;-25,04;-37,83;4;3,22;4;3,22;0;0;
10623;-16,79;-35,59;-16,79;-35,59;4,16;3,43;4,16;3,43;0;0;
10643;-29,44;-38,79;-29,44;-38,79;4,03;3,4;4,03;3,4;0;0;
10661;-18,29;-41,68;-18,29;-41,68;3,75;3,39;3,75;3,39;0;0;
10682;-28,4;-36,92;-28,4;-36,92;3,66;3,55;3,66;3,55;0;0;
10701;-22,7;-31,82;-22,7;-31,82;4,28;3,52;4,28;3,52;0;0;
10717;-25,96;-46,1;-25,96;-46,1;4,23;3,12;4,23;3,12;0;0;
10736;-10,71;-40,54;-10,71;-40,54;4,41;3,38;4,41;3,38;0;0;
10756;-24,25;-40,42;-24,25;-40,42;4,13;3,1;4,13;3,1;0;0;
10776;-22,33;-36,57;-22,33;-36,57;4,06;3,63;4,06;3,63;0;0;
10794;-16,99;-37,17;-16,99;-37,17;4,03;3,47;4,03;3,47;0;0;
10812;-16,23;-45,96;-16,23;-45,96;4,19;3,72;4,19;3,72;0;0;
10828;-16,23;-45,96;-16,23;-45,96;4,39;4,02;4,39;4,02;0;0;
10845;-25,99;-35,23;-25,99;-35,23;3,95;4,45;3,95;4,45;0;0;
10865;-26,48;-42,41;-26,48;-42,41;3,74;4,51;3,74;4,51;0;0;
10884;-24,76;-30,29;-24,76;-30,29;3,63;4,47;3,63;4,47;0;0;
10901;-25,23;-34,24;-25,23;-34,24;2,85;4,5;2,85;4,5;0;0;
10922;-26,45;-40,36;-26,45;-40,36;2,52;4,08;2,52;4,08;0;0;
10945;-30,08;-33,16;-30,08;-33,16;2,54;3,71;2,54;3,71;0;0;
10962;-15,02;-31,26;-15,02;-31,26;2,82;3,94;2,82;3,94;0;0;
10982;-18,41;-36,35;-18,41;-36,35;3,05;3,84;3,05;3,84;0;0;
11002;-18,94;-40,82;-18,94;-40,82;3,57;3,86;3,57;3,86;0;0;
11023;-29,09;-43,33;-29,09;-43,33;4,13;3,62;4,13;3,62;0;0;
11040;-16,77;-45,52;-16,77;-45,52;3,98;3,35;3,98;3,35;0;0;
11058;-39,61;-41,98;-39,61;-41,98;4,92;3,13;4,92;3,13;0;0;
11081;-19,87;-44,88;-19,87;-44,88;4,77;3,04;4,77;3,04;0;0;
11098;-18,55;-34,25;-18,55;-34,25;4,67;3,29;4,67;3,29;0;0;
11116;-28,12;-44,35;-28,12;-44,35;4,47;3,14;4,47;3,14;0;0;
11134;-33,9;-39,29;-33,9;-39,29;5,22;3,59;5,22;3,59;0;0;
11151;-33,9;-39,29;-33,9;-39,29;5,78;3,69;5,78;3,69;0;0;
11168;-51,95;-38,77;-51,95;-38,77;12,97;3,52;12,97;3,52;0;0;
11186;152,62;-35,64;152,62;-35,64;29,91;4,03;29,91;4,03;0;0;
11204;-23,21;-33,99;-23,21;-33,99;49,99;3,94;49,99;3,94;0;0;
11226;-34,09;-34,09;-34,09;-34,09;53,87;4,52;53,87;4,52;0;0;
11249;-8,99;-37,97;-8,99;-37,97;53,73;4,43;53,73;4,43;0;0;
11273;-124,88;-40,88;-124,88;-40,88;60,64;4,39;60,64;4,39;0;0;
11290;-124,88;-40,88;-124,88;-40,88;64,44;4,1;64,44;4,1;0;0;
11308;-72,92;-41,4;-72,92;-41,4;40,92;4,05;40,92;4,05;0;0;
11325;-100,47;-35,7;-100,47;-35,7;36,78;3,86;36,78;3,86;0;0;
11344;-75,74;-41,28;-75,74;-41,28;50,13;3,42;50,13;3,42;0;0;
11363;-16,93;-37,72;-16,93;-37,72;51,57;3,47;51,57;3,47;0;0;
11381;15,04;-45,96;15,04;-45,96;46,3;3,81;46,3;3,81;0;0;
11403;-131,87;-39,53;-131,87;-39,53;58,18;4,16;58,18;4,16;0;0;
11420;-36,43;-51,97;-36,43;-51,97;61,62;4,76;61,62;4,76;0;0;
11439;-20,6;-36,64;-20,6;-36,64;58,46;4,9;58,46;4,9;0;0;
11457;-20,12;-39,92;-20,12;-39,92;55,87;4,29;55,87;4,29;0;0;
11475;-136,52;-37,21;-136,52;-37,21;62,91;4,18;62,91;4,18;0;0;
11494;-79,85;-42,69;-79,85;-42,69;61,93;4,21;61,93;4,21;0;0;
11510;-79,85;-42,69;-79,85;-42,69;52,41;3,94;52,41;3,94;0;0;
11529;-86,05;-44,16;-86,05;-44,16;52,65;3,48;52,65;3,48;0;0;
11548;-122,88;-33,53;-122,88;-33,53;55,28;3,33;55,28;3,33;0;0;
11571;43;-40,18;43;-40,18;53,39;4,27;53,39;4,27;0;0;
11591;-29,93;-38,51;-29,93;-38,51;46,96;3,99;46,96;3,99;1;0;
11610;6,36;-46,84;6,36;-46,84;40,84;3,82;40,84;3,82;1;0;
11627;-23,18;-36,47;-23,18;-36,47;38,76;3,94;38,76;3,94;1;0;
11644;11,15;-40,51;11,15;-40,51;46,15;3,62;46,15;3,62;1;0;
11661;-41,38;-38,36;-41,38;-38,36;38,13;3,12;38,13;3,12;1;0;
11679;-16;-35,82;-16;-35,82;33,08;3,17;33,08;3,17;1;0;
11699;37,27;-38,84;37,27;-38,84;39,7;3,46;39,7;3,46;1;0;
11721;-15,45;-42,6;-15,45;-42,6;45,35;3,19;45,35;3,19;1;0;
11738;-82,25;-31,25;-82,25;-31,25;41,5;3,17;41,5;3,17;1;0;
11755;11;-39,14;11;-39,14;36,82;3,31;36,82;3,31;1;0;
11773;69,42;-35,22;69,42;-35,22;40,48;3,32;40,48;3,32;1;0;
11789;69,42;-35,22;69,42;-35,22;40,9;3,21;40,9;3,21;1;0;
11807;6,93;-38,9;6,93;-38,9;44,48;2,95;44,48;2,95;1;0;
11824;63,49;-40,59;63,49;-40,59;51,18;3,54;51,18;3,54;1;0;
11841;-30,88;-37,82;-30,88;-37,82;54,29;3,27;54,29;3,27;1;0;
11860;-31,67;-35,44;-31,67;-35,44;53,12;2,99;53,12;2,99;1;0;
11882;49,57;-29,73;49,57;-29,73;53,95;3,17;53,95;3,17;1;0;
11898;-11,72;-43,26;-11,72;-43,26;57,04;3,62;57,04;3,62;1;0;
11916;96,95;-44,56;96,95;-44,56;42,29;3,84;42,29;3,84;1;0;
11933;-11,4;-39,63;-11,4;-39,63;43,61;3,25;43,61;3,25;0;0;
11950;-11,4;-39,63;-11,4;-39,63;47,79;3,17;47,79;3,17;0;0;
11967;-64,69;-38,72;-64,69;-38,72;52,46;3,49;52,46;3,49;0;0;
11985;-44,23;-37,07;-44,23;-37,07;44,12;3,65;44,12;3,65;0;0;
12006;-16,44;-40,02;-16,44;-40,02;45,17;3,15;45,17;3,15;0;0;
12023;-29,03;-42,99;-29,03;-42,99;38,59;3,57;38,59;3,57;0;0;
12046;13,31;-37,19;13,31;-37,19;31,92;4,15;31,92;4,15;0;0;
12066;-61,57;-39,66;-61,57;-39,66;27,71;4,26;27,71;4,26;0;0;
12083;-18,04;-34,12;-18,04;-34,12;26,05;3,98;26,05;3,98;0;0;
12099;17,87;-38,61;17,87;-38,61;29,12;3,64;29,12;3,64;0;0;
12117;18,25;-35,69;18,25;-35,69;29,56;3,81;29,56;3,81;0;0;
12133;-29,2;-41,48;-29,2;-41,48;30,07;3,53;30,07;3,53;0;0;
12152;-21,26;-39,96;-21,26;-39,96;24,22;2,96;24,22;2,96;0;0;
12170;-21,26;-39,96;-21,26;-39,96;16,56;2,73;16,56;2,73;0;0;
12186;-30,07;-39,01;-30,07;-39,01;11,37;2,55;11,37;2,55;0;0;
12208;-22,03;-37,88;-22,03;-37,88;7,8;2,82;7,8;2,82;0;0;
12227;-15,87;-42,94;-15,87;-42,94;6,62;2,83;6,62;2,83;0;0;
12247;18,12;-33,93;18,12;-33,93;7,18;2,69;7,18;2,69;0;0;
12265;-19,37;-47,69;-19,37;-47,69;10,05;3,11;10,05;3,11;0;0;
12286;-49,57;-42,93;-49,57;-42,93;12,31;3,24;12,31;3,24;0;0;
12304;-13,88;-37,74;-13,88;-37,74;19,95;2,97;19,95;2,97;0;0;
12323;-19,43;-46;-19,43;-46;19,25;3,36;19,25;3,36;0;0;
12339;-32,03;-33,75;-32,03;-33,75;18,25;3,42;18,25;3,42;0;0;
12362;-28,14;-41,48;-28,14;-41,48;15,57;3,86;15,57;3,86;0;0;
12382;-15,04;-33,72;-15,04;-33,72;15,85;3,62;15,85;3,62;0;0;
12400;-30,2;-50,38;-30,2;-50,38;13,75;3,79;13,75;3,79;0;0;
12418;-17,6;-40,93;-17,6;-40,93;8,08;3,7;8,08;3,7;0;0;
12437;-31,85;-41,36;-31,85;-41,36;7,09;3,23;7,09;3,23;0;0;
12456;-26,53;-39,3;-26,53;-39,3;7,37;3,01;7,37;3,01;0;0;
12473;-14,69;-37,45;-14,69;-37,45;6,98;2,67;6,98;2,67;0;0;
12490;-14,69;-37,45;-14,69;-37,45;4,47;2,76;4,47;2,76;0;0;
12513;-27,93;-44,9;-27,93;-44,9;4,45;2,62;4,45;2,62;0;0;
12534;-25,81;-40,68;-25,81;-40,68;4,25;2,98;4,25;2,98;0;0;
12553;-28,63;-40,74;-28,63;-40,74;3,49;3,02;3,49;3,02;0;0;
12571;-28,63;-40,74;-28,63;-40,74;3,5;3,42;3,5;3,42;0;0;
12588;-23,96;-36,58;-23,96;-36,58;3,36;3,6;3,36;3,6;0;0;
12605;-26,84;-38,92;-26,84;-38,92;4,07;3,93;4,07;3,93;0;0;
12625;-21,12;-40,97;-21,12;-40,97;4,1;3,63;4,1;3,63;0;0;
12643;-19,33;-39,1;-19,33;-39,1;3,55;3,35;3,55;3,35;0;0;
12665;-25,11;-33,82;-25,11;-33,82;3,73;3,42;3,73;3,42;0;0;
12683;-25,82;-35,42;-25,82;-35,42;3,94;3,46;3,94;3,46;0;0;
12703;-15,64;-39,21;-15,64;-39,21;3,37;3,24;3,37;3,24;0;0;
12720;-25,18;-45,88;-25,18;-45,88;3,03;3,3;3,03;3,3;0;0;
12736;-21,34;-41,32;-21,34;-41,32;3,04;3,59;3,04;3,59;0;0;
12755;-23,8;-42,66;-23,8;-42,66;3,23;3,48;3,23;3,48;0;0;
12774;-20,05;-40,5;-20,05;-40,5;3,22;3,46;3,22;3,46;0;0;
12790;-20,05;-40,5;-20,05;-40,5;3,5;3,2;3,5;3,2;0;0;
12807;-18,14;-41,84;-18,14;-41,84;3,68;3,26;3,68;3,26;0;0;
12828;-26,21;-40,41;-26,21;-40,41;3,77;2,99;3,77;2,99;0;0;
12848;-25,04;-43,12;-25,04;-43,12;3,96;2,72;3,96;2,72;0;0;
12865;-25,03;-40,59;-25,03;-40,59;3,53;2,68;3,53;2,68;0;0;
12884;-17,94;-43,11;-17,94;-43,11;3,18;2,65;3,18;2,65;0;0;
12903;-21,31;-33,32;-21,31;-33,32;2,85;3,45;2,85;3,45;0;0;
12922;-18,93;-45,24;-18,93;-45,24;2,53;3,61;2,53;3,61;0;0;
12939;-18,67;-34,08;-18,67;-34,08;2,57;4,01;2,57;4,01;0;0;
12958;-27,87;-38,18;-27,87;-38,18;2,59;3,77;2,59;3,77;0;0;
12983;-27,32;-41,31;-27,32;-41,31;2,67;3,62;2,67;3,62;0;0;
13001;-18,72;-36,48;-18,72;-36,48;2,77;3,48;2,77;3,48;0;0;
13017;-25;-30,57;-25;-30,57;2,87;3,14;2,87;3,14;0;0;
13034;-26,93;-39,61;-26,93;-39,61;2,54;3,05;2,54;3,05;0;0;
13053;-20,49;-44,17;-20,49;-44,17;2,57;2,92;2,57;2,92;0;0;
13072;-24,53;-39,38;-24,53;-39,38;2,53;2,98;2,53;2,98;0;0;
13089;-24,53;-39,38;-24,53;-39,38;2,8;3;2,8;3;0;0;
13106;-31,22;-41,12;-31,22;-41,12;2,86;2,74;2,86;2,74;0;0;
13126;-21,34;-41,54;-21,34;-41,54;3,1;2,5;3,1;2,5;0;0;
13148;-21,79;-37,27;-21,79;-37,27;2,86;2,56;2,86;2,56;0;0;
13167;-23,05;-36,21;-23,05;-36,21;3,12;2,3;3,12;2,3;0;0;
13186;-22,81;-41,46;-22,81;-41,46;3,08;2,77;3,08;2,77;0;0;
13203;-19,73;-27,92;-19,73;-27,92;2,95;3,64;2,95;3,64;0;0;
13220;-29,07;-39,36;-29,07;-39,36;2,89;3,59;2,89;3,59;0;0;
13237;-25,68;-34,98;-25,68;-34,98;3,12;3,52;3,12;3,52;0;0;
13253;-19,72;-39,18;-19,72;-39,18;2,88;3,56;2,88;3,56;0;0;
13271;-26,23;-39,03;-26,23;-39,03;2,72;3,29;2,72;3,29;0;0;
13291;-26,23;-39,03;-26,23;-39,03;2,62;2,93;2,62;2,93;0;0;
13310;-29,07;-39,01;-29,07;-39,01;2,37;2,12;2,37;2,12;0;0;
13330;-27,06;-41,95;-27,06;-41,95;2,01;2,22;2,01;2,22;0;0;
13347;-19,27;-34,97;-19,27;-34,97;2,2;2,33;2,2;2,33;0;0;
13368;-24,04;-38,31;-24,04;-38,31;2,55;2,37;2,55;2,37;0;0;
13385;-26,25;-41,99;-26,25;-41,99;2,49;2,26;2,49;2,26;0;0;
13402;-23,39;-33,21;-23,39;-33,21;2,51;2,32;2,51;2,32;0;0;
13420;-20,35;-43,93;-20,35;-43,93;2,37;2,57;2,37;2,57;0;0;
13437;-17,81;-37,39;-17,81;-37,39;2,62;2,85;2,62;2,85;0;0;
13454;-22,78;-38,89;-22,78;-38,89;2,41;2,78;2,41;2,78;0;0;
13476;-21,02;-34,26;-21,02;-34,26;2,4;2,92;2,4;2,92;1;0;
13493;-27,19;-39,86;-27,19;-39,86;2,6;3;2,6;3;1;0;
13510;-27,19;-39,86;-27,19;-39,86;2,77;2,76;2,77;2,76;1;0;
13527;-26,09;-38,14;-26,09;-38,14;2,98;2,49;2,98;2,49;1;0;
13544;-16,45;-43,93;-16,45;-43,93;2,86;2,77;2,86;2,77;1;0;
13562;-23,37;-40,89;-23,37;-40,89;2,88;3,22;2,88;3,22;1;0;
13580;-24,52;-31,06;-24,52;-31,06;2,71;3,42;2,71;3,42;1;0;
13600;-26,25;-43,77;-26,25;-43,77;2,73;3,5;2,73;3,5;1;0;
13616;-27,14;-32,9;-27,14;-32,9;2,93;3,75;2,93;3,75;1;0;
13639;-25,5;-38,89;-25,5;-38,89;3,1;3,68;3,1;3,68;1;0;
13657;-21,32;-42,56;-21,32;-42,56;2,91;3,37;2,91;3,37;1;0;
13674;-31,49;-38,91;-31,49;-38,91;3,25;2,97;3,25;2,97;1;0;
13692;-21,59;-39,93;-21,59;-39,93;3,46;2,75;3,46;2,75;1;0;
13711;-20,83;-40,28;-20,83;-40,28;3,35;2,72;3,35;2,72;1;0;
13730;-20,83;-40,28;-20,83;-40,28;2,97;2,49;2,97;2,49;1;0;
13747;-24,87;-37,24;-24,87;-37,24;3,02;2,38;3,02;2,38;1;0;
13766;-23,04;-40,65;-23,04;-40,65;3,26;2,31;3,26;2,31;1;0;
13785;-22,63;-36,32;-22,63;-36,32;2,68;2,35;2,68;2,35;1;0;
13806;-25,26;-43,42;-25,26;-43,42;2,63;2,25;2,63;2,25;1;0;
13822;-21,95;-41,75;-21,95;-41,75;2,65;2,18;2,65;2,18;1;0;
13839;-29,2;-39,17;-29,2;-39,17;2,61;1,84;2,61;1,84;0;0;
13856;-25,97;-43,59;-25,97;-43,59;2,36;1,92;2,36;1,92;0;0;
13875;-21,08;-41,42;-21,08;-41,42;2,16;2,02;2,16;2,02;0;0;
13894;-26,47;-43,46;-26,47;-43,46;2,27;2,29;2,27;2,29;0;0;
13914;-20,27;-42,58;-20,27;-42,58;2,25;2,54;2,25;2,54;0;0;
13930;-20,27;-42,58;-20,27;-42,58;2,01;2,76;2,01;2,76;0;0;
13948;-20,89;-37,65;-20,89;-37,65;1,91;2,87;1,91;2,87;0;0;
13971;-22,27;-42,92;-22,27;-42,92;2,2;3,1;2,2;3,1;0;0;
13992;-29,74;-38,82;-29,74;-38,82;2,66;2,94;2,66;2,94;0;0;
14008;-29,74;-38,82;-29,74;-38,82;3,3;2,98;3,3;2,98;0;0;
14025;-30,4;-41,7;-30,4;-41,7;3,36;2,76;3,36;2,76;0;0;
14042;-40,73;-39,34;-40,73;-39,34;8,23;2,44;8,23;2,44;0;0;
14060;-106,58;-45,86;-106,58;-45,86;21,36;2,97;21,36;2,97;0;0;
14080;-21,51;-38,4;-21,51;-38,4;26,56;3,11;26,56;3,11;0;0;
14098;-26,82;-38,97;-26,82;-38,97;28,16;2,96;28,16;2,96;0;0;
14121;-47,26;-43,02;-47,26;-43,02;41,91;3,11;41,91;3,11;0;0;
14141;-65,98;-37,65;-65,98;-37,65;55,7;3,54;55,7;3,54;0;0;
14158;-53,26;-42,35;-53,26;-42,35;50,57;3,64;50,57;3,64;0;0;
14174;-4,9;-39,48;-4,9;-39,48;50,99;3,16;50,99;3,16;0;0;
14190;-55,3;-38,19;-55,3;-38,19;50,46;2,84;50,46;2,84;0;0;
14209;-55,3;-38,19;-55,3;-38,19;46,67;2,78;46,67;2,78;0;0;
14226;-51,56;-39,9;-51,56;-39,9;42,64;2,46;42,64;2,46;0;0;
14242;25,21;-43,34;25,21;-43,34;35,43;2,1;35,43;2,1;0;0;
14260;0,79;-48,49;0,79;-48,49;34,03;2,01;34,03;2,01;0;0;
14278;-47,63;-41,86;-47,63;-41,86;34,2;2,11;34,2;2,11;0;0;
14299;-185,9;-41,68;-185,9;-41,68;40,67;2,51;40,67;2,51;0;0;
14315;-83,15;-41,17;-83,15;-41,17;47;2,82;47;2,82;0;0;
14332;-64,98;-38,77;-64,98;-38,77;51,97;2,95;51,97;2,95;0;0;
14347;-64,98;-38,77;-64,98;-38,77;59,5;3,13;59,5;3,13;0;0;
14365;61,11;-37,84;61,11;-37,84;68,01;3,17;68,01;3,17;0;0;
14385;3,97;-45,68;3,97;-45,68;65,16;3,76;65,16;3,76;0;0;
14402;-64,18;-35,85;-64,18;-35,85;53,66;3,6;53,66;3,6;0;0;
14419;33,25;-39,23;33,25;-39,23;48,26;3,72;48,26;3,72;1;0;
14435;-19,16;-37,64;-19,16;-37,64;46,43;3,54;46,43;3,54;1;0;
14457;-24,38;-43,99;-24,38;-43,99;37,85;3,35;37,85;3,35;1;0;
14474;-18,27;-34,99;-18,27;-34,99;23,36;2,81;23,36;2,81;1;0;
14491;-23,33;-39,62;-23,33;-39,62;21,27;2,94;21,27;2,94;1;0;
14509;-23,33;-39,62;-23,33;-39,62;16,68;3,39;16,68;3,39;1;0;
14527;-25,73;-41,44;-25,73;-41,44;9,16;3,64;9,16;3,64;1;0;
14543;-33,54;-40,25;-33,54;-40,25;4,8;3,67;4,8;3,67;1;0;
14560;-8,1;-38,8;-8,1;-38,8;7,72;3,64;7,72;3,64;1;0;
14578;-19,46;-42,05;-19,46;-42,05;9,99;3,4;9,99;3,4;1;0;
14598;-30,97;-38,8;-30,97;-38,8;10,09;2,79;10,09;2,79;1;0;
14619;-28,12;-36,25;-28,12;-36,25;11,5;2,47;11,5;2,47;1;0;
14636;-1,65;-41,51;-1,65;-41,51;17,06;2,44;17,06;2,44;1;0;
14656;-40,24;-40,73;-40,24;-40,73;16,84;2,47;16,84;2,47;1;0;
14673;-23,15;-36,76;-23,15;-36,76;15,28;2,67;15,28;2,67;1;0;
14690;-23,15;-36,76;-23,15;-36,76;15,1;2,63;15,1;2,63;1;0;
14708;-14,39;-32,9;-14,39;-32,9;13,71;2,89;13,71;2,89;1;0;
14727;-16,8;-38,84;-16,8;-38,84;11,43;2,75;11,43;2,75;1;0;
14744;-19,53;-41,35;-19,53;-41,35;6,53;2,45;6,53;2,45;1;0;
14762;-27,45;-37,95;-27,45;-37,95;4,38;2,47;4,38;2,47;1;0;
14784;-23,89;-41,35;-23,89;-41,35;3,08;2,26;3,08;2,26;0;0;
14801;-27,5;-40,36;-27,5;-40,36;4,36;2,16;4,36;2,16;0;0;
14818;-26,74;-38,5;-26,74;-38,5;4,08;2,01;4,08;2,01;0;0;
14837;-25,13;-36,96;-25,13;-36,96;4,32;2,2;4,32;2,2;0;0;
14856;-28,51;-40,46;-28,51;-40,46;4,13;2,22;4,13;2,22;0;0;
14874;-27,21;-45,48;-27,21;-45,48;4,49;2,56;4,49;2,56;0;0;
14891;-27,21;-45,48;-27,21;-45,48;4,13;2,91;4,13;2,91;0;0;
14907;-21,96;-39,67;-21,96;-39,67;4,02;3,38;4,02;3,38;0;0;
14924;-25,18;-38,1;-25,18;-38,1;3,79;3,16;3,79;3,16;0;0;
14948;-21,53;-35,85;-21,53;-35,85;3,68;3,16;3,68;3,16;0;0;
14967;-20,85;-41,48;-20,85;-41,48;3,39;3,07;3,39;3,07;0;0;
14985;-22,96;-36,17;-22,96;-36,17;3,17;3,07;3,17;3,07;0;0;
15003;-27,64;-38,68;-27,64;-38,68;3,02;2,89;3,02;2,89;0;0;
15019;-26,88;-39,9;-26,88;-39,9;2,98;3,07;2,98;3,07;0;0;
15036;-18,32;-41,12;-18,32;-41,12;3,23;3,21;3,23;3,21;0;0;
15054;-25,02;-39,84;-25,02;-39,84;3,34;3,03;3,34;3,03;0;0;
15070;-25,02;-39,84;-25,02;-39,84;3,28;2,84;3,28;2,84;0;0;
15087;-19,1;-36,33;-19,1;-36,33;3,22;2,58;3,22;2,58;0;0;
15110;-23,25;-33,26;-23,25;-33,26;2,54;2,68;2,54;2,68;0;0;
15128;-21,77;-39,73;-21,77;-39,73;2,27;2,52;2,27;2,52;0;0;
15144;-27,77;-43,53;-27,77;-43,53;1,83;2,47;1,83;2,47;0;0;
15160;-27,37;-37,98;-27,37;-37,98;2,18;2,68;2,18;2,68;0;0;
15178;-16,42;-41,13;-16,42;-41,13;2,49;2,8;2,49;2,8;0;0;
15196;-23,35;-43,19;-23,35;-43,19;2,49;2,69;2,49;2,69;0;0;
15217;-23;-40,6;-23;-40,6;2,72;2,5;2,72;2,5;0;0;
15233;-30,04;-38,43;-30,04;-38,43;2,9;2,45;2,9;2,45;0;0;
15251;-30,04;-38,43;-30,04;-38,43;2,91;2,59;2,91;2,59;0;0;
15273;-22,6;-39,29;-22,6;-39,29;2,8;2,42;2,8;2,42;0;0;
15288;-22,6;-39,29;-22,6;-39,29;2,65;2,45;2,65;2,45;0;0;
15307;-20,77;-40,88;-20,77;-40,88;2,55;2,4;2,55;2,4;0;0;
15326;-24,75;-45,2;-24,75;-45,2;2,58;2,44;2,58;2,44;0;0;
15346;-20,35;-37,03;-20,35;-37,03;2,62;2,6;2,62;2,6;0;0;
15363;-23,54;-41,49;-23,54;-41,49;2,44;2,43;2,44;2,43;0;0;
15382;-20,96;-44,03;-20,96;-44,03;2,42;2,36;2,42;2,36;0;0;
15402;-19,93;-39,76;-19,93;-39,76;2,49;2,61;2,49;2,61;0;0;
15422;-23,9;-37,02;-23,9;-37,02;2,39;2,81;2,39;2,81;1;0;
15439;-23,04;-33,35;-23,04;-33,35;2,54;2,71;2,54;2,71;1;0;
15456;-26,03;-44,4;-26,03;-44,4;2,29;2,83;2,29;2,83;1;0;
15472;-17,97;-34,16;-17,97;-34,16;2,69;3,05;2,69;3,05;1;0;
15490;-17,97;-34,16;-17,97;-34,16;2,96;3,08;2,96;3,08;1;0;
15507;-29,58;-45,02;-29,58;-45,02;3,13;3,04;3,13;3,04;1;0;
15525;-25,01;-36,58;-25,01;-36,58;3,3;2,61;3,3;2,61;1;0;
15541;-25,73;-35,48;-25,73;-35,48;3,32;2,53;3,32;2,53;1;0;
15558;-26,45;-41,84;-26,45;-41,84;3,2;2,67;3,2;2,67;1;0;
15583;-23,91;-39,62;-23,91;-39,62;2,9;2,67;2,9;2,67;1;0;
15602;-25,07;-37,92;-25,07;-37,92;2,52;2,55;2,52;2,55;1;0;
15620;-24,41;-45,28;-24,41;-45,28;2,39;2,36;2,39;2,36;1;0;
15637;-21,8;-36,46;-21,8;-36,46;2,89;2,52;2,89;2,52;1;0;
15656;-21,24;-36,94;-21,24;-36,94;2,92;2,28;2,92;2,28;1;0;
15675;-27,54;-38,99;-27,54;-38,99;3;2,07;3;2,07;1;0;
15691;-23,7;-40,95;-23,7;-40,95;3,22;2,1;3,22;2,1;1;0;
15710;-23,7;-40,95;-23,7;-40,95;3,32;2,14;3,32;2,14;1;0;
15732;-82,5;-39,75;-82,5;-39,75;6,85;1,89;6,85;1,89;1;0;
15750;-82,5;-39,75;-82,5;-39,75;10,33;1,96;10,33;1,96;1;0;
15766;-134,05;-42,41;-134,05;-42,41;34,89;3,26;34,89;3,26;1;0;
15784;-43,61;-40,74;-43,61;-40,74;40,84;3,6;40,84;3,6;0;0;
15804;55,24;-47,98;55,24;-47,98;46,55;3,78;46,55;3,78;0;0;
15820;-130,95;-37,96;-130,95;-37,96;59,64;3,9;59,64;3,9;0;0;
15840;-74,67;-45,04;-74,67;-45,04;60,94;4,31;60,94;4,31;0;0;
15859;-53,64;-41,72;-53,64;-41,72;50,08;4,13;50,08;4,13;0;0;
15876;-7,75;-43,33;-7,75;-43,33;42;3,6;42;3,6;0;0;
15898;-21,79;-45,51;-21,79;-45,51;40,03;3,5;40,03;3,5;0;0;
15921;-47,92;-37,32;-47,92;-37,32;36,26;3,33;36,26;3,33;0;0;
15937;-22,7;-39,88;-22,7;-39,88;32,41;2,92;32,41;2,92;0;0;
15953;0,23;-42,95;0,23;-42,95;32,8;2,6;32,8;2,6;0;0;
15970;0,23;-42,95;0,23;-42,95;36,7;2,46;36,7;2,46;0;0;
15988;-26,76;-47,47;-26,76;-47,47;38,38;2,24;38,38;2,24;0;0;
16006;54,93;-40,73;54,93;-40,73;40,81;2,34;40,81;2,34;0;0;
16024;-126,05;-32,95;-126,05;-32,95;45,16;2,41;45,16;2,41;0;0;
16042;-36,09;-35,81;-36,09;-35,81;46,49;2,64;46,49;2,64;0;0;
16062;-56,89;-41,26;-56,89;-41,26;44,71;2,94;44,71;2,94;0;0;
16080;-72,91;-35,99;-72,91;-35,99;43,35;2,99;43,35;2,99;0;0;
16098;-187,17;-35,51;-187,17;-35,51;46,79;2,84;46,79;2,84;0;0;
16116;0,96;-38,83;0,96;-38,83;50,73;3,21;50,73;3,21;0;0;
16134;0,57;-36,72;0,57;-36,72;42,3;3,24;42,3;3,24;0;0;
16153;61,72;-39,52;61,72;-39,52;42,71;3,37;42,71;3,37;0;0;
16169;61,72;-39,52;61,72;-39,52;41,81;3,24;41,81;3,24;0;0;
16184;-27,02;-38,74;-27,02;-38,74;38,18;3,17;38,18;3,17;0;0;
16204;-18,02;-39,97;-18,02;-39,97;26,78;2,94;26,78;2,94;0;0;
16226;-25,37;-38,92;-25,37;-38,92;20;2,37;20;2,37;0;0;
16244;8,48;-38,2;8,48;-38,2;16,47;2,08;16,47;2,08;0;0;
16262;-29,69;-39,99;-29,69;-39,99;12,68;2,12;12,68;2,12;0;0;
16279;-8,91;-36,55;-8,91;-36,55;7,08;2,19;7,08;2,19;0;0;
16298;-32,55;-40,88;-32,55;-40,88;6,74;2,28;6,74;2,28;0;0;
16317;-20,24;-37,95;-20,24;-37,95;8,68;2,4;8,68;2,4;0;0;
16333;-27,6;-40,09;-27,6;-40,09;8,93;2,48;8,93;2,48;0;0;
16349;-27,6;-40,09;-27,6;-40,09;8,3;2,51;8,3;2,51;0;0;
16367;-37,64;-35,96;-37,64;-35,96;9,37;2,32;9,37;2,32;0;0;
16389;-25,62;-37,01;-25,62;-37,01;12,34;2,29;12,34;2,29;0;0;
16408;1,06;-36,56;1,06;-36,56;11,98;2,01;11,98;2,01;0;0;
16425;-23,9;-38,16;-23,9;-38,16;10,05;2,16;10,05;2,16;0;0;
16444;-21,06;-39,47;-21,06;-39,47;9,74;2,25;9,74;2,25;0;0;
16464;-22,58;-36,56;-22,58;-36,56;9,04;2,28;9,04;2,28;0;0;
16483;0,11;-41,12;0,11;-41,12;5,54;2,24;5,54;2,24;0;0;
16500;-19,95;-33,7;-19,95;-33,7;5,43;2,45;5,43;2,45;0;0;
16517;-24,54;-36,69;-24,54;-36,69;3,81;2,57;3,81;2,57;0;0;
16537;-18,16;-38,9;-18,16;-38,9;4,05;2,47;4,05;2,47;0;0;
16557;-27,69;-41,76;-27,69;-41,76;4,25;2,44;4,25;2,44;0;0;
16575;-28,92;-41,1;-28,92;-41,1;4,09;2,34;4,09;2,34;0;0;
16592;-23,54;-39,73;-23,54;-39,73;4,49;2,18;4,49;2,18;0;0;
16609;-23,54;-39,73;-23,54;-39,73;5,83;1,78;5,83;1,78;0;0;
16624;-20,46;-39,16;-20,46;-39,16;5,81;1,69;5,81;1,69;0;0;
16643;-20,82;-42,56;-20,82;-42,56;5,32;1,7;5,32;1,7;0;0;
16660;-23,26;-36,7;-23,26;-36,7;5,06;1,78;5,06;1,78;0;0;
16678;-10,62;-37,83;-10,62;-37,83;5,76;2,12;5,76;2,12;0;0;
16695;-23,63;-39,37;-23,63;-39,37;4,35;2,28;4,35;2,28;0;0;
16718;-41,04;-40,2;-41,04;-40,2;3,61;2,4;3,61;2,4;0;0;
16734;-34,23;-38,63;-34,23;-38,63;4,99;2,29;4,99;2,29;0;0;
16752;-25,65;-41,68;-25,65;-41,68;5;2,25;5;2,25;0;0;
16769;-25,65;-41,68;-25,65;-41,68;4,73;1,94;4,73;1,94;0;0;
16786;-23,23;-41,1;-23,23;-41,1;3,93;2,07;3,93;2,07;0;0;
16803;-23,2;-36,68;-23,2;-36,68;3,9;2,26;3,9;2,26;0;0;
16820;-24,8;-43,31;-24,8;-43,31;2,88;2,4;2,88;2,4;0;0;
16838;-21,33;-38,01;-21,33;-38,01;2,24;2,43;2,24;2,43;0;0;
16856;-23,18;-39,76;-23,18;-39,76;2,3;2,52;2,3;2,52;0;0;
16880;-29,87;-37,46;-29,87;-37,46;2,5;2,46;2,5;2,46;0;0;
16898;-27,61;-44,92;-27,61;-44,92;3,39;2,2;3,39;2,2;0;0;
16919;-31,37;-35;-31,37;-35;3,61;2,28;3,61;2,28;0;0;
16938;-21,83;-36,68;-21,83;-36,68;3,59;2,6;3,59;2,6;0;0;
16958;-16,64;-36,4;-16,64;-36,4;4,97;2,76;4,97;2,76;0;0;
16977;-24,87;-37,52;-24,87;-37,52;4,61;2,74;4,61;2,74;0;0;
16995;-21,06;-39,04;-21,06;-39,04;4,12;2,48;4,12;2,48;0;0;
17015;-23,67;-35,07;-23,67;-35,07;3,95;2,63;3,95;2,63;0;0;
17037;-24,21;-35,96;-24,21;-35,96;4,05;2,25;4,05;2,25;0;0;
17055;-28,5;-43,86;-28,5;-43,86;2,99;2,16;2,99;2,16;0;0;
17075;-20,95;-36,23;-20,95;-36,23;3,21;2,07;3,21;2,07;0;0;
17095;-28,56;-40,33;-28,56;-40,33;3,24;1,94;3,24;1,94;0;0;
17113;-24,49;-40,69;-24,49;-40,69;3,87;1,96;3,87;1,96;0;0;
17132;-24,98;-39,75;-24,98;-39,75;3,42;1,95;3,42;1,95;0;0;
17149;-24,98;-39,75;-24,98;-39,75;3,7;1,9;3,7;1,9;0;0;
17167;-18,39;-37,55;-18,39;-37,55;3,4;1,93;3,4;1,93;0;0;
17191;-25,17;-38,37;-25,17;-38,37;3,27;1,95;3,27;1,95;0;0;
17212;-21,53;-41,34;-21,53;-41,34;2,79;2,04;2,79;2,04;0;0;
17231;-7,08;-38,54;-7,08;-38,54;3,15;2,09;3,15;2,09;0;0;
17255;-25,69;-36,94;-25,69;-36,94;3,5;2,57;3,5;2,57;0;0;
17271;-21,56;-39,26;-21,56;-39,26;3,72;2,55;3,72;2,55;0;0;
17287;-21,56;-39,26;-21,56;-39,26;4,03;2,43;4,03;2,43;0;0;
17304;-25,99;-38,65;-25,99;-38,65;3,82;2,32;3,82;2,32;1;0;
17322;-21,54;-36,49;-21,54;-36,49;3,07;2,39;3,07;2,39;1;0;
17343;-21,88;-43,95;-21,88;-43,95;3,97;2,18;3,97;2,18;1;0;
17361;-25,72;-33,3;-25,72;-33,3;3,61;2,9;3,61;2,9;1;0;
17380;-27,44;-39,79;-27,44;-39,79;3,41;2,97;3,41;2,97;1;0;
17396;-22,57;-35,23;-22,57;-35,23;3,16;2,99;3,16;2,99;1;0;
17417;-24,46;-39,96;-24,46;-39,96;3,31;3,4;3,31;3,4;1;0;
17433;-30,33;-38,26;-30,33;-38,26;3,41;3,33;3,41;3,33;1;0;
17452;-23,92;-43,5;-23,92;-43,5;2,96;2,95;2,96;2,95;1;0;
17468;-23,92;-43,5;-23,92;-43,5;3,22;3,05;3,22;3,05;1;0;
17487;-25;-40,35;-25;-40,35;3,24;3,08;3,24;3,08;1;0;
17510;-22,85;-43,48;-22,85;-43,48;4;2,81;4;2,81;1;0;
17527;-24,34;-40,15;-24,34;-40,15;3,86;3;3,86;3;1;0;
17543;-27,83;-39,88;-27,83;-39,88;3,43;3,01;3,43;3,01;1;0;
17559;-31,66;-36,95;-31,66;-36,95;3,55;2,55;3,55;2,55;1;0;
17579;-23,62;-35,38;-23,62;-35,38;4,41;2,38;4,41;2,38;1;0;
17595;-23,18;-36,96;-23,18;-36,96;4,24;2,44;4,24;2,44;1;0;
17611;-6,8;-42,84;-6,8;-42,84;4,23;2,4;4,23;2,4;1;0;
17628;-6,8;-42,84;-6,8;-42,84;4,68;2,19;4,68;2,19;1;0;
17647;-20,6;-34,98;-20,6;-34,98;4,71;2,44;4,71;2,44;1;0;
17671;-128,83;-38,3;-128,83;-38,3;7,82;2,68;7,82;2,68;0;0;
17689;8,91;-39,97;8,91;-39,97;17,81;2,6;17,81;2,6;0;0;
17707;-91,61;-41,05;-91,61;-41,05;38,56;3;38,56;3;0;0;
17725;-104,43;-43,03;-104,43;-43,03;54,48;3,54;54,48;3,54;0;0;
17744;-3,22;-34,65;-3,22;-34,65;58,94;4,08;58,94;4,08;0;0;
17763;-84,32;-38,88;-84,32;-38,88;66,51;4,11;66,51;4,11;0;0;
17780;-22,46;-43,21;-22,46;-43,21;63,03;4,36;63,03;4,36;0;0;
17800;-45,66;-32,05;-45,66;-32,05;55,24;4,39;55,24;4,39;0;0;
17824;10,21;-39,63;10,21;-39,63;43,26;4,06;43,26;4,06;0;0;
17845;54,71;-43,64;54,71;-43,64;36,21;3,39;36,21;3,39;0;0;
17863;-165,35;-46,08;-165,35;-46,08;37,21;3,04;37,21;3,04;0;0;
17880;-69,69;-39,68;-69,69;-39,68;44,19;2,96;44,19;2,96;0;0;
17897;-37,81;-43,57;-37,81;-43,57;41,65;2,49;41,65;2,49;0;0;
17917;131,06;-36,71;131,06;-36,71;43,49;2,47;43,49;2,47;0;0;
17935;2,87;-36,98;2,87;-36,98;46,17;2,66;46,17;2,66;0;0;
17952;-81,96;-41,15;-81,96;-41,15;44,92;2,5;44,92;2,5;0;0;
17973;-28,92;-34,25;-28,92;-34,25;36,49;2,44;36,49;2,44;0;0;
17990;-28,92;-34,25;-28,92;-34,25;38,74;2,48;38,74;2,48;0;0;
18009;-34,06;-36,81;-34,06;-36,81;43;2,87;43;2,87;0;0;
18027;-102,54;-37,55;-102,54;-37,55;40,32;2,83;40,32;2,83;0;0;
18045;-94,48;-35,52;-94,48;-35,52;42,91;2,65;42,91;2,65;0;0;
18061;-19,98;-35,98;-19,98;-35,98;40,23;3,07;40,23;3,07;0;0;
18079;-13,74;-37,39;-13,74;-37,39;35,76;3,17;35,76;3,17;0;0;
18095;-26,34;-39,47;-26,34;-39,47;37,85;3,38;37,85;3,38;0;0;
18117;-9,29;-39,85;-9,29;-39,85;30,71;2,98;30,71;2,98;0;0;
18136;-2,46;-37,14;-2,46;-37,14;26,27;3,02;26,27;3,02;0;0;
18152;-38,27;-38,39;-38,27;-38,39;18,67;2,85;18,67;2,85;0;0;
18170;-38,27;-38,39;-38,27;-38,39;16,57;2,49;16,57;2,49;0;0;
18186;-25,42;-39,91;-25,42;-39,91;13,61;2;13,61;2;0;0;
18205;-24,39;-40,64;-24,39;-40,64;9,74;1,89;9,74;1,89;0;0;
18224;-33,73;-40,61;-33,73;-40,61;9,87;1,89;9,87;1,89;0;0;
18242;-11,52;-35,69;-11,52;-35,69;7,39;1,79;7,39;1,79;0;0;
18259;-22,95;-40,25;-22,95;-40,25;5,95;1,95;5,95;1,95;0;0;
18277;-27,44;-37,54;-27,44;-37,54;4,87;2,07;4,87;2,07;0;0;
18299;-21,42;-41,66;-21,42;-41,66;5,93;2,14;5,93;2,14;0;0;
18316;-21,42;-41,66;-21,42;-41,66;6,27;2,15;6,27;2,15;0;0;
18335;-32,07;-40,14;-32,07;-40,14;6,6;2,43;6,6;2,43;0;0;
18353;-23,02;-39,65;-23,02;-39,65;8,78;2,58;8,78;2,58;0;0;
18369;-23,02;-39,65;-23,02;-39,65;11,18;2,55;11,18;2,55;0;0;
18387;-21,23;-40,6;-21,23;-40,6;11,31;2,42;11,31;2,42;0;0;
18406;-21,49;-38,11;-21,49;-38,11;9,99;2,36;9,99;2,36;0;0;
18422;-28,09;-40,38;-28,09;-40,38;9,94;2,24;9,94;2,24;0;0;
18439;-8;-41,61;-8;-41,61;10,47;2,17;10,47;2,17;0;0;
18458;-21,8;-37,1;-21,8;-37,1;9,32;2,23;9,32;2,23;0;0;
18475;-26,18;-36,43;-26,18;-36,43;7,86;2,48;7,86;2,48;0;0;
18492;-21,73;-45,24;-21,73;-45,24;7,66;2,71;7,66;2,71;0;0;
18509;-21,73;-45,24;-21,73;-45,24;6,64;3,1;6,64;3,1;0;0;
18527;-28,38;-36,12;-28,38;-36,12;6,13;3,11;6,13;3,11;0;0;
18544;-17,44;-36,11;-17,44;-36,11;3,67;3,19;3,67;3,19;0;0;
18560;-22,41;-41,68;-22,41;-41,68;3,8;3,13;3,8;3,13;0;0;
18578;-17,48;-40,04;-17,48;-40,04;4,12;2,83;4,12;2,83;0;0;
18595;-8,2;-33,25;-8,2;-33,25;5,04;2,61;5,04;2,61;0;0;
18617;-28,86;-33,7;-28,86;-33,7;4,8;2,49;4,8;2,49;0;0;
18635;-31,01;-36,95;-31,01;-36,95;4,92;2,43;4,92;2,43;0;0;
18652;-18,04;-38,89;-18,04;-38,89;5,16;2,33;5,16;2,33;0;0;
18669;-18,04;-38,89;-18,04;-38,89;5,65;2,39;5,65;2,39;0;0;
18686;-22,57;-38,69;-22,57;-38,69;5,8;2,4;5,8;2,4;0;0;
18705;-19,17;-42,22;-19,17;-42,22;4,85;2,41;4,85;2,41;0;0;
18722;-26,94;-35,36;-26,94;-35,36;4;2,43;4;2,43;0;0;
18742;-20,73;-37,95;-20,73;-37,95;4,4;2,3;4,4;2,3;0;0;
18759;-18,86;-40,97;-18,86;-40,97;4,22;2,35;4,22;2,35;0;0;
18783;-22,45;-36,42;-22,45;-36,42;4;2,3;4;2,3;0;0;
18801;-25,91;-38,03;-25,91;-38,03;3,95;2,15;3,95;2,15;0;0;
18822;-25,54;-38,65;-25,54;-38,65;4,3;2,18;4,3;2,18;0;0;
18840;-30,55;-41,57;-30,55;-41,57;4,8;2;4,8;2;0;0;
18856;-23,62;-36,95;-23,62;-36,95;4,13;2,09;4,13;2,09;0;0;
18874;-23,24;-39,84;-23,24;-39,84;3,79;2,1;3,79;2,1;0;0;
18890;-23,24;-39,84;-23,24;-39,84;3,74;2,19;3,74;2,19;0;0;
18907;-21,12;-36,5;-21,12;-36,5;3,56;2,33;3,56;2,33;0;0;
18925;-26,47;-42,76;-26,47;-42,76;3,3;2,57;3,3;2,57;0;0;
18945;-24,91;-39,04;-24,91;-39,04;3,17;2,62;3,17;2,62;0;0;
18962;-22,06;-37,78;-22,06;-37,78;3,21;2,83;3,21;2,83;0;0;
18982;-24;-38,19;-24;-38,19;3,31;3,02;3,31;3,02;0;0;
19002;-15,96;-42,99;-15,96;-42,99;3,98;2,98;3,98;2,98;0;0;
19019;-28,89;-38,24;-28,89;-38,24;3,77;2,91;3,77;2,91;0;0;
19034;-24,71;-40,62;-24,71;-40,62;3,28;2,71;3,28;2,71;0;0;
19053;-34,28;-39,64;-34,28;-39,64;3,44;2,56;3,44;2,56;0;0;
19068;-34,28;-39,64;-34,28;-39,64;3,58;2,51;3,58;2,51;0;0;
19085;-19,67;-39,43;-19,67;-39,43;3,67;2,41;3,67;2,41;0;0;
19107;-22,54;-40,01;-22,54;-40,01;5,08;2,44;5,08;2,44;0;0;
19125;-25,18;-40,08;-25,18;-40,08;5,2;2,2;5,2;2,2;0;0;
19143;-26,56;-38,48;-26,56;-38,48;5,71;2,24;5,71;2,24;0;0;
19159;-28,71;-36,64;-28,71;-36,64;5,7;2,03;5,7;2,03;0;0;
19176;-25,62;-40,73;-25,62;-40,73;5,81;2,09;5,81;2,09;0;0;
19193;6,75;-39,62;6,75;-39,62;5,44;2,23;5,44;2,23;0;1;
19212;-23,78;-39,12;-23,78;-39,12;6,02;2,52;6,02;2,52;0;1;
19229;-23,78;-39,12;-23,78;-39,12;7,91;2,81;7,91;2,81;0;1;
19246;-22,81;-39,49;-22,81;-39,49;7,4;2,76;7,4;2,76;0;1;
19266;-20,31;-41,38;-20,31;-41,38;8,96;2,68;8,96;2,68;0;1;
19282;-33,76;-36,64;-33,76;-36,64;9,77;2,47;9,77;2,47;0;1;
19298;3,61;-41,7;3,61;-41,7;8,99;2,14;8,99;2,14;0;1;
19316;-29,87;-37,34;-29,87;-37,34;7,6;2,2;7,6;2,2;0;1;
19335;-23,55;-34,99;-23,55;-34,99;7,72;2,26;7,72;2,26;0;1;
19350;-23,55;-34,99;-23,55;-34,99;7,29;2,54;7,29;2,54;0;1;
19367;-26,37;-41,41;-26,37;-41,41;5,52;2,67;5,52;2,67;0;1;
19385;-20,49;-35,49;-20,49;-35,49;4,01;2,62;4,01;2,62;0;1;
19403;-27,08;-41,16;-27,08;-41,16;2,69;2,87;2,69;2,87;0;1;
19426;-25,11;-37,53;-25,11;-37,53;3,13;2,8;3,13;2,8;0;1;
19448;-3,35;-46,25;-3,35;-46,25;3,7;2,83;3,7;2,83;0;1;
19463;-20,49;-35,67;-20,49;-35,67;4,91;2,61;4,91;2,61;0;1;
19481;-23,59;-30,93;-23,59;-30,93;5,68;3,29;5,68;3,29;0;1;
19497;-16,81;-41,41;-16,81;-41,41;5,79;3,27;5,79;3,27;0;1;
19514;-39,9;-41,1;-39,9;-41,1;9,56;3;9,56;3;0;1;
19532;-105,15;-39,08;-105,15;-39,08;26,53;3,14;26,53;3,14;0;0;
19548;-105,15;-39,08;-105,15;-39,08;42,12;3,11;42,12;3,11;0;0;
19565;-96,63;-37,02;-96,63;-37,02;54,42;2,82;54,42;2,82;0;0;
19587;-12,4;-39,63;-12,4;-39,63;58,73;2,63;58,73;2,63;0;0;
19605;-36,39;-36,6;-36,39;-36,6;59,05;2,68;59,05;2,68;0;0;
19623;-32,35;-46,23;-32,35;-46,23;53,11;2,9;53,11;2,9;0;0;
19644;-51,32;-42,49;-51,32;-42,49;43,01;3,05;43,01;3,05;0;0;
19661;14,47;-41,8;14,47;-41,8;31,86;3,16;31,86;3,16;0;0;
19679;-41,8;-38,88;-41,8;-38,88;25,06;3,12;25,06;3,12;0;0;
19694;-17,88;-38,29;-17,88;-38,29;24,07;3,01;24,07;3,01;0;0;
19710;-17,88;-38,29;-17,88;-38,29;23,63;2,69;23,63;2,69;0;0;
19729;1,69;-41,32;1,69;-41,32;26,23;2,52;26,23;2,52;0;0;
19755;45,95;-35,29;45,95;-35,29;36,2;2,56;36,2;2,56;0;0;
19772;-32,79;-37,32;-32,79;-37,32;31,36;2,5;31,36;2,5;0;0;
19792;-17,78;-37,67;-17,78;-37,67;30,33;2,82;30,33;2,82;0;0;
19811;-30,27;-30,65;-30,27;-30,65;27,69;5;27,69;5;0;0;
19828;-30,27;-30,65;-30,27;-30,65;22,58;7;22,58;7;0;0;
19846;-6,69;54,88;-6,69;54,88;16,66;15,89;16,66;15,89;0;0;
19863;-18,04;-164,87;-18,04;-164,87;6,34;30,31;6,34;30,31;0;0;
19884;-17,74;35,13;-17,74;35,13;7,29;40,72;7,29;40,72;0;0;
19905;-19,22;-21,51;-19,22;-21,51;8,12;48,5;8,12;48,5;0;0;
19923;-37,43;-71,54;-37,43;-71,54;9,28;54,99;9,28;54,99;1;0;
19940;-24,29;-113,09;-24,29;-113,09;10,03;57,09;10,03;57,09;1;0;
19961;-31,07;15,65;-31,07;15,65;9,54;54,09;9,54;54,09;1;0;
19978;-31,07;15,65;-31,07;15,65;9,58;51,48;9,58;51,48;1;0;
19998;4,05;59,54;4,05;59,54;10,15;53,18;10,15;53,18;1;0;
20015;-34,21;-140,24;-34,21;-140,24;10,69;55,63;10,69;55,63;1;0;
20036;-33,66;61,56;-33,66;61,56;11,09;58,58;11,09;58,58;1;0;
20060;-34,78;-135,56;-34,78;-135,56;10,71;61,91;10,71;61,91;1;0;
20076;-19,05;2,14;-19,05;2,14;10,28;62,36;10,28;62,36;1;0;
20093;-24,1;-66,35;-24,1;-66,35;9,68;64,36;9,68;64,36;1;0;
20112;-20,15;-127,09;-20,15;-127,09;8,15;54,47;8,15;54,47;1;0;
20129;-20,15;-127,09;-20,15;-127,09;7,56;45,96;7,56;45,96;1;0;
20146;-30,32;-11,73;-30,32;-11,73;7,04;45,16;7,04;45,16;1;0;
20164;-9,2;-8,36;-9,2;-8,36;7,03;38,43;7,03;38,43;1;0;
20181;-30,4;15,98;-30,4;15,98;6,71;36,86;6,71;36,86;1;0;
20199;-30,67;-95,74;-30,67;-95,74;6,56;38,52;6,56;38,52;1;0;
20223;-28,39;-51,2;-28,39;-51,2;6,4;39,58;6,4;39,58;1;0;
20242;-34,05;-45,4;-34,05;-45,4;6,36;35,49;6,36;35,49;1;0;
20261;-23,26;-69,23;-23,26;-69,23;5,84;33,37;5,84;33,37;0;0;
20279;-32,88;-67,44;-32,88;-67,44;5,67;29,48;5,67;29,48;0;0;
20296;-16,15;-58,91;-16,15;-58,91;5,8;25,6;5,8;25,6;0;0;
20314;-22,49;4,38;-22,49;4,38;5,55;24,15;5,55;24,15;0;0;
20330;-22,49;4,38;-22,49;4,38;4,88;23,26;4,88;23,26;0;0;
20352;-26,86;-47,85;-26,86;-47,85;4,35;21,58;4,35;21,58;0;0;
20384;-27,25;-37,26;-27,25;-37,26;4,04;18,89;4,04;18,89;0;0;
20405;-22,07;-42,7;-22,07;-42,7;4,02;17,33;4,02;17,33;0;0;
20421;-28,61;-18,23;-28,61;-18,23;3,52;13,64;3,52;13,64;0;0;
20438;-13,76;-41,49;-13,76;-41,49;3,35;10,56;3,35;10,56;0;0;
20455;-28,16;-37,56;-28,16;-37,56;3,25;8,44;3,25;8,44;0;0;
20470;-28,16;-37,56;-28,16;-37,56;3,61;8,95;3,61;8,95;0;0;
20488;-22,36;-37,53;-22,36;-37,53;3,31;7,49;3,31;7,49;0;0;
20505;-22,36;-37,53;-22,36;-37,53;3,29;7,04;3,29;7,04;0;0;
20526;-26,24;-43,09;-26,24;-43,09;3,3;6,25;3,3;6,25;0;0;
20544;-30,16;-46,15;-30,16;-46,15;3,11;5,85;3,11;5,85;0;0;
20565;-24,32;-36,62;-24,32;-36,62;2,74;5,67;2,74;5,67;0;0;
20584;-31,1;-36,13;-31,1;-36,13;2,47;5,21;2,47;5,21;0;0;
20604;-35,16;-42,13;-35,16;-42,13;3,9;5,38;3,9;5,38;0;0;
20621;-29,39;-38,01;-29,39;-38,01;4,97;5,25;4,97;5,25;0;0;
20639;-22,78;-35,69;-22,78;-35,69;5,11;4,78;5,11;4,78;0;0;
20659;-20,29;-42,43;-20,29;-42,43;4,98;3,83;4,98;3,83;0;0;
20678;-24,49;-40,77;-24,49;-40,77;6;2,7;6;2,7;0;0;
20694;-19,53;-40,61;-19,53;-40,61;5,58;2,65;5,58;2,65;0;0;
20711;-19,44;-42,16;-19,44;-42,16;4,6;2,66;4,6;2,66;0;0;
20727;-19,44;-42,16;-19,44;-42,16;4,9;2,72;4,9;2,72;0;0;
20745;-22,34;-35,76;-22,34;-35,76;4,64;2,26;4,64;2,26;0;0;
20764;-23,17;-41,36;-23,17;-41,36;4,41;2,74;4,41;2,74;0;0;
20784;-22,49;-35,91;-22,49;-35,91;3,43;2,65;3,43;2,65;0;0;
20802;-24,51;-39,84;-24,51;-39,84;3,45;2,84;3,45;2,84;0;0;
20820;-27,03;-38,37;-27,03;-38,37;2,88;2,69;2,88;2,69;0;0;
20841;-26,88;-39,02;-26,88;-39,02;2,6;2,53;2,6;2,53;0;0;
20860;-27,35;-35,17;-27,35;-35,17;3,59;2,38;3,59;2,38;0;0;
20877;-21,55;-36,08;-21,55;-36,08;4,03;2,31;4,03;2,31;0;0;
20893;-25,48;-43,92;-25,48;-43,92;4,07;2,65;4,07;2,65;0;0;
20910;-25,48;-43,92;-25,48;-43,92;4,27;2,95;4,27;2,95;0;0;
20928;-23,78;-34,49;-23,78;-34,49;4,08;3,13;4,08;3,13;0;0;
20945;-21,8;-33,33;-21,8;-33,33;3,38;3,19;3,38;3,19;0;0;
20962;-21,28;-41,34;-21,28;-41,34;2,5;3,36;2,5;3,36;0;0;
20979;-21,79;-42,71;-21,79;-42,71;2,12;3,21;2,12;3,21;0;0;
21000;-26,63;-44,81;-26,63;-44,81;1,95;3,18;1,95;3,18;0;0;
21017;-21,88;-31,56;-21,88;-31,56;2,01;3,13;2,01;3,13;0;0;
21036;-23,15;-44,75;-23,15;-44,75;1,93;3,2;1,93;3,2;0;0;
21053;-28,44;-42,33;-28,44;-42,33;2,43;3,42;2,43;3,42;0;0;
21069;-28,44;-42,33;-28,44;-42,33;2,95;3,55;2,95;3,55;0;0;
21087;-29,82;-40,98;-29,82;-40,98;3,11;3,27;3,11;3,27;0;0;
21103;-21,92;-37,09;-21,92;-37,09;3,22;3,13;3,22;3,13;1;0;
21122;-21,73;-39,69;-21,73;-39,69;3,38;3,17;3,38;3,17;1;0;
21140;-21,39;-37,1;-21,39;-37,1;3,64;2,93;3,64;2,93;1;0;
21160;-21,32;-31,83;-21,32;-31,83;3,19;3,47;3,19;3,47;1;0;
21177;-26,07;-42,97;-26,07;-42,97;2,86;3,58;2,86;3,58;1;0;
21194;-20,38;-40,85;-20,38;-40,85;2,71;3,58;2,71;3,58;1;0;
21213;-25,37;-44,67;-25,37;-44,67;2,69;3,46;2,69;3,46;1;0;
21230;-25,37;-44,67;-25,37;-44,67;2,47;3,23;2,47;3,23;1;0;
21246;-27,15;-35,2;-27,15;-35,2;2,34;2,83;2,34;2,83;1;0;
21267;-30,7;-40,4;-30,7;-40,4;2,48;2,68;2,48;2,68;1;0;
21285;-28,92;-44,85;-28,92;-44,85;2,53;2,89;2,53;2,89;1;0;
21302;-24,65;-42,35;-24,65;-42,35;2,49;3,39;2,49;3,39;1;0;
21323;-24,51;-40,62;-24,51;-40,62;2,4;3,4;2,4;3,4;1;0;
21342;-24,4;-33,26;-24,4;-33,26;2,41;3,25;2,41;3,25;1;0;
21360;-22,28;-43,47;-22,28;-43,47;2,46;3,31;2,46;3,31;1;0;
21377;-21,81;-42,71;-21,81;-42,71;2,25;3,2;2,25;3,2;1;0;
21394;-17,95;-39,84;-17,95;-39,84;2,31;2,88;2,31;2,88;1;0;
21408;-17,95;-39,84;-17,95;-39,84;2,61;2,56;2,61;2,56;1;0;
21425;-21,34;-40,65;-21,34;-40,65;2,71;2,95;2,71;2,95;1;0;
21441;-23,36;-39,15;-23,36;-39,15;2,8;3,16;2,8;3,16;0;0;
21458;-22,71;-47,21;-22,71;-47,21;2,99;3,65;2,99;3,65;0;0;
21480;-16,9;-15,72;-16,9;-15,72;3,32;6,49;3,32;6,49;0;0;
21496;-24,26;-30,75;-24,26;-30,75;3,21;7,93;3,21;7,93;0;0;
21515;-25,1;-33,02;-25,1;-33,02;2,92;8,2;2,92;8,2;0;0;
21536;-29,86;-42,38;-29,86;-42,38;3,07;8,64;3,07;8,64;0;0;
21553;-25,86;-36,62;-25,86;-36,62;3,28;8,48;3,28;8,48;0;0;
21569;-25,86;-36,62;-25,86;-36,62;3,34;7,93;3,34;7,93;0;0;
21586;-24,93;-7,84;-24,93;-7,84;3,24;7,8;3,24;7,8;0;0;
21600;-24,77;-42,06;-24,77;-42,06;3,3;7,61;3,3;7,61;0;0;
21617;-27,17;-38,23;-27,17;-38,23;3,41;8,17;3,41;8,17;0;0;
21642;-24,34;-36,59;-24,34;-36,59;3,18;8,21;3,18;8,21;0;0;
21661;-22,53;-49,7;-22,53;-49,7;2,91;8,09;2,91;8,09;0;0;
21677;-29,27;-38,57;-29,27;-38,57;2,74;8,7;2,74;8,7;0;0;
21694;-24,53;-40,01;-24,53;-40,01;2,65;6,44;2,65;6,44;0;0;
21711;-24,28;-39,32;-24,28;-39,32;2,41;5,77;2,41;5,77;0;0;
21727;-24,28;-39,32;-24,28;-39,32;2,25;4,81;2,25;4,81;0;0;
21745;-25,23;-39,6;-25,23;-39,6;2,21;4,78;2,21;4,78;0;0;
21764;-21,79;-47,58;-21,79;-47,58;2,31;5,63;2,31;5,63;0;0;
21781;-21,86;-33,73;-21,86;-33,73;2,22;5,03;2,22;5,03;0;0;
21801;-26,45;-39,57;-26,45;-39,57;2,41;5,16;2,41;5,16;0;0;
21818;-20,92;-32,94;-20,92;-32,94;2,41;5,34;2,41;5,34;0;0;
21834;-24,1;-36,6;-24,1;-36,6;2,37;5,2;2,37;5,2;0;0;
21851;-24,1;-36,6;-24,1;-36,6;2,23;5,05;2,23;5,05;0;0;
21867;-28,56;-43,64;-28,56;-43,64;2,14;3,99;2,14;3,99;0;0;
21884;-17,58;-43,16;-17,58;-43,16;2,44;4,35;2,44;4,35;0;0;
21901;-26,57;-48,18;-26,57;-48,18;2,44;5,24;2,44;5,24;0;0;
21918;-22,37;-32,01;-22,37;-32,01;2,53;5,42;2,53;5,42;0;0;
21941;-25,33;-45,06;-25,33;-45,06;2,71;5,44;2,71;5,44;0;0;
21960;-21,08;-43,05;-21,08;-43,05;2,72;5,68;2,72;5,68;0;0;
21978;-24,51;-37,99;-24,51;-37,99;2,52;5,64;2,52;5,64;0;0;
21999;-24,48;-46,16;-24,48;-46,16;2,19;5,21;2,19;5,21;0;0;
22017;-27,2;-45,92;-27,2;-45,92;2,15;4,56;2,15;4,56;0;0;
22033;-21,11;-43,43;-21,11;-43,43;1,94;3,85;1,94;3,85;0;0;
22050;-21,11;-43,43;-21,11;-43,43;2,06;3,72;2,06;3,72;0;0;
22067;-19,3;-39,77;-19,3;-39,77;2,27;3,38;2,27;3,38;0;0;
22084;-25,82;-36,88;-25,82;-36,88;2,92;3,28;2,92;3,28;0;0;
22103;-19,97;-37,36;-19,97;-37,36;3,18;3,45;3,18;3,45;0;0;
22126;-24,39;-33,19;-24,39;-33,19;3,06;3,92;3,06;3,92;0;0;
22146;-16,9;-36,45;-16,9;-36,45;3,45;3,88;3,45;3,88;0;0;
22165;-22,68;-35,22;-22,68;-35,22;3,5;3,81;3,5;3,81;0;0;
22180;-22,98;-44,03;-22,98;-44,03;3,36;3,81;3,36;3,81;0;0;
22199;-22,91;-38,26;-22,91;-38,26;3,08;3,3;3,08;3,3;0;0;
22220;-25,65;-49,87;-25,65;-49,87;3,14;2,97;3,14;2,97;0;0;
22238;-25,01;-46,69;-25,01;-46,69;2,67;3,19;2,67;3,19;0;0;
22256;-26,71;-42,44;-26,71;-42,44;2,64;3,15;2,64;3,15;0;0;
22278;-20,67;-40,44;-20,67;-40,44;2,69;3,16;2,69;3,16;0;0;
22294;-27,34;-35,4;-27,34;-35,4;2,8;3,01;2,8;3,01;0;0;
22314;-16,94;-46,86;-16,94;-46,86;2,89;3,08;2,89;3,08;0;0;
22331;-29,73;-37,62;-29,73;-37,62;3,26;3,14;3,26;3,14;0;0;
22348;-29,73;-37,62;-29,73;-37,62;3,68;2,92;3,68;2,92;0;0;
22365;-23,77;-41,31;-23,77;-41,31;3,53;3,48;3,53;3,48;0;0;
22382;-20,72;-33,11;-20,72;-33,11;3,71;3,82;3,71;3,82;0;0;
22402;-30,73;-39,62;-30,73;-39,62;3,68;3,97;3,68;3,97;0;0;
22418;-21,32;-40,58;-21,32;-40,58;3,92;3,57;3,92;3,57;0;0;
22438;-22,55;-41,33;-22,55;-41,33;3,49;3,14;3,49;3,14;0;0;
22454;-27,15;-44,73;-27,15;-44,73;3,4;2,96;3,4;2,96;0;0;
22472;-24,78;-41,8;-24,78;-41,8;3,28;2,67;3,28;2,67;0;0;
22488;-24,78;-41,8;-24,78;-41,8;2,84;2,5;2,84;2,5;0;0;
22505;-24,14;-42,74;-24,14;-42,74;2,28;2,94;2,28;2,94;0;0;
22523;-30,5;-35,48;-30,5;-35,48;2,31;2,77;2,31;2,77;0;0;
22540;-27,34;-46,18;-27,34;-46,18;2,38;2,9;2,38;2,9;0;0;
22556;-31,84;-42,18;-31,84;-42,18;2,44;2,85;2,44;2,85;0;0;
22575;-19,68;-35,53;-19,68;-35,53;2,63;2,98;2,63;2,98;0;0;
22597;-27,21;-42,08;-27,21;-42,08;2,54;2,8;2,54;2,8;0;0;
22613;-27,83;-37,7;-27,83;-37,7;2,54;2,92;2,54;2,92;0;0;
22629;-27,83;-37,7;-27,83;-37,7;2,15;3;2,15;3;0;0;
22648;-25,64;-37,06;-25,64;-37,06;2,11;3,23;2,11;3,23;0;0;
22666;-22,18;-41,62;-22,18;-41,62;1,69;3,21;1,69;3,21;0;0;
22684;-25,3;-44,63;-25,3;-44,63;1,79;3,32;1,79;3,32;0;0;
22701;-27,41;-45,48;-27,41;-45,48;1,94;3,44;1,94;3,44;0;0;
22718;-23,12;-36,07;-23,12;-36,07;2,26;3,68;2,26;3,68;0;0;
22735;-26,24;-46,56;-26,24;-46,56;2,38;3,57;2,38;3,57;0;0;
22756;-26,33;-35,6;-26,33;-35,6;2,62;4,24;2,62;4,24;0;0;
22774;-19,57;-28,98;-19,57;-28,98;2,76;4,59;2,76;4,59;0;0;
22790;-19,57;-28,98;-19,57;-28,98;2,88;4,69;2,88;4,69;0;0;
22806;-23,64;-37,73;-23,64;-37,73;2,72;4,58;2,72;4,58;0;0;
22822;-31,29;-43,23;-31,29;-43,23;2,73;4,6;2,73;4,6;0;0;
22839;-18,51;-40,16;-18,51;-40,16;2,67;4,11;2,67;4,11;0;0;
22857;-23,65;-39,56;-23,65;-39,56;2,85;4,23;2,85;4,23;0;0;
22874;-23,96;-41,33;-23,96;-41,33;2,73;3,98;2,73;3,98;0;0;
22891;-23,61;-43;-23,61;-43;2,38;3,71;2,38;3,71;0;0;
22911;-27,2;-38,42;-27,2;-38,42;2,28;3,33;2,28;3,33;0;0;
22931;-27,52;-38,83;-27,52;-38,83;2,3;3,25;2,3;3,25;0;0;
22947;-27,52;-38,83;-27,52;-38,83;2,18;3,36;2,18;3,36;0;0;
22963;-30,03;-35,4;-30,03;-35,4;2,45;3,13;2,45;3,13;0;0;
22983;-24,21;-39,23;-24,21;-39,23;3;3,27;3;3,27;0;0;
23000;-23,43;-32,73;-23,43;-32,73;2,99;3,21;2,99;3,21;0;1;
23017;-23,37;-41,63;-23,37;-41,63;3,22;3,36;3,22;3,36;0;1;
23032;-24,85;-37,71;-24,85;-37,71;3,13;3,28;3,13;3,28;0;1;
23050;-24,85;-37,71;-24,85;-37,71;2,73;3,24;2,73;3,24;0;1;
23069;-24,98;-42,77;-24,98;-42,77;2,36;3,31;2,36;3,31;0;1;
23086;-19,11;-30,44;-19,11;-30,44;2,33;3,74;2,33;3,74;0;1;
23103;-20,26;-20,92;-20,26;-20,92;2,8;6,28;2,8;6,28;0;1;
23121;-30,64;-26,7;-30,64;-26,7;3,53;15,85;3,53;15,85;0;1;
23138;-5,64;42,04;-5,64;42,04;5,69;26,4;5,69;26,4;0;1;
23159;-24,45;-63,95;-24,45;-63,95;6,61;36,3;6,61;36,3;0;0;
23180;-32,39;-0,7;-32,39;-0,7;9,2;45,32;9,2;45,32;0;0;
23199;-30,38;-56,35;-30,38;-56,35;10,03;49,52;10,03;49,52;0;0;
23219;-27,58;73,97;-27,58;73,97;10,09;58,51;10,09;58,51;0;0;
23242;-29,75;-76,95;-29,75;-76,95;9,69;55,11;9,69;55,11;0;0;
23261;-11,11;-26,99;-11,11;-26,99;8,66;56,03;8,66;56,03;0;0;
23279;-12,12;14,21;-12,12;14,21;7,97;52,26;7,97;52,26;0;0;
23296;-15,14;-30,28;-15,14;-30,28;7,32;49,44;7,32;49,44;0;0;
23314;-20,1;-18,38;-20,1;-18,38;6,9;48,33;6,9;48,33;0;0;
23330;-20,1;-18,38;-20,1;-18,38;6,56;43,82;6,56;43,82;0;0;
23348;-25,11;-39,49;-25,11;-39,49;6,7;36,07;6,7;36,07;0;0;
23365;-30,53;-32,49;-30,53;-32,49;5,98;30,18;5,98;30,18;0;0;
23382;-19,2;-7,46;-19,2;-7,46;5,43;27,97;5,43;27,97;0;0;
23403;-34,78;-67,22;-34,78;-67,22;5,03;24,59;5,03;24,59;0;0;
23418;-22,93;-57,35;-22,93;-57,35;4,79;19,61;4,79;19,61;0;0;
23438;-23,28;-43,72;-23,28;-43,72;4,47;14,57;4,47;14,57;0;0;
23457;-27,76;-43,02;-27,76;-43,02;4,2;13,68;4,2;13,68;0;0;
23473;-21,53;-38,31;-21,53;-38,31;3,9;13,36;3,9;13,36;0;0;
23495;-24,94;-66,65;-24,94;-66,65;3,63;13,67;3,63;13,67;0;0;
23510;-24,94;-66,65;-24,94;-66,65;3,03;15,08;3,03;15,08;0;0;
23527;-29,82;-26,1;-29,82;-26,1;3;15,29;3;15,29;0;0;
23545;-26,46;-56,7;-26,46;-56,7;3;17,54;3;17,54;0;0;
23568;-21,48;-27,35;-21,48;-27,35;3,38;17,79;3,38;17,79;0;0;
23587;-30,88;-48,65;-30,88;-48,65;3,45;16,49;3,45;16,49;0;0;
23604;-23,22;-45,22;-23,22;-45,22;3,66;13,42;3,66;13,42;0;0;
23621;-26,1;-34,27;-26,1;-34,27;3,75;11,16;3,75;11,16;0;0;
23639;-21,65;-46,64;-21,65;-46,64;3,54;9,63;3,54;9,63;0;0;
23658;-22,01;-44,17;-22,01;-44,17;3,02;7,69;3,02;7,69;0;0;
23674;-21,06;-40,46;-21,06;-40,46;2,88;6,28;2,88;6,28;0;0;
23692;-18,29;-28,77;-18,29;-28,77;2,41;5,51;2,41;5,51;0;0;
23708;-18,29;-28,77;-18,29;-28,77;2,35;4,6;2,35;4,6;0;0;
23728;-21,84;-44,7;-21,84;-44,7;2,16;4,79;2,16;4,79;1;0;
23745;-27,34;-46,59;-27,34;-46,59;2,18;4,72;2,18;4,72;1;0;
23764;-20,36;-32,68;-20,36;-32,68;2,12;4,77;2,12;4,77;1;0;
23782;-34,19;-38,16;-34,19;-38,16;3,46;4,66;3,46;4,66;1;0;
23801;-26,81;-38,72;-26,81;-38,72;4,14;4,49;4,14;4,49;1;0;
23817;-24,49;-38,66;-24,49;-38,66;3,95;3,97;3,95;3,97;1;0;
23833;-21,71;-52,02;-21,71;-52,02;3,89;4,44;3,89;4,44;1;0;
23849;-21,71;-52,02;-21,71;-52,02;3,91;4,5;3,91;4,5;1;0;
23866;-22,17;-37,68;-22,17;-37,68;3,67;3,89;3,67;3,89;1;0;
23888;-25,58;-49,04;-25,58;-49,04;2,11;4,01;2,11;4,01;1;0;
23904;-27,54;-36;-27,54;-36;1,98;3,99;1,98;3,99;1;0;
23921;-22,59;-43,45;-22,59;-43,45;2,12;4,17;2,12;4,17;1;0;
23939;-24,96;-35,23;-24,96;-35,23;2,43;3,54;2,43;3,54;1;0;
23958;-24,74;-27,95;-24,74;-27,95;2,45;2,96;2,45;2,96;1;0;
23975;-25,74;-45,76;-25,74;-45,76;2,74;3,31;2,74;3,31;1;0;
23993;-17,87;-36,97;-17,87;-36,97;3,02;3,74;3,02;3,74;1;0;
24010;-17,87;-36,97;-17,87;-36,97;3,28;4,46;3,28;4,46;1;0;
24025;-27,77;-47,2;-27,77;-47,2;3,41;4,52;3,41;4,52;1;0;
24049;-28,06;-35,64;-28,06;-35,64;3,43;4,85;3,43;4,85;1;0;
24066;-26,47;-39,13;-26,47;-39,13;3,15;4,93;3,15;4,93;0;0;
24084;-31,22;-38,53;-31,22;-38,53;3,43;4,47;3,43;4,47;0;0;
24100;-20,68;-40,1;-20,68;-40,1;3,39;4,22;3,39;4,22;0;0;
24118;-29,16;-43,27;-29,16;-43,27;3;3,93;3;3,93;0;0;
24137;-26,23;-34,78;-26,23;-34,78;2,88;3,67;2,88;3,67;0;0;
24156;-20,82;-44,14;-20,82;-44,14;2,65;3,47;2,65;3,47;0;0;
24174;-23,94;-42,02;-23,94;-42,02;2,36;3,53;2,36;3,53;0;0;
24192;-21,08;-28,97;-21,08;-28,97;2,12;3,9;2,12;3,9;0;0;
24215;-24,51;-40,07;-24,51;-40,07;2,02;3,73;2,02;3,73;0;0;
24234;-18,4;-52,5;-18,4;-52,5;2,01;3,95;2,01;3,95;0;0;
24250;-18,4;-52,5;-18,4;-52,5;1,95;4,08;1,95;4,08;0;0;
24266;-32,38;-36,64;-32,38;-36,64;2,26;4,28;2,26;4,28;0;0;
24283;-24,84;-39,83;-24,84;-39,83;2,27;4,33;2,27;4,33;0;0;
24301;-20,03;-38,91;-20,03;-38,91;2,21;4,14;2,21;4,14;0;0;
24317;-29,58;-42,01;-29,58;-42,01;2,4;4,29;2,4;4,29;0;0;
24333;-20,09;-37,53;-20,09;-37,53;2,7;4,1;2,7;4,1;0;0;
24349;-20,09;-37,53;-20,09;-37,53;2,94;3,64;2,94;3,64;0;0;
24369;-22,89;-44,74;-22,89;-44,74;3,03;3,56;3,03;3,56;0;0;
24387;-28,8;-40,55;-28,8;-40,55;3,45;5,22;3,45;5,22;0;0;
24407;-22,46;-41,87;-22,46;-41,87;3,44;5,78;3,44;5,78;0;0;
24423;-25,87;-39,77;-25,87;-39,77;3,07;5,76;3,07;5,76;0;0;
24439;-21,84;-45,46;-21,84;-45,46;2,86;6,28;2,86;6,28;0;0;
24459;-21,52;-36,78;-21,52;-36,78;2,58;6,31;2,58;6,31;0;0;
24477;-20,53;-39,85;-20,53;-39,85;2,22;5,54;2,22;5,54;0;0;
24496;-22,4;-32,02;-22,4;-32,02;2,12;4,04;2,12;4,04;0;0;
24516;-20,8;-36,65;-20,8;-36,65;2,33;4;2,33;4;0;0;
24538;-18,09;-44,17;-18,09;-44,17;2,44;3,8;2,44;3,8;0;0;
24556;-25,8;-36,9;-25,8;-36,9;2,61;3,89;2,61;3,89;0;0;
24572;-22,16;-39,79;-22,16;-39,79;2,46;4,09;2,46;4,09;0;0;
24587;-22,16;-39,79;-22,16;-39,79;2,53;3,82;2,53;3,82;0;0;
24607;-19,75;-32,06;-19,75;-32,06;2,51;3,89;2,51;3,89;0;0;
24624;-27,08;-42,87;-27,08;-42,87;2,59;4,6;2,59;4,6;0;0;
24643;-23,17;-39,6;-23,17;-39,6;2,71;4,37;2,71;4,37;0;0;
24661;-18,87;-40,62;-18,87;-40,62;2,86;4,66;2,86;4,66;0;0;
24680;-22,32;-31,58;-22,32;-31,58;3,23;4,71;3,23;4,71;0;0;
24701;-29,15;-30,83;-29,15;-30,83;3,47;4,76;3,47;4,76;0;0;
24719;-20,55;-37,21;-20,55;-37,21;3,44;4,77;3,44;4,77;0;0;
24736;-20,76;-49,94;-20,76;-49,94;3,42;5,04;3,42;5,04;0;0;
24751;-20,76;-49,94;-20,76;-49,94;3,68;5,52;3,68;5,52;0;0;
24766;-22,45;-36,02;-22,45;-36,02;3,45;5,35;3,45;5,35;0;0;
24785;-22,55;-40,02;-22,55;-40,02;3,1;5,44;3,1;5,44;0;0;
24806;-23,78;-39,54;-23,78;-39,54;2,85;5,18;2,85;5,18;0;0;
24822;-21,32;-32,64;-21,32;-32,64;2,49;5,36;2,49;5,36;0;0;
24839;-27,42;-39,42;-27,42;-39,42;2,11;4,69;2,11;4,69;0;0;
24859;-25,34;-31,14;-25,34;-31,14;2,14;4,29;2,14;4,29;0;0;
24876;-24,83;-45,35;-24,83;-45,35;2,43;4,19;2,43;4,19;0;0;
24893;-17,31;-39,65;-17,31;-39,65;2,63;4,25;2,63;4,25;1;0;
24910;-17,31;-39,65;-17,31;-39,65;2,76;4,13;2,76;4,13;1;0;
24927;-25,14;-37,36;-25,14;-37,36;2,66;3,85;2,66;3,85;1;0;
24945;-22,05;-40,28;-22,05;-40,28;2,56;4,5;2,56;4,5;1;0;
24961;-18,15;-34,52;-18,15;-34,52;2,75;5;2,75;5;1;0;
24980;-21,04;-52,53;-21,04;-52,53;2,84;7,47;2,84;7,47;1;0;
24998;-24,31;-34,72;-24,31;-34,72;2,68;9,7;2,68;9,7;1;0;
25022;-25,11;-111,51;-25,11;-111,51;3,57;12,56;3,57;12,56;1;0;
25042;-22,15;-36,88;-22,15;-36,88;3,79;13,43;3,79;13,43;1;0;
25059;-21,82;-49,14;-21,82;-49,14;3,8;12,72;3,8;12,72;1;0;
25079;-65,75;-28,89;-65,75;-28,89;24,16;12,22;24,16;12,22;1;0;
25097;162,86;-34,8;162,86;-34,8;45,85;9,42;45,85;9,42;1;0;
25114;-188,83;-35,05;-188,83;-35,05;66,9;7,46;66,9;7,46;1;0;
25133;-139,6;-44,91;-139,6;-44,91;84,4;4,72;84,4;4,72;0;0;
25153;25,21;-37,39;25,21;-37,39;93,49;5,7;93,49;5,7;0;0;
25176;-11,18;0,73;-11,18;0,73;105,68;7,8;105,68;7,8;0;0;
25195;-56,92;-31,95;-56,92;-31,95;93,32;10,52;93,32;10,52;0;0;
25216;-69,93;-39,87;-69,93;-39,87;86,86;11,24;86,86;11,24;0;0;
25234;161,6;-49,1;161,6;-49,1;76,83;10,97;76,83;10,97;0;0;
25251;-125,62;-35,95;-125,62;-35,95;83,73;11,27;83,73;11,27;0;0;
25268;-125,62;-35,95;-125,62;-35,95;78,55;10,35;78,55;10,35;0;0;
25285;-20,91;-32,98;-20,91;-32,98;78,94;7,51;78,94;7,51;0;0;
25301;-19,53;-8,17;-19,53;-8,17;70,4;8,13;70,4;8,13;0;0;
25321;22,95;-41,34;22,95;-41,34;65,63;8,83;65,63;8,83;0;0;
25341;243,69;-41,6;243,69;-41,6;66,75;7,84;66,75;7,84;0;0;
25358;-122,81;-43,25;-122,81;-43,25;56,7;6,86;56,7;6,86;0;0;
25374;-32,62;-34,14;-32,62;-34,14;46,03;7,21;46,03;7,21;0;0;
25393;87,01;-38,56;87,01;-38,56;53,17;6,24;53,17;6,24;0;0;
25410;87,01;-38,56;87,01;-38,56;64,87;4,37;64,87;4,37;0;0;
25426;-24,69;-37,32;-24,69;-37,32;63,42;4,35;63,42;4,35;0;0;
25445;-13,77;-45,24;-13,77;-45,24;46,84;5,58;46,84;5,58;0;0;
25460;12,76;-40,59;12,76;-40,59;41,68;6,12;41,68;6,12;0;0;
25477;-20,67;-53,38;-20,67;-53,38;36,78;8,41;36,78;8,41;0;0;
25498;-48,93;-44,76;-48,93;-44,76;27,22;8,17;27,22;8,17;0;0;
25518;-62,48;-37,58;-62,48;-37,58;25,98;8,18;25,98;8,18;0;0;
25538;-104,04;-49,76;-104,04;-49,76;31,9;8,3;31,9;8,3;0;0;
25555;53,54;-31,69;53,54;-31,69;45,27;7,3;45,27;7,3;0;0;
25573;-75,8;-35,66;-75,8;-35,66;53,67;6,62;53,67;6,62;0;0;
25590;-75,8;-35,66;-75,8;-35,66;62,24;4,91;62,24;4,91;0;0;
25607;-54,17;-49,65;-54,17;-49,65;63,69;6,13;63,69;6,13;0;0;
25625;-31,33;-56,08;-31,33;-56,08;53,16;6,7;53,16;6,7;0;0;
25642;-33,52;-38,07;-33,52;-38,07;50;6,15;50;6,15;0;0;
25665;14,34;-34,99;14,34;-34,99;51,65;5,67;51,65;5,67;0;0;
25683;-66,83;-40,24;-66,83;-40,24;43,71;5,22;43,71;5,22;0;0;
25702;0,52;-34,24;0,52;-34,24;35,24;4,58;35,24;4,58;0;0;
25719;109,85;-33,03;109,85;-33,03;40,42;4,01;40,42;4,01;0;0;
25735;-6,89;-41,25;-6,89;-41,25;46,15;3,9;46,15;3,9;0;0;
25753;-17,18;-39;-17,18;-39;36,82;4,65;36,82;4,65;0;0;
25770;-17,18;-39;-17,18;-39;27,3;5,26;27,3;5,26;0;0;
25788;-23,4;-33,24;-23,4;-33,24;23,62;7,65;23,62;7,65;0;0;
25808;-15,29;-38,41;-15,29;-38,41;21,57;7,82;21,57;7,82;0;0;
25828;71;-31,9;71;-31,9;17,19;7,23;17,19;7,23;0;0;
25846;-29,44;-44,52;-29,44;-44,52;25,15;6,99;25,15;6,99;0;0;
25865;-21,57;-33,58;-21,57;-33,58;25,96;6,56;25,96;6,56;0;0;
25882;0,73;-36,85;0,73;-36,85;31,05;5,46;31,05;5,46;0;0;
25898;-17,9;-38,34;-17,9;-38,34;28,58;3,83;28,58;3,83;0;0;
25916;-21,47;-68,43;-21,47;-68,43;26,19;5,22;26,19;5,22;0;0;
25934;-9,79;-24,7;-9,79;-24,7;17,38;6,13;17,38;6,13;0;0;
25950;-9,79;-24,7;-9,79;-24,7;10,39;6,69;10,39;6,69;0;0;
25965;-28,67;-33,75;-28,67;-33,75;8,58;7,32;8,58;7,32;0;0;
25987;57,74;-46,41;57,74;-46,41;8,59;8,24;8,59;8,24;0;0;
26003;-27,03;-42,25;-27,03;-42,25;10,58;7,73;10,58;7,73;0;0;
26019;4,69;-34,02;4,69;-34,02;12,01;6,7;12,01;6,7;0;0;
26035;-48,15;-39,08;-48,15;-39,08;14,68;5,97;14,68;5,97;0;0;
26052;-22,97;-35,69;-22,97;-35,69;15,19;4,93;15,19;4,93;0;0;
26071;-22,97;-35,69;-22,97;-35,69;15,77;3,78;15,77;3,78;0;0;
26087;-16,18;-55,8;-16,18;-55,8;10,11;5,36;10,11;5,36;0;0;
26105;-22,37;-31,29;-22,37;-31,29;9,27;6,05;9,27;6,05;0;0;
26122;-22,16;-35,52;-22,16;-35,52;7,5;6,59;7,5;6,59;0;0;
26142;-26,54;-45,57;-26,54;-45,57;6,21;6,86;6,21;6,86;0;0;
26161;-45,29;-37,75;-45,29;-37,75;7,41;7,32;7,41;7,32;0;0;
26179;-36,72;-41,53;-36,72;-41,53;8,56;7,6;8,56;7,6;0;0;
26195;-19,77;-37,23;-19,77;-37,23;9,02;5,96;9,02;5,96;0;0;
26217;-24,23;-35,96;-24,23;-35,96;8,43;5,42;8,43;5,42;0;0;
26234;-30,89;-45,65;-30,89;-45,65;7,98;5,38;7,98;5,38;0;0;
26251;-22,16;-44,93;-22,16;-44,93;6,61;5,15;6,61;5,15;0;0;
26266;-22,16;-44,93;-22,16;-44,93;4,43;5,22;4,43;5,22;0;0;
26284;-23,39;-44,34;-23,39;-44,34;3,57;5,13;3,57;5,13;0;0;
26309;-23;-36,54;-23;-36,54;2,84;4,95;2,84;4,95;0;0;
26327;-22,17;-45,01;-22,17;-45,01;3,87;5,41;3,87;5,41;0;0;
26346;-20,72;-38,29;-20,72;-38,29;3,67;5,34;3,67;5,34;0;0;
26365;-23,54;-28,41;-23,54;-28,41;3,55;5,78;3,55;5,78;0;0;
26383;-26,08;-35,55;-26,08;-35,55;4,13;6,09;4,13;6,09;0;0;
26401;-19,45;-35,03;-19,45;-35,03;4,19;5,54;4,19;5,54;0;0;
26418;-25,39;-44,92;-25,39;-44,92;4,02;5,51;4,02;5,51;0;0;
26436;-21,36;-41,16;-21,36;-41,16;4,4;5,3;4,4;5,3;0;0;
26457;-14,22;-42,22;-14,22;-42,22;5,37;5,17;5,37;5,17;0;0;
26474;-21,45;-42,84;-21,45;-42,84;5,32;5,04;5,32;5,04;0;0;
26493;-33,79;-48,98;-33,79;-48,98;5,56;5,54;5,56;5,54;0;0;
26512;-27,36;-40,34;-27,36;-40,34;5,44;5,48;5,44;5,48;0;0;
26529;-27,36;-40,34;-27,36;-40,34;5,36;5,49;5,36;5,49;0;0;
26546;-26,66;-48,31;-26,66;-48,31;3,95;5,22;3,95;5,22;0;0;
26563;-27,33;-36,66;-27,33;-36,66;3,52;5,35;3,52;5,35;0;0;
26581;-28,35;-27,36;-28,35;-27,36;3,67;5,65;3,67;5,65;0;0;
26602;-33,24;-31,68;-33,24;-31,68;3,48;4,71;3,48;4,71;0;0;
26624;-23,68;-34,87;-23,68;-34,87;3,52;5,24;3,52;5,24;0;0;
26642;-25,26;-39,47;-25,26;-39,47;3,54;5,61;3,54;5,61;0;0;
26659;-26,09;-51,87;-26,09;-51,87;3,27;6,15;3,27;6,15;0;0;
26676;-25,93;-41,02;-25,93;-41,02;3,18;5,43;3,18;5,43;0;0;
26693;-26,76;-52,41;-26,76;-52,41;3,21;6,19;3,21;6,19;0;0;
26710;-26,76;-52,41;-26,76;-52,41;2,73;6,61;2,73;6,61;0;0;
26728;-27,24;-41,48;-27,24;-41,48;2,81;6,2;2,81;6,2;0;0;
26743;-19,12;-43,95;-19,12;-43,95;2,95;6,21;2,95;6,21;0;0;
26761;-29,17;-42,31;-29,17;-42,31;2,96;6,62;2,96;6,62;0;0;
26783;-18,65;-34,76;-18,65;-34,76;3,17;6,73;3,17;6,73;0;0;
26802;-29,92;-43,97;-29,92;-43,97;3,39;6,52;3,39;6,52;0;0;
26820;-24,7;-26,42;-24,7;-26,42;3,09;6,69;3,09;6,69;1;0;
26836;-10,11;-44,84;-10,11;-44,84;3,99;6,88;3,99;6,88;1;0;
26853;-31,17;-40,4;-31,17;-40,4;3,93;6,46;3,93;6,46;1;0;
26868;-31,17;-40,4;-31,17;-40,4;3,94;6,91;3,94;6,91;1;0;
26885;-17,92;-38,91;-17,92;-38,91;3,97;8,04;3,97;8,04;1;0;
26905;-23,54;-26,89;-23,54;-26,89;3,64;8,31;3,64;8,31;1;0;
26925;-23,01;-38,92;-23,01;-38,92;3,48;8,16;3,48;8,16;1;0;
26947;-30,59;-45,72;-30,59;-45,72;3,17;8,31;3,17;8,31;1;0;
26964;-25,74;-44,37;-25,74;-44,37;3,52;8,03;3,52;8,03;1;0;
26984;-22,9;-39,36;-22,9;-39,36;3,38;7,02;3,38;7,02;1;0;
27002;-28,1;-46,99;-28,1;-46,99;3,31;6,26;3,31;6,26;1;0;
27020;-24,36;-34,36;-24,36;-34,36;4,44;6,45;4,44;6,45;1;0;
27038;-24,67;-36,54;-24,67;-36,54;3,94;7,86;3,94;7,86;1;0;
27057;-22,18;-24,4;-22,18;-24,4;3,52;8,63;3,52;8,63;1;0;
27076;-24,86;-35,68;-24,86;-35,68;3,62;9,34;3,62;9,34;1;0;
27098;-20,86;-65,37;-20,86;-65,37;3,78;10,75;3,78;10,75;1;0;
27115;-29,18;-44,96;-29,18;-44,96;3,64;11,58;3,64;11,58;1;0;
27132;-25,75;-43,7;-25,75;-43,7;3,24;11,78;3,24;11,78;1;0;
27152;-22,36;-30,6;-22,36;-30,6;3,42;11,54;3,42;11,54;1;0;
27169;-22,36;-30,6;-22,36;-30,6;3,29;10,35;3,29;10,35;1;0;
27187;-23,45;-38;-23,45;-38;3,64;10,76;3,64;10,76;0;0;
27207;-22,93;-42,77;-22,93;-42,77;3,77;9,2;3,77;9,2;0;0;
27226;-18,84;-55,93;-18,84;-55,93;3,42;9,6;3,42;9,6;0;0;
27249;-26,61;-29,44;-26,61;-29,44;3,39;9,09;3,39;9,09;0;0;
27266;-23,02;-107,64;-23,02;-107,64;4,03;10,97;4,03;10,97;0;0;
27285;-27,69;-11,96;-27,69;-11,96;3,96;13,67;3,96;13,67;0;0;
27303;-26,46;-45,03;-26,46;-45,03;3,74;14,59;3,74;14,59;0;0;
27322;-30,46;-45,46;-30,46;-45,46;3,93;13,96;3,93;13,96;0;0;
27339;-21,73;-26,73;-21,73;-26,73;4,03;13,89;4,03;13,89;0;0;
27355;-16,54;-36,65;-16,54;-36,65;3,79;15,08;3,79;15,08;0;0;
27370;-16,54;-36,65;-16,54;-36,65;3,86;14,15;3,86;14,15;0;0;
27388;-19,02;-44,71;-19,02;-44,71;3,85;11,51;3,85;11,51;0;0;
27410;-16,16;-55;-16,16;-55;4,19;11,45;4,19;11,45;0;0;
27430;-19,08;-25,25;-19,08;-25,25;3,83;12,15;3,83;12,15;0;0;
27446;-23,51;-63,54;-23,51;-63,54;3,7;10,05;3,7;10,05;0;0;
27463;-27,74;-36,17;-27,74;-36,17;3,66;8,05;3,66;8,05;0;0;
27479;-19,57;-23,54;-19,57;-23,54;4;7,89;4;7,89;0;0;
27496;-29,87;-35,09;-29,87;-35,09;3,78;7,97;3,78;7,97;1;0;
27514;-27,02;-47,59;-27,02;-47,59;3,4;7,52;3,4;7,52;1;0;
27534;-24,9;-56,53;-24,9;-56,53;3,71;7,84;3,71;7,84;1;0;
27550;-24,9;-56,53;-24,9;-56,53;4,19;7,82;4,19;7,82;1;0;
27570;-22,44;-28,3;-22,44;-28,3;3,85;8,23;3,85;8,23;1;0;
27589;-28,36;-35,13;-28,36;-35,13;3,56;7,93;3,56;7,93;1;0;
27607;-26,56;-54,59;-26,56;-54,59;3,78;8,48;3,78;8,48;1;0;
27623;-21,84;-37,17;-21,84;-37,17;3,49;8,71;3,49;8,71;1;0;
27642;0;-31,43;0;-31,43;6,69;8,82;6,69;8,82;1;0;
27657;-23,05;-42,29;-23,05;-42,29;6,84;8,25;6,84;8,25;1;0;
27676;-23,07;-42,05;-23,07;-42,05;6,91;7,54;6,91;7,54;1;0;
27692;-33,04;-38,64;-33,04;-38,64;6,85;6,85;6,85;6,85;1;0;
27709;-33,04;-38,64;-33,04;-38,64;6,78;5,81;6,78;5,81;1;0;
27730;-27,74;-34,12;-27,74;-34,12;5,44;6,01;5,44;6,01;1;0;
27747;-26,13;-53,91;-26,13;-53,91;3,06;6,4;3,06;6,4;1;0;
27763;-22,3;-41,11;-22,3;-41,11;2,68;6,95;2,68;6,95;1;0;
27780;-24,49;-39,62;-24,49;-39,62;2,88;6,74;2,88;6,74;1;0;
27796;-24,49;-37,65;-24,49;-37,65;2,63;6,49;2,63;6,49;1;0;
27813;-21,23;-38,41;-21,23;-38,41;2,52;5,73;2,52;5,73;1;0;
27832;-31,83;-35,24;-31,83;-35,24;2,75;5,43;2,75;5,43;1;0;
27848;-31,83;-35,24;-31,83;-35,24;3,05;4,04;3,05;4,04;1;0;
27865;-19,55;-22,36;-19,55;-22,36;3,1;4,24;3,1;4,24;0;0;
27886;-29,17;-42,97;-29,17;-42,97;3,2;4,02;3,2;4,02;0;0;
27902;-21,52;-33,85;-21,52;-33,85;3,18;4,38;3,18;4,38;0;0;
27919;-25,69;-37,54;-25,69;-37,54;3,01;4,47;3,01;4,47;0;0;
27941;-16,65;-47,43;-16,65;-47,43;2,96;4,42;2,96;4,42;0;0;
27958;-29,11;-29,45;-29,11;-29,45;2,66;4,86;2,66;4,86;0;0;
27976;-29,03;-38,39;-29,03;-38,39;3,05;5,23;3,05;5,23;0;0;
27993;-27,22;-24,88;-27,22;-24,88;3,02;6,26;3,02;6,26;0;0;
28012;-26,13;-57,32;-26,13;-57,32;3,07;8,16;3,07;8,16;0;0;
28031;-26,13;-57,32;-26,13;-57,32;3,1;9,85;3,1;9,85;0;0;
28054;-21,46;-41,13;-21,46;-41,13;3,26;9,76;3,26;9,76;0;0;
28075;-27,18;-30,33;-27,18;-30,33;2,97;9,74;2,97;9,74;0;0;
28094;-30,19;-36,68;-30,19;-36,68;3,53;10,2;3,53;10,2;0;0;
28112;-18,25;-25,75;-18,25;-25,75;3,45;9,32;3,45;9,32;0;0;
28129;-18,25;-25,75;-18,25;-25,75;3,42;7,96;3,42;7,96;0;0;
28153;-24,35;-33,03;-24,35;-33,03;3,6;7,88;3,6;7,88;0;0;
28169;-24,35;-33,03;-24,35;-33,03;3,38;9,13;3,38;9,13;0;0;
28187;-22,01;-48,07;-22,01;-48,07;3,39;8,97;3,39;8,97;0;0;
28210;-19,98;-39,58;-19,98;-39,58;2,84;8,38;2,84;8,38;0;0;
28228;-25,51;-42,55;-25,51;-42,55;3,59;8,12;3,59;8,12;0;0;
28246;-20,54;-53,68;-20,54;-53,68;3,91;6,63;3,91;6,63;0;0;
28263;-28,36;-46,54;-28,36;-46,54;4,08;5,49;4,08;5,49;0;0;
28280;-29,35;-40,48;-29,35;-40,48;3,73;5,62;3,73;5,62;0;0;
28297;-24,53;-33,72;-24,53;-33,72;3,9;5,9;3,9;5,9;0;0;
28314;-30,3;-45,86;-30,3;-45,86;3,47;6,76;3,47;6,76;0;0;
28332;-24,11;-29,84;-24,11;-29,84;3,49;7,25;3,49;7,25;0;0;
28348;-24,11;-29,84;-24,11;-29,84;3,39;7,26;3,39;7,26;0;0;
28369;-30,45;-57,41;-30,45;-57,41;3,39;7,36;3,39;7,36;0;0;
28386;-30,5;-35,11;-30,5;-35,11;3,41;7,75;3,41;7,75;0;0;
28404;-26,24;-36,72;-26,24;-36,72;3,32;7,9;3,32;7,9;0;0;
28419;-24,5;-32,35;-24,5;-32,35;2,79;7,16;2,79;7,16;0;0;
28436;-28,37;-44,61;-28,37;-44,61;2,88;7,56;2,88;7,56;0;0;
28454;-16,57;-40,1;-16,57;-40,1;3,72;8,42;3,72;8,42;0;0;
28472;-16,57;-40,1;-16,57;-40,1;4,73;7,75;4,73;7,75;0;0;
28487;-16,57;-40,1;-16,57;-40,1;5,47;8,2;5,47;8,2;0;0;
28503;-26,58;-36,69;-26,58;-36,69;6,17;8,88;6,17;8,88;0;0;
28525;-19,32;-33,25;-19,32;-33,25;6,42;8;6,42;8;0;0;
28543;-14,61;-44,98;-14,61;-44,98;6,02;7,05;6,02;7,05;0;0;
28560;-30,94;-42,67;-30,94;-42,67;5,53;5,87;5,53;5,87;0;0;
28578;-17,76;-31,72;-17,76;-31,72;4,67;5,05;4,67;5,05;0;0;
28596;-23,55;-41;-23,55;-41;3,63;4,32;3,63;4,32;0;0;
28612;-20,84;-49,1;-20,84;-49,1;3,21;3,69;3,21;3,69;0;0;
28627;-20,84;-49,1;-20,84;-49,1;3,24;3,71;3,24;3,71;0;0;
28647;-26,05;-41,48;-26,05;-41,48;2,9;5,91;2,9;5,91;0;0;
28664;-17,15;-32,65;-17,15;-32,65;3,31;5,97;3,31;5,97;0;0;
28686;-25,49;-31,29;-25,49;-31,29;3,56;6,11;3,56;6,11;0;0;
28702;-22,31;-39,91;-22,31;-39,91;4,1;6,29;4,1;6,29;0;0;
28719;-26,33;-37,53;-26,33;-37,53;4,49;5,84;4,49;5,84;0;0;
28736;-15,72;-28,29;-15,72;-28,29;4,42;4,89;4,42;4,89;1;0;
28752;-27,69;-30,31;-27,69;-30,31;4,61;6,14;4,61;6,14;1;0;
28770;-27,69;-30,31;-27,69;-30,31;4,75;7,27;4,75;7,27;1;0;
28786;-23,06;-27,79;-23,06;-27,79;4,55;7,04;4,55;7,04;1;0;
28803;-24,39;-27,19;-24,39;-27,19;4,06;7,8;4,06;7,8;1;0;
28819;-20,27;-43,78;-20,27;-43,78;4,1;7,94;4,1;7,94;1;0;
28844;-20,65;-57,37;-20,65;-57,37;3,85;8,61;3,85;8,61;1;0;
28862;-29,74;-41,75;-29,74;-41,75;3,44;7,76;3,44;7,76;1;0;
28881;-22,75;-42,11;-22,75;-42,11;3,61;6,64;3,61;6,64;1;0;
28896;-17,65;-42,54;-17,65;-42,54;4,11;6,07;4,11;6,07;1;0;
28915;-28,88;-40,33;-28,88;-40,33;4,18;6,33;4,18;6,33;1;0;
28932;-15,17;-47,56;-15,17;-47,56;4,54;6,87;4,54;6,87;1;0;
28954;-24,9;-39,35;-24,9;-39,35;4,61;7,03;4,61;7,03;1;0;
28971;-24,9;-39,35;-24,9;-39,35;4,41;7,68;4,41;7,68;1;0;
28993;-23,32;-52,66;-23,32;-52,66;4,25;9,61;4,25;9,61;1;0;
29011;-20,66;-36,9;-20,66;-36,9;4,4;9,97;4,4;9,97;1;0;
29027;-20,66;-36,9;-20,66;-36,9;4,37;8,84;4,37;8,84;1;0;
29045;-26,2;-40,64;-26,2;-40,64;4,09;8,18;4,09;8,18;1;0;
29064;-20,11;-39,26;-20,11;-39,26;3,93;8,67;3,93;8,67;1;0;
29081;-19,56;-37,36;-19,56;-37,36;3,74;8,25;3,74;8,25;1;0;
29098;-19,38;-46,12;-19,38;-46,12;4;7,38;4;7,38;0;0;
29116;-21,31;-35,46;-21,31;-35,46;4,28;6,4;4,28;6,4;0;0;
29136;-17,67;-53,57;-17,67;-53,57;4,21;6,25;4,21;6,25;0;0;
29157;-18,73;-36,68;-18,73;-36,68;4,46;5,02;4,46;5,02;0;0;
29178;-23,68;-39,48;-23,68;-39,48;4,6;4,83;4,6;4,83;0;0;
29196;-19,61;-48,85;-19,61;-48,85;4,52;4,71;4,52;4,71;0;0;
29217;-28,43;-37,65;-28,43;-37,65;4,32;4,13;4,32;4,13;0;0;
29235;-28,09;-35,34;-28,09;-35,34;4,49;4,21;4,49;4,21;0;0;
29253;-30,48;-42,73;-30,48;-42,73;4,27;3,76;4,27;3,76;0;0;
29268;-30,48;-42,73;-30,48;-42,73;4,4;3,95;4,4;3,95;0;0;
29284;-26,83;-28,82;-26,83;-28,82;4,23;4,19;4,23;4,19;0;0;
29302;-24,23;-45,2;-24,23;-45,2;3,89;4,02;3,89;4,02;0;0;
29326;-21,11;-37,19;-21,11;-37,19;4,08;4,26;4,08;4,26;0;0;
29345;-22,55;-40,08;-22,55;-40,08;4;4,59;4;4,59;0;0;
29364;-22,23;-45,77;-22,23;-45,77;3,58;5,13;3,58;5,13;0;0;
29382;-25,58;-48,86;-25,58;-48,86;3,33;5,79;3,33;5,79;0;0;
29398;-29,58;-34,38;-29,58;-34,38;3,3;5,83;3,3;5,83;0;0;
29413;-21,01;-15,77;-21,01;-15,77;3,21;6,79;3,21;6,79;0;0;
29428;-21,01;-15,77;-21,01;-15,77;3,16;7,42;3,16;7,42;0;0;
29447;-15,89;-24,88;-15,89;-24,88;3,61;10,78;3,61;10,78;0;0;
29464;-29,36;-47,04;-29,36;-47,04;4,06;11,25;4,06;11,25;0;0;
29484;-31,29;-41,38;-31,29;-41,38;4,29;10,51;4,29;10,51;0;0;
29500;-13,17;-47,44;-13,17;-47,44;4,59;9,85;4,59;9,85;0;0;
29517;-29,73;-44,55;-29,73;-44,55;4,79;9,03;4,79;9,03;0;0;
29534;-17,2;-37,99;-17,2;-37,99;5,07;7,91;5,07;7,91;0;0;
29551;-17,2;-37,99;-17,2;-37,99;5,16;6,72;5,16;6,72;0;0;
29567;-22,77;-38,58;-22,77;-38,58;5,41;6,73;5,41;6,73;0;0;
29584;-21,82;-40,49;-21,82;-40,49;5,25;7,69;5,25;7,69;0;0;
29603;-29,41;-33,83;-29,41;-33,83;4,47;7,54;4,47;7,54;0;0;
29622;-18,1;-52;-18,1;-52;4,55;6,98;4,55;6,98;0;0;
29642;-19,12;-33,25;-19,12;-33,25;3,86;6,24;3,86;6,24;0;0;
29659;-36,61;-42,5;-36,61;-42,5;3,13;7,11;3,13;7,11;0;0;
29677;-7,89;-52,66;-7,89;-52,66;4,3;7,47;4,3;7,47;0;0;
29697;-22,33;-37,05;-22,33;-37,05;4,68;7,58;4,68;7,58;0;0;
29715;-28,64;-44,78;-28,64;-44,78;5,03;7,6;5,03;7,6;0;0;
29734;-25,4;-33,65;-25,4;-33,65;5,15;8,54;5,15;8,54;0;0;
29752;-19,73;-37,16;-19,73;-37,16;5,59;8,94;5,59;8,94;0;0;
29770;-19,73;-37,16;-19,73;-37,16;4,91;9,89;4,91;9,89;0;0;
29785;-26,09;-35,37;-26,09;-35,37;4,21;8,29;4,21;8,29;0;0;
29806;-14,32;-48,49;-14,32;-48,49;4,14;8,7;4,14;8,7;0;0;
29823;-25,84;-38,69;-25,84;-38,69;4,09;7,99;4,09;7,99;0;0;
29839;-20,52;-36,97;-20,52;-36,97;4,07;6,61;4,07;6,61;0;0;
29857;-23,26;-31,61;-23,26;-31,61;4,05;6,13;4,05;6,13;0;0;
29877;-24,04;-55,7;-24,04;-55,7;4,66;6,72;4,66;6,72;0;0;
29893;-21,45;-32,85;-21,45;-32,85;4,73;7,21;4,73;7,21;0;0;
29909;-21,45;-32,85;-21,45;-32,85;4,56;7,49;4,56;7,49;0;0;
29924;-28,43;-36,2;-28,43;-36,2;4,42;7,49;4,42;7,49;0;0;
29941;-29,11;-34,72;-29,11;-34,72;4,02;6,54;4,02;6,54;0;0;
29963;-17,46;-47,32;-17,46;-47,32;3,91;6,29;3,91;6,29;0;0;
29980;-32,43;-45,38;-32,43;-45,38;4,61;5,56;4,61;5,56;0;0;
29998;-17,21;-41,84;-17,21;-41,84;4,66;4,87;4,66;4,87;0;0;
30013;-22,67;-39,73;-22,67;-39,73;4,77;4,49;4,77;4,49;0;0;
30029;-22,67;-39,73;-22,67;-39,73;4,75;4,32;4,75;4,32;0;0;
30046;-17,86;-41,46;-17,86;-41,46;4,45;4,53;4,45;4,53;0;0;
30063;-20,35;-34,8;-20,35;-34,8;3,64;3,8;3,64;3,8;0;0;
30081;-27,43;-36,41;-27,43;-36,41;2,7;3,68;2,7;3,68;0;0;
30100;-17,32;-46,81;-17,32;-46,81;2,7;3,96;2,7;3,96;0;0;
30123;-25,06;-29,05;-25,06;-29,05;2,77;4,22;2,77;4,22;0;0;
30140;-15,29;-44,73;-15,29;-44,73;3,14;4,95;3,14;4,95;0;0;
30159;-20,41;-32,09;-20,41;-32,09;3,69;5,13;3,69;5,13;0;0;
30176;-21,49;-37,23;-21,49;-37,23;3,81;5,01;3,81;5,01;0;0;
30192;-20,53;-43;-20,53;-43;4;4,79;4;4,79;0;0;
30212;-4,6;-49,02;-4,6;-49,02;5,05;5,44;5,05;5,44;0;0;
30232;-79,88;-42,82;-79,88;-42,82;15,24;6,17;15,24;6,17;0;0;
30250;-79,88;-42,82;-79,88;-42,82;25,14;6,07;25,14;6,07;0;0;
30268;-40,64;-26,04;-40,64;-26,04;42,73;6,39;42,73;6,39;0;0;
30288;-28,19;-50,03;-28,19;-50,03;47,37;6,7;47,37;6,7;0;0;
30304;-17,65;-34,62;-17,65;-34,62;41;6,89;41;6,89;0;0;
30322;-20,78;-34,11;-20,78;-34,11;31,27;6,15;31,27;6,15;0;0;
30338;-21,5;-31,05;-21,5;-31,05;21,8;5,62;21,8;5,62;0;0;
30358;-28,62;-37,55;-28,62;-37,55;11,08;5,94;11,08;5,94;0;0;
30375;-21,58;-43,64;-21,58;-43,64;6,28;5,51;6,28;5,51;0;0;
30392;-20,28;-51,38;-20,28;-51,38;4,93;4,75;4,93;4,75;0;0;
30407;-20,28;-51,38;-20,28;-51,38;4,13;4,46;4,13;4,46;0;0;
30423;-14,81;-48,94;-14,81;-48,94;4,17;5,6;4,17;5,6;0;0;
30445;-22,49;-43,22;-22,49;-43,22;4,29;5,29;4,29;5,29;0;0;
30463;-27,4;-28,26;-27,4;-28,26;3,81;5,84;3,81;5,84;0;0;
30482;-23,51;-43,37;-23,51;-43,37;3,54;6,14;3,54;6,14;0;0;
30499;-22,52;-45,36;-22,52;-45,36;3,39;6,56;3,39;6,56;0;0;
30519;-23,71;-36,24;-23,71;-36,24;2,98;6,32;2,98;6,32;0;0;
30535;-24,75;-55,23;-24,75;-55,23;2,33;6,41;2,33;6,41;0;0;
30554;-28,81;-35,11;-28,81;-35,11;2,46;6,44;2,46;6,44;0;0;
30574;-23,43;-38,39;-23,43;-38,39;2,74;6,49;2,74;6,49;0;0;
30596;-24,17;-28,8;-24,17;-28,8;3,42;6,48;3,42;6,48;0;0;
30612;-29,35;-21,7;-29,35;-21,7;3,8;7,72;3,8;7,72;0;1;
30628;-29,35;-21,7;-29,35;-21,7;4,5;8,63;4,5;8,63;0;1;
30645;-27,34;-31,03;-27,34;-31,03;4,99;10,06;4,99;10,06;0;1;
30663;-15,27;-48,66;-15,27;-48,66;5,82;17,07;5,82;17,07;0;1;
30678;-9,15;-32,67;-9,15;-32,67;7,97;23,89;7,97;23,89;0;1;
30693;-9,15;-32,67;-9,15;-32,67;9,92;29,86;9,92;29,86;0;1;
30712;-26,94;-78,78;-26,94;-78,78;10,56;35,62;10,56;35,62;0;0;
30732;-17,62;-10,34;-17,62;-10,34;10,91;38,8;10,91;38,8;0;0;
30756;-25,76;32,54;-25,76;32,54;11,28;41,78;11,28;41,78;0;0;
30777;-38,66;-156,3;-38,66;-156,3;10,98;38,39;10,98;38,39;0;0;
30794;-12,45;36,46;-12,45;36,46;11,15;39,92;11,15;39,92;0;0;
30811;-22,08;-102,14;-22,08;-102,14;10,33;43,25;10,33;43,25;0;0;
30826;-22,08;-102,14;-22,08;-102,14;10,38;44,31;10,38;44,31;0;0;
30842;-30,74;-67,4;-30,74;-67,4;10,59;48,48;10,59;48,48;0;0;
30861;-26,05;6,18;-26,05;6,18;10,57;49,65;10,57;49,65;0;0;
30879;-3,4;-15,16;-3,4;-15,16;10,24;49,48;10,24;49,48;0;0;
30896;-26,04;-127,57;-26,04;-127,57;8,96;51,86;8,96;51,86;0;0;
30916;-25,72;97,96;-25,72;97,96;8,07;55,82;8,07;55,82;0;0;
30933;-21,07;-83,66;-21,07;-83,66;7,32;50,03;7,32;50,03;0;0;
30950;-21,07;-83,66;-21,07;-83,66;6,98;49,24;6,98;49,24;0;0;
30966;-23,63;-9,04;-23,63;-9,04;7,23;48,56;7,23;48,56;0;0;
30985;-31,25;-46,63;-31,25;-46,63;6,09;35,77;6,09;35,77;0;0;
31002;-21,58;-49,69;-21,58;-49,69;5,38;28,72;5,38;28,72;0;0;
31020;-30,49;-69,18;-30,49;-69,18;5,14;18,6;5,14;18,6;0;0;
31038;-29,19;-41,91;-29,19;-41,91;5;15,6;5;15,6;0;0;
31055;-26,9;-32,43;-26,9;-32,43;3,96;11,12;3,96;11,12;0;0;
31075;-35,26;-29,54;-35,26;-29,54;3,84;9,48;3,84;9,48;0;0;
31091;-27,68;-45,83;-27,68;-45,83;3,94;11,39;3,94;11,39;0;0;
31109;-27,68;-45,83;-27,68;-45,83;4,02;13,18;4,02;13,18;0;0;
31128;-29,41;-41,03;-29,41;-41,03;3,9;11,69;3,9;11,69;0;0;
31145;-24,01;-31,58;-24,01;-31,58;4,03;11,98;4,03;11,98;0;0;
31163;-22,98;-39,52;-22,98;-39,52;4,16;11,66;4,16;11,66;0;0;
31182;-18,6;-28,26;-18,6;-28,26;3,83;11,61;3,83;11,61;0;0;
31198;-19,56;-26,56;-19,56;-26,56;3,5;9,87;3,5;9,87;0;0;
31217;-21,5;-45,14;-21,5;-45,14;3,39;7,77;3,39;7,77;0;0;
31242;-23,25;-37,41;-23,25;-37,41;2,97;7,72;2,97;7,72;0;0;
31261;-20,04;-21,16;-20,04;-21,16;2,82;7,64;2,82;7,64;0;0;
31278;-20,04;-21,16;-20,04;-21,16;2,75;7,75;2,75;7,75;0;0;
31293;-27,13;-44,61;-27,13;-44,61;2,58;7,22;2,58;7,22;0;0;
31312;-25,38;-37,9;-25,38;-37,9;2,39;6,87;2,39;6,87;0;0;
31329;-25,38;-37,9;-25,38;-37,9;2,34;6,85;2,34;6,85;0;0;
31348;-23,51;-34,02;-23,51;-34,02;2,72;6,25;2,72;6,25;0;0;
31364;-16,17;-45,88;-16,17;-45,88;2,9;5,76;2,9;5,76;0;0;
31383;-22,29;-34,1;-22,29;-34,1;2,96;5,72;2,96;5,72;0;0;
31405;-24,8;-45,47;-24,8;-45,47;3,32;5,29;3,32;5,29;0;0;
31422;-26,51;-40,35;-26,51;-40,35;3,49;5,38;3,49;5,38;0;0;
31438;-21,8;-34,14;-21,8;-34,14;3,41;6,07;3,41;6,07;0;0;
31456;-22,02;-46,58;-22,02;-46,58;3,51;6,45;3,51;6,45;0;0;
31474;-16,17;-35,36;-16,17;-35,36;4,28;5,61;4,28;5,61;0;0;
31492;-31,67;-37,18;-31,67;-37,18;4,23;4,96;4,23;4,96;0;0;
31510;-31,67;-37,18;-31,67;-37,18;4,3;4,23;4,3;4,23;0;0;
31528;-25,41;-35,42;-25,41;-35,42;4,35;4,06;4,35;4,06;0;0;
31544;-18,58;-40,59;-18,58;-40,59;4,28;4,18;4,28;4,18;0;0;
31565;-24,84;-27,28;-24,84;-27,28;4,21;3,6;4,21;3,6;0;0;
31581;-22,65;-37,25;-22,65;-37,25;3,21;4,18;3,21;4,18;0;0;
31598;-20,11;-46,01;-20,11;-46,01;3,13;4,51;3,13;4,51;0;0;
31615;-27,59;-37,82;-27,59;-37,82;2,99;4,7;2,99;4,7;0;0;
31633;-26,49;-48,37;-26,49;-48,37;3,19;4,58;3,19;4,58;0;0;
31651;-26,49;-48,37;-26,49;-48,37;3,18;5,02;3,18;5,02;0;0;
31668;-28,5;-31,46;-28,5;-31,46;3,46;4,84;3,46;4,84;0;0;
31685;-21,83;-40;-21,83;-40;3,67;4,93;3,67;4,93;0;0;
31701;-28,14;-40,97;-28,14;-40,97;3,7;4,29;3,7;4,29;0;0;
31720;-19,8;-41,25;-19,8;-41,25;3,73;3,68;3,73;3,68;0;0;
31738;-17,55;-31,54;-17,55;-31,54;4,07;3,36;4,07;3,36;0;0;
31753;-25,03;-51,62;-25,03;-51,62;4,1;4,07;4,1;4,07;0;0;
31773;-28,8;-42,69;-28,8;-42,69;3,82;3,38;3,82;3,38;0;0;
31790;-28,8;-42,69;-28,8;-42,69;3,7;3,13;3,7;3,13;0;0;
31809;-28,2;-44,68;-28,2;-44,68;3,36;3,34;3,36;3,34;0;0;
31826;-20,35;-39,88;-20,35;-39,88;2,85;3,3;2,85;3,3;0;0;
31844;-29,29;-32,87;-29,29;-32,87;2,64;3,09;2,64;3,09;0;0;
31862;-20,27;-33,18;-20,27;-33,18;2,72;2,75;2,72;2,75;0;0;
31882;-31,06;-35,61;-31,06;-35,61;3,04;3,06;3,04;3,06;0;0;
31898;-21,7;-43,61;-21,7;-43,61;3,24;3,29;3,24;3,29;0;0;
31915;-20,02;-41,06;-20,02;-41,06;3,28;3,29;3,28;3,29;0;0;
31934;-21,35;-38,78;-21,35;-38,78;3,15;3,41;3,15;3,41;0;0;
31949;-21,35;-38,78;-21,35;-38,78;2,99;3,48;2,99;3,48;0;0;
31968;-18,67;-47,08;-18,67;-47,08;2,96;3,67;2,96;3,67;0;0;
31986;-23,74;-42,33;-23,74;-42,33;2,89;4,13;2,89;4,13;0;0;
32003;-24,96;-41,5;-24,96;-41,5;2,96;3,9;2,96;3,9;0;0;
32019;-25,31;-35,24;-25,31;-35,24;2,87;4,65;2,87;4,65;0;0;
32039;-27,49;-38,11;-27,49;-38,11;2,93;4,45;2,93;4,45;0;0;
32057;-25,13;-36,09;-25,13;-36,09;3,01;4,57;3,01;4,57;0;0;
32075;-19,61;-35,74;-19,61;-35,74;2,75;4,14;2,75;4,14;0;0;
32092;-32,07;-38,53;-32,07;-38,53;2,74;4,31;2,74;4,31;0;0;
32108;-32,07;-38,53;-32,07;-38,53;3,1;4,23;3,1;4,23;0;0;
32126;-15,84;-41,38;-15,84;-41,38;2,99;3,45;2,99;3,45;0;0;
32143;-25,01;-40,6;-25,01;-40,6;2,98;3,3;2,98;3,3;0;0;
32159;-26,93;-32,87;-26,93;-32,87;2,96;3,13;2,96;3,13;0;0;
32177;-20,33;-34,74;-20,33;-34,74;3,03;3,15;3,03;3,15;0;0;
32199;-23,4;-38,62;-23,4;-38,62;3,07;3,68;3,07;3,68;0;0;
32217;-25,28;-39,14;-25,28;-39,14;2,81;3,7;2,81;3,7;0;0;
32234;-33,92;-33,98;-33,92;-33,98;2,85;4,1;2,85;4,1;0;0;
32252;-21,41;-39,64;-21,41;-39,64;3,36;4,36;3,36;4,36;0;0;
32268;-21,41;-39,64;-21,41;-39,64;3,67;4,43;3,67;4,43;0;0;
32287;-24,7;-39,61;-24,7;-39,61;3,42;4,04;3,42;4,04;0;0;
32304;-24,35;-46,6;-24,35;-46,6;3,24;3,81;3,24;3,81;0;0;
32321;-32,49;-43,69;-32,49;-43,69;3,37;3,37;3,37;3,37;0;0;
32337;-18,54;-31,95;-18,54;-31,95;3,23;3,38;3,23;3,38;0;0;
32356;-26,2;-42,21;-26,2;-42,21;2,95;3,64;2,95;3,64;0;0;
32373;-22,37;-36,6;-22,37;-36,6;2,64;3,6;2,64;3,6;0;0;
32390;-22,37;-36,6;-22,37;-36,6;2,67;3,64;2,67;3,64;0;0;
32407;-20,81;-41,93;-20,81;-41,93;2,62;3,66;2,62;3,66;0;0;
32423;-25,01;-40,37;-25,01;-40,37;2,56;3,67;2,56;3,67;0;0;
32441;-31,34;-36,32;-31,34;-36,32;2,17;3,11;2,17;3,11;0;0;
32457;-26,59;-35,36;-26,59;-35,36;2,29;4,08;2,29;4,08;0;0;
32474;-19,02;-44,91;-19,02;-44,91;2,58;4,92;2,58;4,92;0;0;
32490;-19,02;-44,91;-19,02;-44,91;2,81;5,51;2,81;5,51;0;0;
32509;-20,76;-36,23;-20,76;-36,23;3,06;5,58;3,06;5,58;1;0;
32525;-22,26;-34,67;-22,26;-34,67;3,17;5,57;3,17;5,57;1;0;
32541;-19,66;-43,89;-19,66;-43,89;2,94;5,84;2,94;5,84;1;0;
32558;-24,29;-43,71;-24,29;-43,71;2,81;5,42;2,81;5,42;1;0;
32574;-22,05;-28,08;-22,05;-28,08;2,74;4,62;2,74;4,62;1;0;
32593;-24;-40,23;-24;-40,23;2,44;4,3;2,44;4,3;1;0;
32609;-24;-40,23;-24;-40,23;2,3;4,63;2,3;4,63;1;0;
32625;48,93;-48,31;48,93;-48,31;28,41;4,77;28,41;4,77;1;0;
32643;29,3;-33,09;29,3;-33,09;43,38;5,71;43,38;5,71;1;0;
32664;-84,29;-39,79;-84,29;-39,79;65,55;6,02;65,55;6,02;1;0;
32683;-128,33;-41,05;-128,33;-41,05;77,98;5,97;77,98;5,97;0;0;
32701;-52,19;-37,78;-52,19;-37,78;94,73;5,92;94,73;5,92;0;0;
32720;-41,74;-31,61;-41,74;-31,61;88,64;6,92;88,64;6,92;0;0;
32737;117,72;-39,47;117,72;-39,47;94,1;6,39;94,1;6,39;0;0;
32759;-92,48;-35,63;-92,48;-35,63;81,26;5,72;81,26;5,72;0;0;
32777;65,47;-45,72;65,47;-45,72;80,6;5,9;80,6;5,9;0;0;
32796;-41,04;-30,56;-41,04;-30,56;71,68;5,49;71,68;5,49;0;0;
32820;-10,18;-32,93;-10,18;-32,93;68,68;4,14;68,68;4,14;0;0;
32839;14,45;-40,15;14,45;-40,15;69,55;4,42;69,55;4,42;0;0;
32858;-45,37;-64,19;-45,37;-64,19;77,77;5,6;77,77;5,6;0;0;
32876;-128,11;-30,4;-128,11;-30,4;77,35;6,32;77,35;6,32;0;0;
32893;-126,1;-36,82;-126,1;-36,82;77,69;6,15;77,69;6,15;0;0;
32910;-126,1;-36,82;-126,1;-36,82;81,91;6,08;81,91;6,08;0;0;
32928;-166,31;-46,02;-166,31;-46,02;115,95;6,14;115,95;6,14;0;0;
32946;2,8;-33,32;2,8;-33,32;107,13;5,77;107,13;5,77;0;0;
32965;433,43;-41,35;433,43;-41,35;115,02;4,73;115,02;4,73;0;0;
32987;3,04;-25,71;3,04;-25,71;123,7;4,2;123,7;4,2;0;0;
33006;34,83;-36,25;34,83;-36,25;122,39;5,23;122,39;5,23;0;0;
33021;39,01;-35,82;39,01;-35,82;108,92;6,07;108,92;6,07;0;0;
33038;113,23;-45,38;113,23;-45,38;91,48;5,87;91,48;5,87;0;0;
33054;-106,45;-39,69;-106,45;-39,69;100,14;6,55;100,14;6,55;0;0;
33071;-128,65;-45,28;-128,65;-45,28;82,04;6,59;82,04;6,59;0;0;
33087;-128,65;-45,28;-128,65;-45,28;84,47;5,49;84,47;5,49;0;0;
33105;36,87;-22,92;36,87;-22,92;81,03;5,93;81,03;5,93;0;0;
33122;-215,56;-45,74;-215,56;-45,74;81,69;5,95;81,69;5,95;0;0;
33143;-136,48;-35,68;-136,48;-35,68;75,66;6,1;75,66;6,1;0;0;
33159;-190,27;-38,51;-190,27;-38,51;69,77;5,76;69,77;5,76;0;0;
33177;8,03;-36,94;8,03;-36,94;62,54;5,95;62,54;5,95;0;0;
33193;-32,12;-42,98;-32,12;-42,98;53,05;6,31;53,05;6,31;0;0;
33211;-42,7;-38,4;-42,7;-38,4;46,76;5,44;46,76;5,44;0;0;
33226;-42,7;-38,4;-42,7;-38,4;42,1;6,33;42,1;6,33;0;0;
33243;-40,5;-49,65;-40,5;-49,65;36,46;6,76;36,46;6,76;0;0;
33260;-165,39;-31,84;-165,39;-31,84;26,56;7,19;26,56;7,19;0;0;
33280;-56,7;-41,12;-56,7;-41,12;41;6,57;41;6,57;0;0;
33299;-24,86;-26,57;-24,86;-26,57;40,46;6,96;40,46;6,96;0;0;
33317;-24,69;-53,51;-24,69;-53,51;36,1;6,45;36,1;6,45;0;0;
33335;-16,03;-31,43;-16,03;-31,43;33,14;6,37;33,14;6,37;0;0;
33349;-16,03;-31,43;-16,03;-31,43;29,04;5,96;29,04;5,96;0;0;
33366;-25,3;-46,59;-25,3;-46,59;13,17;5,49;13,17;5,49;0;0;
33383;-15,65;-35,46;-15,65;-35,46;5,98;6,09;5,98;6,09;0;0;
33401;-29,99;-42,43;-29,99;-42,43;5,66;5,74;5,66;5,74;0;0;
33418;-19,87;-34,72;-19,87;-34,72;7,03;4,9;7,03;4,9;0;0;
33435;-34,33;-36,07;-34,33;-36,07;7,22;4,73;7,22;4,73;0;0;
33456;-63,6;-38,93;-63,6;-38,93;13,3;5,51;13,3;5,51;0;0;
33475;-3,36;-36,24;-3,36;-36,24;14,73;5,22;14,73;5,22;0;0;
33493;-10,66;-40,4;-10,66;-40,4;17,16;5,1;17,16;5,1;0;0;
33511;-10,66;-40,4;-10,66;-40,4;19,11;4,9;19,11;4,9;0;0;
33527;-14,22;-30,71;-14,22;-30,71;20,33;4,78;20,33;4,78;0;0;
33543;-19,33;-37,29;-19,33;-37,29;18,02;4,25;18,02;4,25;0;0;
33559;-24,92;-37,01;-24,92;-37,01;13,28;3,83;13,28;3,83;0;0;
33577;-22,18;-48,93;-22,18;-48,93;10,98;4,26;10,98;4,26;0;0;
33596;-32,57;-40,09;-32,57;-40,09;8,31;4,6;8,31;4,6;0;0;
33618;-23,24;-47,73;-23,24;-47,73;5,15;4,98;5,15;4,98;0;0;
33635;-18,95;-25,07;-18,95;-25,07;5,27;5,82;5,27;5,82;0;0;
33652;-18,64;-41,34;-18,64;-41,34;4,68;6,69;4,68;6,69;0;0;
33671;-18,64;-41,34;-18,64;-41,34;4,05;7,58;4,05;7,58;0;0;
33687;-19,13;-37,31;-19,13;-37,31;4,24;7,11;4,24;7,11;0;0;
33703;-24,48;-48,23;-24,48;-48,23;3,98;7,09;3,98;7,09;0;0;
33721;-21,66;-34,25;-21,66;-34,25;3,8;6,5;3,8;6,5;0;0;
33739;-23,16;-46,74;-23,16;-46,74;3,27;5,56;3,27;5,56;0;0;
33756;-23,96;-39,99;-23,96;-39,99;3,51;4,73;3,51;4,73;0;0;
33776;-33,06;-43,4;-33,06;-43,4;3,52;4,5;3,52;4,5;0;0;
33792;-18,19;-42,46;-18,19;-42,46;3,92;4,07;3,92;4,07;0;0;
33807;-18,19;-42,46;-18,19;-42,46;4,72;3,76;4,72;3,76;0;0;
33823;-17,9;-37,61;-17,9;-37,61;4,93;4,24;4,93;4,24;0;0;
33839;-35,16;-36,94;-35,16;-36,94;5,41;4,58;5,41;4,58;0;0;
33857;-20,53;-49,19;-20,53;-49,19;5,12;4,91;5,12;4,91;0;0;
33875;-20,72;-48,19;-20,72;-48,19;4,3;4,84;4,3;4,84;0;0;
33891;-27,22;-44,8;-27,22;-44,8;3,51;5,4;3,51;5,4;0;0;
33908;-27,22;-44,8;-27,22;-44,8;3,07;5,79;3,07;5,79;0;0;
33927;-26,81;-37,67;-26,81;-37,67;3,09;4,95;3,09;4,95;0;0;
33944;-20,36;-44,93;-20,36;-44,93;2,62;4,1;2,62;4,1;0;0;
33961;-28,04;-31,67;-28,04;-31,67;2,58;4,37;2,58;4,37;0;0;
33979;-26,98;-41,35;-26,98;-41,35;2,5;4,19;2,5;4,19;0;0;
33998;-23,87;-41,61;-23,87;-41,61;2,41;4,24;2,41;4,24;0;0;
34014;-23,31;-46,16;-23,31;-46,16;2,49;4,28;2,49;4,28;0;0;
34030;-23,31;-46,16;-23,31;-46,16;2,58;4,51;2,58;4,51;0;0;
34045;-23,13;-39,02;-23,13;-39,02;2,41;5,11;2,41;5,11;0;0;
34061;-24,4;-40,23;-24,4;-40,23;2,25;4,92;2,25;4,92;0;0;
34085;-28,1;-41,89;-28,1;-41,89;2,65;4,79;2,65;4,79;0;0;
34103;-22;-26,44;-22;-26,44;2,44;4,4;2,44;4,4;0;0;
34120;-21,08;-35,98;-21,08;-35,98;2,36;4,61;2,36;4,61;0;0;
34137;-25,12;-46,04;-25,12;-46,04;2,68;4,72;2,68;4,72;0;0;
34152;-23,18;-33,99;-23,18;-33,99;3,16;4,49;3,16;4,49;0;0;
34169;-23,18;-33,99;-23,18;-33,99;3,31;4,38;3,31;4,38;0;0;
34188;-22,29;-39,49;-22,29;-39,49;3,23;4,66;3,23;4,66;0;0;
34206;-20,09;-45,22;-20,09;-45,22;3,61;4,54;3,61;4,54;0;0;
34223;-28,84;-32,2;-28,84;-32,2;3,66;4,92;3,66;4,92;0;0;
34244;-19,84;-41,28;-19,84;-41,28;3,58;4,77;3,58;4,77;0;0;
34261;-28,96;-38,02;-28,96;-38,02;3,68;4,57;3,68;4,57;0;0;
34287;-30,63;-43,94;-30,63;-43,94;3,83;4,61;3,83;4,61;0;0;
34304;-21,03;-33,32;-21,03;-33,32;3,88;4,62;3,88;4,62;0;0;
34321;-35,25;-37,3;-35,25;-37,3;4,03;4,41;4,03;4,41;0;0;
34339;-27,14;-38,45;-27,14;-38,45;4,03;5,01;4,03;5,01;0;0;
34355;-23,75;-39,67;-23,75;-39,67;3,4;5,08;3,4;5,08;0;0;
34372;-25,35;-39,9;-25,35;-39,9;3,15;5;3,15;5;0;0;
34391;-27,96;-35,87;-27,96;-35,87;3,02;5,52;3,02;5,52;0;0;
34415;-20,38;-42,08;-20,38;-42,08;3,35;5,88;3,35;5,88;0;1;
34432;-24,29;-41,79;-24,29;-41,79;3,14;5,95;3,14;5,95;0;1;
34451;-32,78;-62,83;-32,78;-62,83;2,79;6,77;2,79;6,77;0;1;
34469;-32,78;-62,83;-32,78;-62,83;2,89;8,15;2,89;8,15;0;1;
34485;-24,98;-17,94;-24,98;-17,94;3,05;10,1;3,05;10,1;0;1;
34501;-27,85;-75,02;-27,85;-75,02;3,29;12,04;3,29;12,04;0;1;
34519;-29,12;-78,29;-29,12;-78,29;3,52;15,64;3,52;15,64;0;1;
34538;-10,95;31,84;-10,95;31,84;4,84;21,66;4,84;21,66;0;1;
34554;-8,34;-123,18;-8,34;-123,18;5,59;27,45;5,59;27,45;0;1;
34575;-47,01;-143,07;-47,01;-143,07;6,91;33,93;6,91;33,93;0;1;
34593;-23,67;-129,86;-23,67;-129,86;8,64;37,2;8,64;37,2;0;0;
34613;-18,35;11,86;-18,35;11,86;9,17;42,6;9,17;42,6;0;0;
34632;-9,44;-80,24;-9,44;-80,24;9,85;46,42;9,85;46,42;0;0;
34650;-9,44;-80,24;-9,44;-80,24;9,68;45,73;9,68;45,73;0;0;
34667;-42,36;-62;-42,36;-62;9,86;47,93;9,86;47,93;0;0;
34684;-13,52;30,15;-13,52;30,15;8,72;47,96;8,72;47,96;0;0;
34700;-48,23;-66,99;-48,23;-66,99;8,55;44,37;8,55;44,37;0;0;
34718;-25,46;-5,85;-25,46;-5,85;8,19;45,8;8,19;45,8;0;0;
34740;-22,82;3,04;-22,82;3,04;7,88;42,99;7,88;42,99;0;0;
34759;-19,81;-23,15;-19,81;-23,15;7,48;41,28;7,48;41,28;0;0;
34775;-34,49;-54,95;-34,49;-54,95;7,21;38,48;7,21;38,48;0;0;
34792;-29,78;-87,02;-29,78;-87,02;6,67;35,71;6,67;35,71;0;0;
34808;-29,78;-87,02;-29,78;-87,02;7,02;31,82;7,02;31,82;0;0;
34827;-6,11;-19,13;-6,11;-19,13;6,77;31,69;6,77;31,69;0;0;
34846;-24,43;0,44;-24,43;0,44;6,53;29,82;6,53;29,82;0;0;
34862;-26,72;-58,84;-26,72;-58,84;6,7;25,44;6,7;25,44;0;0;
34880;-16,66;-86,64;-16,66;-86,64;6,29;24,78;6,29;24,78;0;0;
34902;-25,75;17,99;-25,75;17,99;5,53;22,99;5,53;22,99;0;0;
34919;-24,05;-27,55;-24,05;-27,55;5,43;23,55;5,43;23,55;0;0;
34935;-24,19;2,43;-24,19;2,43;4,89;21,76;4,89;21,76;0;0;
34951;-25,94;-14,4;-25,94;-14,4;4,62;21,64;4,62;21,64;0;0;
34968;-25,94;-14,4;-25,94;-14,4;3,77;22,26;3,77;22,26;0;0;
34984;-23,31;-58,83;-23,31;-58,83;3,74;20,09;3,74;20,09;0;0;
35004;-27;-40,49;-27;-40,49;3,46;16,14;3,46;16,14;0;0;
35019;-24,77;-49,86;-24,77;-49,86;2,82;16,23;2,82;16,23;0;0;
35037;-11,71;-26,94;-11,71;-26,94;3,07;14,91;3,07;14,91;0;0;
35060;-25,73;-48,82;-25,73;-48,82;3,23;12,68;3,23;12,68;0;0;
35077;-28,96;-31,9;-28,96;-31,9;3,18;12,22;3,18;12,22;0;0;
35098;-25,21;-54,89;-25,21;-54,89;3,1;11,58;3,1;11,58;0;0;
35115;-30,61;-35,71;-30,61;-35,71;3,1;10,58;3,1;10,58;0;0;
35130;-30,61;-35,71;-30,61;-35,71;3,09;9,35;3,09;9,35;0;0;
35147;-30,08;-49,55;-30,08;-49,55;3,38;8,47;3,38;8,47;1;0;
35164;-14,82;-53,73;-14,82;-53,73;3,5;7,89;3,5;7,89;1;0;
35181;-22,32;-52,09;-22,32;-52,09;3,83;7,68;3,83;7,68;1;0;
35199;-29,3;-39,37;-29,3;-39,37;4,2;7,77;4,2;7,77;1;0;
35222;-22,06;-40,09;-22,06;-40,09;4,26;7;4,26;7;1;0;
35239;-7,76;-43,91;-7,76;-43,91;3,99;6,22;3,99;6,22;1;0;
35257;-27,82;-32,02;-27,82;-32,02;4,54;5,86;4,54;5,86;1;0;
35274;-25,25;-45,28;-25,25;-45,28;4,08;5,58;4,08;5,58;1;0;
35291;-22,27;-30,97;-22,27;-30,97;3,89;5,28;3,89;5,28;1;0;
35308;-22,27;-30,97;-22,27;-30,97;3,31;5,21;3,31;5,21;1;0;
35325;-17,5;-39,33;-17,5;-39,33;3,35;5,24;3,35;5,24;1;0;
35342;-21,67;-29,12;-21,67;-29,12;3,29;5,45;3,29;5,45;1;0;
35358;-25,83;-36,13;-25,83;-36,13;3,35;4,86;3,35;4,86;1;0;
35380;-18,23;-41,96;-18,23;-41,96;3,41;5,16;3,41;5,16;1;0;
35399;-22,52;-40,43;-22,52;-40,43;3,42;5,02;3,42;5,02;1;0;
35416;-27,84;-44,77;-27,84;-44,77;3,77;4,21;3,77;4,21;1;0;
35432;-25,27;-29,91;-25,27;-29,91;3,69;4,39;3,69;4,39;1;0;
35449;-25,27;-29,91;-25,27;-29,91;3,08;4,08;3,08;4,08;1;0;
35467;-20,28;-43,52;-20,28;-43,52;3,02;4,15;3,02;4,15;1;0;
35483;-16,67;-41,7;-16,67;-41,7;3,12;4,25;3,12;4,25;1;0;
35500;-29,04;-48,52;-29,04;-48,52;3,15;4,57;3,15;4,57;0;0;
35517;-26,07;-27,7;-26,07;-27,7;3,01;5,44;3,01;5,44;0;0;
35537;-19,38;-46,62;-19,38;-46,62;3,3;5,94;3,3;5,94;0;0;
35553;-23,98;-32,21;-23,98;-32,21;3,49;6,44;3,49;6,44;0;0;
35572;-27,02;-40,8;-27,02;-40,8;3,47;6,03;3,47;6,03;0;0;
35593;-20,48;-39,48;-20,48;-39,48;3,22;6,34;3,22;6,34;0;0;
35610;-20,48;-39,48;-20,48;-39,48;3,06;6,43;3,06;6,43;0;0;
35625;-23,6;-25,97;-23,6;-25,97;2,96;7,34;2,96;7,34;0;0;
35642;-23,24;-31,23;-23,24;-31,23;2,7;7,21;2,7;7,21;0;0;
35658;-26,3;-33,05;-26,3;-33,05;2,78;8,22;2,78;8,22;0;0;
35675;-24,84;-34,35;-24,84;-34,35;2,83;8,25;2,83;8,25;0;0;
35700;-20,46;-12,06;-20,46;-12,06;2,92;8,83;2,92;8,83;0;0;
35720;-24,76;-42,55;-24,76;-42,55;3,04;8,87;3,04;8,87;0;0;
35737;-18,54;-51,24;-18,54;-51,24;3,23;8,36;3,23;8,36;0;0;
35753;-22,2;-38;-22,2;-38;3,36;8,45;3,36;8,45;0;0;
35770;-22,2;-38;-22,2;-38;3,56;8,68;3,56;8,68;0;0;
35788;-19,86;-32,09;-19,86;-32,09;3,65;8,95;3,65;8,95;0;0;
35807;-24,65;-37,93;-24,65;-37,93;4,02;8,2;4,02;8,2;0;0;
35834;-33,12;-37,78;-33,12;-37,78;6,19;7,16;6,19;7,16;0;0;
35857;-32,29;-33,42;-32,29;-33,42;7,17;5,54;7,17;5,54;0;0;
35874;-19,95;-37,51;-19,95;-37,51;7,22;4,77;7,22;4,77;0;0;
35892;-131,14;-31,02;-131,14;-31,02;18,39;5,81;18,39;5,81;0;0;
35912;-204,47;-27,29;-204,47;-27,29;29,94;6,18;29,94;6,18;0;0;
35926;-204,47;-27,29;-204,47;-27,29;40,33;7,26;40,33;7,26;0;0;
35943;-135,83;-38,06;-135,83;-38,06;50,3;8,66;50,3;8,66;0;0;
35957;-20,74;-41,16;-20,74;-41,16;75,59;8,88;75,59;8,88;0;0;
35975;-62,6;-38,32;-62,6;-38,32;92,7;8,08;92,7;8,08;0;0;
35992;22,9;-33,85;22,9;-33,85;84,1;6,7;84,1;6,7;0;0;
36012;66,58;-35,5;66,58;-35,5;77,59;5,62;77,59;5,62;0;0;
36027;66,58;-35,5;66,58;-35,5;69,85;3,97;69,85;3,97;0;0;
36044;-38,54;-34,34;-38,54;-34,34;57,5;4,2;57,5;4,2;0;0;
36060;-96,21;-45,14;-96,21;-45,14;43,65;4,83;43,65;4,83;0;0;
36077;-85,48;-35,51;-85,48;-35,51;58,48;5,5;58,48;5,5;0;0;
36095;-59,17;-38,83;-59,17;-38,83;61,07;5,33;61,07;5,33;0;0;
36111;36,46;-27,77;36,46;-27,77;63,06;5,41;63,06;5,41;0;0;
36129;36,46;-27,77;36,46;-27,77;65,21;5,35;65,21;5,35;0;0;
36147;-31,08;-45,73;-31,08;-45,73;63,48;4,58;63,48;4,58;0;0;
36168;-30,1;-36,85;-30,1;-36,85;36;5,33;36;5,33;0;0;
36185;-15,65;-37,68;-15,65;-37,68;21,5;7,12;21,5;7,12;0;0;
36202;-9,24;-39,35;-9,24;-39,35;18,24;7,08;18,24;7,08;0;0;
36221;-23,29;-40,8;-23,29;-40,8;10,93;6,58;10,93;6,58;0;0;
36239;-17,73;-47,19;-17,73;-47,19;4,88;6,41;4,88;6,41;0;0;
36257;-15,12;-40,6;-15,12;-40,6;5,04;6,48;5,04;6,48;0;0;
36272;-17,91;-15,05;-17,91;-15,05;4,71;5,37;4,71;5,37;0;0;
36288;-17,91;-15,05;-17,91;-15,05;4,56;5,75;4,56;5,75;0;0;
36305;-19,14;-18,14;-19,14;-18,14;4,11;7,72;4,11;7,72;0;0;
36329;-82,65;15,1;-82,65;15,1;12,85;10,76;12,85;10,76;0;1;
36345;-6,88;5,29;-6,88;5,29;15,73;18,75;15,73;18,75;0;1;
36361;0,08;71,73;0,08;71,73;17,42;26,07;17,42;26,07;0;1;
36379;-23,71;-94,48;-23,71;-94,48;17,93;31,16;17,93;31,16;0;1;
36397;7,3;54,23;7,3;54,23;20,89;41,07;20,89;41,07;0;0;
36414;-47,86;-132,07;-47,86;-132,07;20,44;47,39;20,44;47,39;0;0;
36435;-35,29;-126,97;-35,29;-126,97;13,33;47,38;13,33;47,38;0;0;
36452;-42,72;-49,42;-42,72;-49,42;13,72;46,25;13,72;46,25;0;0;
36468;-42,72;-49,42;-42,72;-49,42;14,19;43,87;14,19;43,87;0;0;
36490;-21,52;-51,5;-21,52;-51,5;13,01;42,08;13,01;42,08;0;0;
36511;-9,38;-45,35;-9,38;-45,35;10,7;36,78;10,7;36,78;0;0;
36529;-19,9;-87,25;-19,9;-87,25;9,55;39,14;9,55;39,14;0;0;
36546;-22,6;82,4;-22,6;82,4;8,91;43,22;8,91;43,22;0;0;
36561;-32,04;-46,79;-32,04;-46,79;7,73;42,37;7,73;42,37;0;0;
36578;-37,44;-71,27;-37,44;-71,27;7,17;43,41;7,17;43,41;0;0;
36596;-26,29;11,24;-26,29;11,24;7,18;40,5;7,18;40,5;0;0;
36614;-21,08;31,28;-21,08;31,28;6,1;43,01;6,1;43,01;0;0;
36629;-21,08;31,28;-21,08;31,28;6,11;46,04;6,11;46,04;0;0;
36650;-26,4;-52,23;-26,4;-52,23;5,27;35,84;5,27;35,84;0;0;
36665;-32,49;-24,21;-32,49;-24,21;5,04;35,31;5,04;35,31;0;0;
36681;-19,19;25,01;-19,19;25,01;4,78;32,24;4,78;32,24;0;0;
36697;-14,42;-31,75;-14,42;-31,75;4,6;31,33;4,6;31,33;0;0;
36714;-31,58;-48,83;-31,58;-48,83;4,8;23,81;4,8;23,81;0;0;
36730;-31,58;-48,83;-31,58;-48,83;5,22;16,27;5,22;16,27;0;0;
36746;-23,77;-6,06;-23,77;-6,06;5,13;15,27;5,13;15,27;0;0;
36762;-26,77;-2,53;-26,77;-2,53;5,1;18,18;5,1;18,18;0;0;
36780;-20,03;-19,81;-20,03;-19,81;5,86;18,43;5,86;18,43;0;0;
36798;-24,7;-101,51;-24,7;-101,51;5,61;21,06;5,61;21,06;0;0;
36819;-32,11;-33,13;-32,11;-33,13;5,72;23,67;5,72;23,67;0;0;
36836;-21,53;-60,34;-21,53;-60,34;5,49;25,37;5,49;25,37;0;0;
36855;-20,35;-36,02;-20,35;-36,02;4,88;23,56;4,88;23,56;0;0;
36872;-24,37;-92,03;-24,37;-92,03;5,21;23,18;5,21;23,18;0;0;
36888;-24,37;-92,03;-24,37;-92,03;5,34;22,7;5,34;22,7;0;0;
36903;-28,21;-38,24;-28,21;-38,24;5,15;21,68;5,15;21,68;0;0;
36920;-28;-23,97;-28;-23,97;5,21;24,6;5,21;24,6;0;0;
36937;-19,65;-88,95;-19,65;-88,95;5,22;27,01;5,22;27,01;0;0;
36954;-26,21;-29,23;-26,21;-29,23;5,48;28,37;5,48;28,37;0;0;
36976;-20,72;-17,3;-20,72;-17,3;5,06;27,2;5,06;27,2;0;0;
36993;-20,88;25,76;-20,88;25,76;4,42;26,42;4,42;26,42;0;0;
37009;-20,88;25,76;-20,88;25,76;4,37;24,78;4,37;24,78;0;0;
37025;-19,86;-68,77;-19,86;-68,77;4,74;21,12;4,74;21,12;0;0;
37041;-17,64;-60,5;-17,64;-60,5;4,73;19,44;4,73;19,44;0;0;
37057;-17,64;-60,5;-17,64;-60,5;4,3;19,47;4,3;19,47;0;0;
37074;-20,92;-33,31;-20,92;-33,31;4,1;18,46;4,1;18,46;0;0;
37093;-29,32;-30,86;-29,32;-30,86;4,13;15,77;4,13;15,77;0;0;
37112;-15,35;-38,74;-15,35;-38,74;4,5;12,65;4,5;12,65;0;0;
37134;-25,22;-34,09;-25,22;-34,09;4,35;10,85;4,35;10,85;0;0;
37149;-25,22;-34,09;-25,22;-34,09;4,42;9,62;4,42;9,62;0;0;
37167;-20,97;-26,78;-20,97;-26,78;4,56;9,47;4,56;9,47;0;0;
37185;-32,76;-26,24;-32,76;-26,24;4,39;9,56;4,39;9,56;0;0;
37202;-28,23;-32,24;-28,23;-32,24;4,41;9,81;4,41;9,81;0;0;
37220;-30,71;-49,77;-30,71;-49,77;3,64;11,15;3,64;11,15;0;0;
37237;-17,68;-44,82;-17,68;-44,82;3,6;9,6;3,6;9,6;0;0;
37253;-20,12;-43,75;-20,12;-43,75;3,57;8,33;3,57;8,33;0;0;
37269;-20,12;-43,75;-20,12;-43,75;3,71;7,72;3,71;7,72;0;0;
37289;-24,3;-39,98;-24,3;-39,98;3,65;7,53;3,65;7,53;0;0;
37307;-19,57;-36,36;-19,57;-36,36;3,64;6,93;3,64;6,93;0;0;
37325;-27,36;-34,06;-27,36;-34,06;3,33;6,6;3,33;6,6;0;0;
37345;-27,58;-43,19;-27,58;-43,19;3,19;6,35;3,19;6,35;0;0;
37361;-18,71;-27,93;-18,71;-27,93;3,52;6,07;3,52;6,07;0;0;
37376;-26,49;-31,24;-26,49;-31,24;3,75;5,54;3,75;5,54;0;0;
37394;-21,9;-35,43;-21,9;-35,43;3,8;5,07;3,8;5,07;0;0;
37410;-21,9;-35,43;-21,9;-35,43;3,55;4,14;3,55;4,14;0;0;
37425;-31,36;-40,53;-31,36;-40,53;7,15;3,4;7,15;3,4;0;0;
37446;-19,62;-42,11;-19,62;-42,11;6,94;3,08;6,94;3,08;0;0;
37464;-29,91;-38,81;-29,91;-38,81;7,34;3,59;7,34;3,59;0;0;
37482;-20,96;-30,35;-20,96;-30,35;7,78;4,59;7,78;4,59;0;0;
37499;-25,66;-39,15;-25,66;-39,15;7,64;4,7;7,64;4,7;0;0;
