Time;EMG1;EMG2;EMG3;EMG4;EMG1_F;EMG2_F;EMG3_F;EMG4_F;Note_R;Note_V;;Level 3;Joueur;Score;Notes hit;% Reussite R;Offset EMG1;Onset EMG1;% Reussite V;Offset EMG2;Onset EMG2
11;-21,51;-35,4;-21,51;-35,4;1,65;1,75;1,65;1,75;0;0;;;1;2000;20;20,20202;-24,35953;33,39268;0;-39,8877;2,605343
31;-28,18;-38,3;-28,18;-38,3;2,77;1,65;2,77;1,65;0;0;;;2;2100;21;21,21212;-24,35953;33,39268;0;-39,8877;2,605343
49;-34,65;-42,58;-34,65;-42,58;4,58;1,66;4,58;1,66;0;0;
68;-20,85;-39,76;-20,85;-39,76;5,34;1,9;5,34;1,9;0;0;
85;-20,85;-39,76;-20,85;-39,76;6,03;1,87;6,03;1,87;0;0;
103;-24,48;-42,2;-24,48;-42,2;6,12;1,93;6,12;1,93;0;0;
123;-25,45;-42,03;-25,45;-42,03;5,26;2,09;5,26;2,09;0;0;
142;-27,37;-38,36;-27,37;-38,36;4,3;2,27;4,3;2,27;0;0;
159;-22,17;-38,27;-22,17;-38,27;2,88;2,25;2,88;2,25;0;0;
180;-23,74;-39,34;-23,74;-39,34;2,31;2,01;2,31;2,01;0;0;
198;-26,43;-40,33;-26,43;-40,33;2,05;1,81;2,05;1,81;0;0;
219;-22,01;-38,31;-22,01;-38,31;1,97;1,7;1,97;1,7;0;0;
235;-22,97;-38,78;-22,97;-38,78;2,14;1,57;2,14;1,57;0;0;
257;-27,62;-41,81;-27,62;-41,81;2,21;1,45;2,21;1,45;0;0;
274;-27,07;-41,71;-27,07;-41,71;2,14;1,67;2,14;1,67;0;0;
292;-25,95;-44,27;-25,95;-44,27;2,07;1,82;2,07;1,82;0;0;
310;-24,51;-37,93;-24,51;-37,93;1,88;1,95;1,88;1,95;0;0;
327;-22,69;-38,77;-22,69;-38,77;1,95;1,96;1,95;1,96;0;0;
346;-22,69;-38,77;-22,69;-38,77;1,87;2,06;1,87;2,06;0;0;
363;-25,17;-37,64;-25,17;-37,64;1,68;2,01;1,68;2,01;0;0;
380;-24,18;-39,27;-24,18;-39,27;1,53;1,99;1,53;1,99;0;0;
399;-24,86;-37,83;-24,86;-37,83;1,65;1,78;1,65;1,78;0;0;
418;-22,36;-38,29;-22,36;-38,29;1,66;1,63;1,66;1,63;0;0;
438;-23,17;-40,23;-23,17;-40,23;1,61;1,47;1,61;1,47;0;0;
457;-25,85;-41,44;-25,85;-41,44;1,71;1,43;1,71;1,43;0;0;
474;-28,54;-40,98;-28,54;-40,98;1,84;1,28;1,84;1,28;0;0;
493;-21,35;-40,61;-21,35;-40,61;1,89;1,33;1,89;1,33;0;0;
510;-28,36;-41,59;-28,36;-41,59;1,95;1,33;1,95;1,33;0;0;
529;-24,86;-38,29;-24,86;-38,29;1,9;1,49;1,9;1,49;0;0;
546;-24,86;-38,29;-24,86;-38,29;1,8;1,6;1,8;1,6;0;0;
563;-27,02;-37,92;-27,02;-37,92;1,69;1,62;1,69;1,62;0;0;
581;-26,76;-43,81;-26,76;-43,81;1,74;1,75;1,74;1,75;0;0;
597;-22,16;-36,7;-22,16;-36,7;1,94;1,95;1,94;1,95;0;0;
616;-29,53;-42,55;-29,53;-42,55;2,1;1,96;2,1;1,96;0;0;
637;-25,26;-41,88;-25,26;-41,88;2,06;1,94;2,06;1,94;0;0;
654;-22,7;-39,31;-22,7;-39,31;2,01;2,04;2,01;2,04;0;0;
672;-23,88;-36,2;-23,88;-36,2;2,87;1,98;2,87;1,98;0;0;
693;-42,73;-42,56;-42,73;-42,56;4,56;1,8;4,56;1,8;0;0;
712;-22,23;-41,04;-22,23;-41,04;5,49;2,02;5,49;2,02;0;0;
730;-26,59;-39,5;-26,59;-39,5;5,46;2,05;5,46;2,05;0;0;
746;-26,59;-39,5;-26,59;-39,5;5,84;1,96;5,84;1,96;0;0;
763;-25,1;-35,62;-25,1;-35,62;5,36;1,85;5,36;1,85;0;0;
783;-23,14;-39,13;-23,14;-39,13;4,7;1,86;4,7;1,86;0;0;
802;-22,4;-42,35;-22,4;-42,35;2,49;1,66;2,49;1,66;0;0;
821;-28,56;-38,4;-28,56;-38,4;3,46;1,59;3,46;1,59;0;0;
838;-46,97;-36,31;-46,97;-36,31;5,37;1,6;5,37;1,6;0;0;
856;-14,26;-38,66;-14,26;-38,66;6,46;1,66;6,46;1,66;0;0;
876;-27,18;-40,27;-27,18;-40,27;6,85;1,62;6,85;1,62;0;0;
894;-24,98;-40,97;-24,98;-40,97;6,77;1,6;6,77;1,6;0;0;
910;-23;-44,9;-23;-44,9;5,76;1,55;5,76;1,55;0;0;
929;-26,23;-37,74;-26,23;-37,74;4,71;1,6;4,71;1,6;0;0;
950;-21,2;-39,64;-21,2;-39,64;1,94;1,72;1,94;1,72;0;0;
965;-21,2;-39,64;-21,2;-39,64;1,39;1,73;1,39;1,73;0;0;
983;-25,14;-40,2;-25,14;-40,2;1,4;1,84;1,4;1,84;0;0;
1002;-25,03;-40,37;-25,03;-40,37;1,49;1,87;1,49;1,87;0;0;
1021;-22,46;-38,28;-22,46;-38,28;1,54;1,69;1,54;1,69;0;0;
1038;-25,22;-41,85;-25,22;-41,85;1,59;1,62;1,59;1,62;0;0;
1055;-24,16;-38,07;-24,16;-38,07;1,62;1,45;1,62;1,45;0;0;
1072;-18,4;-40,01;-18,4;-40,01;1,64;1,46;1,64;1,46;0;0;
1089;-26,61;-39,09;-26,61;-39,09;1,72;1,58;1,72;1,58;0;0;
1105;-26,61;-39,09;-26,61;-39,09;1,79;1,83;1,79;1,83;0;0;
1123;-24,5;-36,23;-24,5;-36,23;2,03;1,83;2,03;1,83;0;0;
1141;-27,62;-38,87;-27,62;-38,87;2,25;1,93;2,25;1,93;0;0;
1159;-21,37;-41,07;-21,37;-41,07;2,74;1,94;2,74;1,94;0;0;
1179;-24,68;-36,65;-24,68;-36,65;2,57;1,84;2,57;1,84;0;0;
1197;-25,03;-38,65;-25,03;-38,65;2,48;1,68;2,48;1,68;0;0;
1215;-26,57;-39,11;-26,57;-39,11;2,5;1,51;2,5;1,51;0;0;
1233;-24,5;-40,99;-24,5;-40,99;2,18;1,52;2,18;1,52;0;0;
1252;-28,18;-36,59;-28,18;-36,59;1,91;1,48;1,91;1,48;0;0;
1271;-26,03;-41,34;-26,03;-41,34;1,66;1,52;1,66;1,52;0;0;
1289;-24,13;-39,75;-24,13;-39,75;1,83;1,51;1,83;1,51;0;0;
1308;-20,69;-37,96;-20,69;-37,96;1,65;1,61;1,65;1,61;0;0;
1325;-20,69;-37,96;-20,69;-37,96;1,72;1,73;1,72;1,73;0;0;
1343;-21,04;-36,1;-21,04;-36,1;3,01;1,73;3,01;1,73;0;0;
1363;-34,9;-41,3;-34,9;-41,3;5,48;1,71;5,48;1,71;0;0;
1382;-18,1;-41,6;-18,1;-41,6;6,02;1,82;6,02;1,82;0;0;
1399;-21,35;-38,3;-21,35;-38,3;6,17;1,81;6,17;1,81;0;0;
1420;-23,52;-38,66;-23,52;-38,66;6,18;1,67;6,18;1,67;0;0;
1438;-24,03;-40,57;-24,03;-40,57;5,31;1,53;5,31;1,53;0;0;
1458;-20,58;-40,27;-20,58;-40,27;4,01;1,3;4,01;1,3;0;0;
1477;-25,06;-42,84;-25,06;-42,84;2,26;1,26;2,26;1,26;0;0;
1495;-24,88;-38,65;-24,88;-38,65;1,88;1,38;1,88;1,38;0;0;
1513;-24,71;-37,64;-24,71;-37,64;1,8;1,35;1,8;1,35;0;0;
1530;-22,8;-40,2;-22,8;-40,2;2,03;1,34;2,03;1,34;0;0;
1547;-28;-39,15;-28;-39,15;2,03;1,5;2,03;1,5;0;0;
1563;-28;-39,15;-28;-39,15;1,97;1,57;1,97;1,57;0;0;
1580;-21,56;-40,93;-21,56;-40,93;1,78;1,55;1,78;1,55;0;0;
1596;-25,71;-37,92;-25,71;-37,92;1,77;1,46;1,77;1,46;0;0;
1614;-25,47;-37,12;-25,47;-37,12;1,59;1,54;1,59;1,54;0;0;
1632;-25,99;-43,27;-25,99;-43,27;1,73;1,62;1,73;1,62;0;0;
1650;-23,29;-37;-23,29;-37;1,75;1,75;1,75;1,75;0;0;
1667;-28,8;-37,14;-28,8;-37,14;1,81;1,91;1,81;1,91;0;0;
1685;-28,8;-37,14;-28,8;-37,14;1,83;2,21;1,83;2,21;0;0;
1703;-24,85;-41,25;-24,85;-41,25;1,99;2,11;1,99;2,11;0;0;
1722;-21,32;-40,53;-21,32;-40,53;2,12;2,15;2,12;2,15;0;0;
1746;-27,06;-38,93;-27,06;-38,93;2,03;2,08;2,03;2,08;0;0;
1766;-23,95;-42,57;-23,95;-42,57;2,05;1,76;2,05;1,76;0;0;
1788;-24,38;-39,89;-24,38;-39,89;1,9;1,44;1,9;1,44;0;0;
1805;-24,38;-39,89;-24,38;-39,89;1,7;1,31;1,7;1,31;0;0;
1824;-20,56;-40,34;-20,56;-40,34;1,71;1,3;1,71;1,3;0;0;
1840;-22,56;-37,54;-22,56;-37,54;1,59;1,25;1,59;1,25;0;0;
1859;-27,22;-37,79;-27,22;-37,79;1,9;1,37;1,9;1,37;0;0;
1878;-22,04;-42,35;-22,04;-42,35;2,03;1,54;2,03;1,54;0;0;
1897;-21,53;-37,63;-21,53;-37,63;2,22;1,59;2,22;1,59;0;0;
1915;-26,66;-39,63;-26,66;-39,63;2,25;1,62;2,25;1,62;0;0;
1937;-22,89;-42,24;-22,89;-42,24;2,19;1,6;2,19;1,6;0;0;
1955;-8,75;-40,28;-8,75;-40,28;2,72;1,57;2,72;1,57;0;0;
1972;-30,8;-41,76;-30,8;-41,76;3,29;1,42;3,29;1,42;0;0;
1990;-31,69;-36,97;-31,69;-36,97;4,97;1,36;4,97;1,36;0;0;
2008;-22,25;-44,29;-22,25;-44,29;5,49;1,47;5,49;1,47;0;0;
2027;-20,32;-38,37;-20,32;-38,37;5,62;1,57;5,62;1,57;0;0;
2045;-20,32;-38,37;-20,32;-38,37;5,81;1,66;5,81;1,66;0;0;
2063;-25,5;-38,42;-25,5;-38,42;4,69;1,65;4,69;1,65;0;0;
2084;-24,72;-38,66;-24,72;-38,66;3,7;1,58;3,7;1,58;0;0;
2103;-24,87;-40,83;-24,87;-40,83;2,7;1,35;2,7;1,35;0;0;
2120;-24,74;-41,1;-24,74;-41,1;2,34;1,29;2,34;1,29;0;0;
2138;-27,21;-43,31;-27,21;-43,31;2,05;1,36;2,05;1,36;0;0;
2157;-23,75;-38,9;-23,75;-38,9;1,92;1,34;1,92;1,34;0;0;
2174;-23,39;-38,11;-23,39;-38,11;1,95;1,4;1,95;1,4;0;0;
2191;-25,85;-42,9;-25,85;-42,9;1,95;1,58;1,95;1,58;0;0;
2208;-27,67;-37,19;-27,67;-37,19;2,01;1,67;2,01;1,67;0;0;
2224;-27,67;-37,19;-27,67;-37,19;2,03;1,64;2,03;1,64;0;0;
2242;-22,69;-36,45;-22,69;-36,45;2,05;1,46;2,05;1,46;0;0;
2261;-21,49;-40,26;-21,49;-40,26;1,92;1,69;1,92;1,69;0;0;
2280;-24,21;-40,63;-24,21;-40,63;1,83;1,68;1,83;1,68;0;0;
2298;-27,68;-38,91;-27,68;-38,91;2,01;1,47;2,01;1,47;0;0;
2316;-21,8;-39,99;-21,8;-39,99;1,94;1,41;1,94;1,41;0;0;
2333;-24,43;-36,93;-24,43;-36,93;1,77;1,59;1,77;1,59;0;0;
2352;-24,6;-41,23;-24,6;-41,23;1,89;1,52;1,89;1,52;0;0;
2369;-25,44;-40,99;-25,44;-40,99;1,94;1,3;1,94;1,3;0;0;
2386;-25,44;-40,99;-25,44;-40,99;1,92;1,17;1,92;1,17;0;0;
2404;-21,2;-41,34;-21,2;-41,34;1,91;1,43;1,91;1,43;0;0;
2423;-23,07;-38,67;-23,07;-38,67;1,94;1,56;1,94;1,56;0;0;
2444;-19,94;-40,81;-19,94;-40,81;1,91;1,39;1,91;1,39;0;0;
2464;-29,23;-35,08;-29,23;-35,08;2,09;1,62;2,09;1,62;0;0;
2481;-22,17;-41,33;-22,17;-41,33;2,01;1,85;2,01;1,85;0;0;
2500;-26,47;-37,36;-26,47;-37,36;1,8;2;1,8;2;0;0;
2517;-23,06;-43,33;-23,06;-43,33;1,97;1,85;1,97;1,85;0;0;
2534;-25,87;-40,27;-25,87;-40,27;1,85;1,94;1,85;1,94;0;0;
2551;-24,16;-39,74;-24,16;-39,74;1,8;2;1,8;2;0;0;
2571;-16,34;-38,92;-16,34;-38,92;2,54;1,71;2,54;1,71;0;0;
2590;-24,47;-38,66;-24,47;-38,66;3,64;1,5;3,64;1,5;0;0;
2607;-19,9;-40,7;-19,9;-40,7;4,27;1,57;4,27;1,57;0;0;
2625;-19,9;-40,7;-19,9;-40,7;4,82;1,55;4,82;1,55;0;0;
2642;-25,82;-40,96;-25,82;-40,96;5,02;1,64;5,02;1,64;0;0;
2661;-28,42;-36,82;-28,42;-36,82;3,57;1,89;3,57;1,89;0;0;
2679;-30,87;-38,66;-30,87;-38,66;4,24;1,94;4,24;1,94;0;0;
2696;-16,94;-41,47;-16,94;-41,47;3,7;1,96;3,7;1,96;0;0;
2713;-29,92;-41,72;-29,92;-41,72;4,62;1,77;4,62;1,77;0;0;
2731;-33,11;-38,46;-33,11;-38,46;6,34;1,83;6,34;1,83;0;0;
2748;-23,6;-37,91;-23,6;-37,91;6,27;1,87;6,27;1,87;0;0;
2765;-23,6;-37,91;-23,6;-37,91;5,45;1,83;5,45;1,83;0;0;
2784;-23,77;-38,55;-23,77;-38,55;4,76;1,84;4,76;1,84;0;0;
2801;-23,62;-39,99;-23,62;-39,99;3,75;1,76;3,75;1,76;0;0;
2819;-23,35;-40,37;-23,35;-40,37;2,66;1,84;2,66;1,84;0;0;
2837;-30,23;-39,27;-30,23;-39,27;1,75;1,88;1,75;1,88;0;0;
2855;-16,28;-38,56;-16,28;-38,56;2,86;1,77;2,86;1,77;0;0;
2874;-28,81;-41,35;-28,81;-41,35;3,25;1,67;3,25;1,67;0;0;
2894;-19,72;-39,97;-19,72;-39,97;3,22;1,73;3,22;1,73;0;0;
2912;-27,52;-38,72;-27,52;-38,72;3,21;1,74;3,21;1,74;0;0;
2930;-30,03;-40,37;-30,03;-40,37;3,29;1,59;3,29;1,59;0;0;
2948;-24,95;-43,81;-24,95;-43,81;2,85;1,65;2,85;1,65;0;0;
2966;-24,95;-43,81;-24,95;-43,81;1,82;1,7;1,82;1,7;0;0;
2984;-25,21;-38,82;-25,21;-38,82;1,87;1,64;1,87;1,64;0;0;
3001;-21,44;-40,29;-21,44;-40,29;1,99;1,56;1,99;1,56;0;0;
3020;-29,17;-38,79;-29,17;-38,79;1,94;1,71;1,94;1,71;0;0;
3037;-21,29;-40,59;-21,29;-40,59;1,94;1,76;1,94;1,76;0;0;
3059;-21,81;-36,14;-21,81;-36,14;2,15;1,64;2,15;1,64;0;0;
3076;-26,22;-42,51;-26,22;-42,51;2,13;1,48;2,13;1,48;0;0;
3097;-26,56;-38,31;-26,56;-38,31;2,1;1,59;2,1;1,59;0;0;
3116;-24,66;-41,44;-24,66;-41,44;2,11;1,72;2,11;1,72;0;0;
3134;-20,64;-39,25;-20,64;-39,25;2,12;2,11;2,12;2,11;0;0;
3153;-14,5;-40,61;-14,5;-40,61;2,95;2,15;2,95;2,15;0;0;
3170;-30,8;-35,91;-30,8;-35,91;3,07;2,28;3,07;2,28;0;0;
3188;-31,16;-38,97;-31,16;-38,97;5,39;2,26;5,39;2,26;0;0;
3205;-31,16;-38,97;-31,16;-38,97;7,65;2,16;7,65;2,16;0;0;
3222;-24,7;-36,77;-24,7;-36,77;7,66;1,73;7,66;1,73;0;0;
3239;-24,99;-38,64;-24,99;-38,64;7,49;1,78;7,49;1,78;0;0;
3258;-22,36;-39,48;-22,36;-39,48;6,54;1,72;6,54;1,72;0;0;
3275;-24,31;-40,33;-24,31;-40,33;5,08;1,69;5,08;1,69;0;0;
3293;-24,31;-39,91;-24,31;-39,91;3,07;1,68;3,07;1,68;0;0;
3309;-22,52;-43,43;-22,52;-43,43;1,92;1,69;1,92;1,69;0;0;
3325;-22,52;-43,43;-22,52;-43,43;1,8;1,69;1,8;1,69;0;0;
3345;-29,32;-38,3;-29,32;-38,3;2,27;1,47;2,27;1,47;0;0;
3365;-24,36;-37,47;-24,36;-37,47;2,78;1,41;2,78;1,41;0;0;
3383;-24,32;-38,8;-24,32;-38,8;2,76;1,42;2,76;1,42;0;0;
3401;-25,78;-39,46;-25,78;-39,46;2,65;1,35;2,65;1,35;0;0;
3419;-24,39;-38,41;-24,39;-38,41;2,72;1,33;2,72;1,33;0;0;
3437;-20,53;-40,99;-20,53;-40,99;2,88;1,35;2,88;1,35;0;0;
3456;-23,79;-41,26;-23,79;-41,26;2,32;1,4;2,32;1,4;0;0;
3472;-20,7;-42,59;-20,7;-42,59;1,72;1,34;1,72;1,34;0;0;
3491;-25,5;-37,82;-25,5;-37,82;1,78;1,37;1,78;1,37;0;0;
3509;-24,62;-40,24;-24,62;-40,24;1,65;1,29;1,65;1,29;0;0;
3527;-26,21;-40,26;-26,21;-40,26;1,45;1,37;1,45;1,37;0;0;
3545;-26,21;-40,26;-26,21;-40,26;1,32;1,33;1,32;1,33;0;0;
3561;-24,23;-39,11;-24,23;-39,11;1,36;1,52;1,36;1,52;0;0;
3579;-24,95;-41,12;-24,95;-41,12;1,29;1,64;1,29;1,64;0;0;
3597;-25,66;-40,97;-25,66;-40,97;1,28;1,83;1,28;1,83;0;0;
3620;-23,02;-39,89;-23,02;-39,89;1,39;1,95;1,39;1,95;0;0;
3637;-26,94;-36,65;-26,94;-36,65;1,62;2,07;1,62;2,07;0;0;
3658;-23,54;-39,64;-23,54;-39,64;1,71;2,14;1,71;2,14;0;0;
3675;-23,53;-36,83;-23,53;-36,83;1,83;2,24;1,83;2,24;0;0;
3695;-25,52;-39,64;-25,52;-39,64;1,85;2,03;1,85;2,03;0;0;
3713;-26,73;-38,9;-26,73;-38,9;1,91;1,88;1,91;1,88;0;0;
3732;-22,91;-33,77;-22,91;-33,77;1,76;1,89;1,76;1,89;0;0;
3750;-24,61;-42,02;-24,61;-42,02;1,57;1,77;1,57;1,77;0;0;
3767;-24,61;-42,02;-24,61;-42,02;1,54;1,83;1,54;1,83;0;0;
3786;-21,7;-39,27;-21,7;-39,27;1,76;1,62;1,76;1,62;0;0;
3803;-22,98;-39,73;-22,98;-39,73;1,93;1,68;1,93;1,68;0;0;
3821;-28,36;-41,35;-28,36;-41,35;2,02;1,71;2,02;1,71;0;0;
3837;-48,32;-37,05;-48,32;-37,05;3,84;1,62;3,84;1,62;0;0;
3855;-18,39;-40,85;-18,39;-40,85;5,27;1,66;5,27;1,66;0;0;
3872;-17,97;-42,75;-17,97;-42,75;6,29;1,67;6,29;1,67;0;0;
3889;-25,84;-38,67;-25,84;-38,67;6,75;1,74;6,75;1,74;0;0;
3906;-25,84;-38,67;-25,84;-38,67;7,2;1,82;7,2;1,82;0;0;
3921;-27,8;-44,66;-27,8;-44,66;6,95;1,73;6,95;1,73;0;0;
3939;-24,94;-36,32;-24,94;-36,32;4,18;1,81;4,18;1,81;0;0;
3957;-26,35;-37,81;-26,35;-37,81;3,44;2,03;3,44;2,03;0;0;
3977;-21,08;-39,51;-21,08;-39,51;2,33;1,94;2,33;1,94;0;0;
3993;-23,52;-37,73;-23,52;-37,73;1,78;1,84;1,78;1,84;0;0;
4010;-25,47;-40,19;-25,47;-40,19;1,54;1,87;1,54;1,87;0;0;
4029;-27,94;-40,27;-27,94;-40,27;1,6;1,68;1,6;1,68;0;0;
4047;-21,53;-36,7;-21,53;-36,7;1,89;1,54;1,89;1,54;0;0;
4065;-21,53;-36,7;-21,53;-36,7;2,13;1,59;2,13;1,59;0;0;
4083;-28,61;-39,39;-28,61;-39,39;2,58;1,58;2,58;1,58;0;0;
4102;-24,64;-38,9;-24,64;-38,9;2,91;1,51;2,91;1,51;0;0;
4120;-20,46;-38,66;-20,46;-38,66;3,14;1,6;3,14;1,6;0;0;
4138;-22,96;-37,43;-22,96;-37,43;2,99;1,63;2,99;1,63;0;0;
4158;-26,11;-39,72;-26,11;-39,72;2,93;1,69;2,93;1,69;0;0;
4175;-28,54;-42,41;-28,54;-42,41;2,52;1,75;2,52;1,75;0;0;
4193;-23,36;-35,97;-23,36;-35,97;2,18;1,88;2,18;1,88;0;0;
4209;-27,17;-40,13;-27,17;-40,13;2,04;1,92;2,04;1,92;0;0;
4228;-25,48;-36,61;-25,48;-36,61;2,09;1,86;2,09;1,86;0;0;
4244;-25,48;-36,61;-25,48;-36,61;1,91;1,86;1,91;1,86;0;0;
4263;-22,87;-39,1;-22,87;-39,1;2;1,82;2;1,82;0;0;
4281;-26,66;-42,98;-26,66;-42,98;1,91;1,8;1,91;1,8;0;0;
4298;-26,47;-40,61;-26,47;-40,61;1,87;1,78;1,87;1,78;0;0;
4316;-25,22;-37,17;-25,22;-37,17;1,82;1,82;1,82;1,82;0;0;
4334;-22,8;-38,87;-22,8;-38,87;1,71;1,76;1,71;1,76;0;0;
4353;-21,46;-38,86;-21,46;-38,86;1,56;1,67;1,56;1,67;0;0;
4375;-23,88;-38,29;-23,88;-38,29;1,53;1,69;1,53;1,69;0;0;
4391;-25,26;-39,98;-25,26;-39,98;1,54;1,7;1,54;1,7;0;0;
4409;-24,52;-36,4;-24,52;-36,4;1,51;1,7;1,51;1,7;0;0;
4429;-24,8;-36,34;-24,8;-36,34;1,62;1,57;1,62;1,57;0;0;
4445;-24,8;-36,34;-24,8;-36,34;1,91;1,6;1,91;1,6;0;0;
4464;-31,45;-38,39;-31,45;-38,39;2,62;1,53;2,62;1,53;0;0;
4484;-22,56;-40,62;-22,56;-40,62;4,51;1,31;4,51;1,31;0;0;
4501;-20,85;-41,06;-20,85;-41,06;4,97;1,16;4,97;1,16;0;0;
4517;-24,22;-42,02;-24,22;-42,02;4,84;1,1;4,84;1,1;0;0;
4535;-22,23;-39,08;-22,23;-39,08;4,71;1,14;4,71;1,14;0;0;
4555;-25,78;-36,64;-25,78;-36,64;4,44;1,22;4,44;1,22;0;0;
4573;-26,56;-39,15;-26,56;-39,15;2,96;1,29;2,96;1,29;0;0;
4593;-24,77;-41,5;-24,77;-41,5;2,34;1,45;2,34;1,45;0;0;
4613;-25,53;-40;-25,53;-40;2,04;1,65;2,04;1,65;0;0;
4632;-24,49;-40,61;-24,49;-40,61;2,09;1,77;2,09;1,77;0;0;
4649;-24,93;-38,32;-24,93;-38,32;2,05;1,88;2,05;1,88;0;0;
4668;-22,61;-39,68;-22,61;-39,68;2;1,79;2;1,79;0;0;
4685;-22,61;-39,68;-22,61;-39,68;2,05;1,63;2,05;1,63;0;0;
4703;-27,19;-39,34;-27,19;-39,34;2,27;1,51;2,27;1,51;0;0;
4720;-21,28;-36,6;-21,28;-36,6;2,32;1,57;2,32;1,57;0;0;
4737;-29,84;-39,34;-29,84;-39,34;2,48;1,67;2,48;1,67;0;0;
4755;-23,98;-36,65;-23,98;-36,65;2,53;1,8;2,53;1,8;0;0;
4775;-16,13;-41,98;-16,13;-41,98;2,65;1,93;2,65;1,93;0;0;
4797;-31,97;-38,28;-31,97;-38,28;3,41;1,97;3,41;1,97;0;0;
4813;-19,86;-39,9;-19,86;-39,9;3,29;1,94;3,29;1,94;0;0;
4832;-26,39;-38,65;-26,39;-38,65;3,3;1,67;3,3;1,67;0;0;
4850;-30,03;-38,64;-30,03;-38,64;3,29;1,49;3,29;1,49;0;0;
4868;-24,1;-38,19;-24,1;-38,19;3,26;1,34;3,26;1,34;0;0;
4888;-23,35;-41,97;-23,35;-41,97;2,84;1,37;2,84;1,37;0;0;
4907;-20,86;-41,6;-20,86;-41,6;2,25;1,45;2,25;1,45;0;0;
4926;-20,86;-41,6;-20,86;-41,6;1,98;1,63;1,98;1,63;0;0;
4941;-25,49;-41,66;-25,49;-41,66;1,76;1,9;1,76;1,9;0;0;
4959;-22,97;-35,95;-22,97;-35,95;1,74;2,1;1,74;2,1;0;0;
4975;-23,7;-45,27;-23,7;-45,27;1,58;2,35;1,58;2,35;0;0;
4993;-23,75;-34,76;-23,75;-34,76;1,68;2,51;1,68;2,51;0;0;
5013;-25,17;-40,63;-25,17;-40,63;1,66;2,42;1,66;2,42;0;0;
5030;-28,54;-39,35;-28,54;-39,35;1,72;2,29;1,72;2,29;0;0;
5050;-24,22;-38;-24,22;-38;2,23;2,2;2,23;2,2;0;0;
5068;-32,78;-40,33;-32,78;-40,33;2,34;1,78;2,34;1,78;0;0;
5088;-25,2;-35,78;-25,2;-35,78;2,24;1,71;2,24;1,71;0;0;
5106;-25,2;-35,78;-25,2;-35,78;2,47;1,56;2,47;1,56;0;0;
5123;-30,34;-40,63;-30,34;-40,63;2,64;1,68;2,64;1,68;0;0;
5144;-25,71;-43,13;-25,71;-43,13;2,5;1,91;2,5;1,91;0;0;
5164;-19,86;-41,68;-19,86;-41,68;2,52;1,93;2,52;1,93;0;0;
5181;-28,09;-37,44;-28,09;-37,44;2,47;1,95;2,47;1,95;0;0;
5198;-25,58;-36,82;-25,58;-36,82;2,7;2,05;2,7;2,05;0;0;
5215;-21,7;-42,56;-21,7;-42,56;2,6;1,94;2,6;1,94;0;0;
5235;-25,2;-39,89;-25,2;-39,89;2,6;2,07;2,6;2,07;0;0;
5253;-21,86;-36,99;-21,86;-36,99;2,82;2,15;2,82;2,15;0;0;
5271;-27,32;-35,99;-27,32;-35,99;2,5;2,37;2,5;2,37;0;0;
5294;-23,77;-43,31;-23,77;-43,31;2,28;2,38;2,28;2,38;0;0;
5311;-22,19;-38,3;-22,19;-38,3;2,07;2,77;2,07;2,77;0;0;
5328;-22,19;-38,3;-22,19;-38,3;1,99;2,9;1,99;2,9;0;0;
5345;-22,19;-38,3;-22,19;-38,3;1,88;3,08;1,88;3,08;0;0;
5363;-22,46;-34,99;-22,46;-34,99;1,85;3;1,85;3;0;0;
5381;-23,29;-40,32;-23,29;-40,32;1,86;3;1,86;3;0;1;
5398;-20,08;-44,19;-20,08;-44,19;1,83;3,06;1,83;3,06;0;1;
5417;-20,21;-40,6;-20,21;-40,6;1,95;2,88;1,95;2,88;0;1;
5432;-21,05;-43,27;-21,05;-43,27;1,93;2,63;1,93;2,63;0;1;
5449;-11,78;-43,81;-11,78;-43,81;2,39;2,79;2,39;2,79;0;1;
5468;-36,22;-40;-36,22;-40;3,47;2,88;3,47;2,88;0;1;
5487;-24,38;-41,82;-24,38;-41,82;3,84;2,98;3,84;2,98;0;1;
5506;-24,38;-41,82;-24,38;-41,82;4,14;3,04;4,14;3,04;0;1;
5522;-22,97;-41,16;-22,97;-41,16;4,28;3,13;4,28;3,13;0;1;
5538;-27,39;-31,81;-27,39;-31,81;4,21;2,97;4,21;2,97;0;1;
5556;-27,31;-43,2;-27,31;-43,2;3,61;2,93;3,61;2,93;0;1;
5576;-23,41;-39,64;-23,41;-39,64;2,41;2,76;2,41;2,76;0;1;
5594;-28,34;-45,26;-28,34;-45,26;2,2;2,62;2,2;2,62;0;1;
5612;-24,67;-39,29;-24,67;-39,29;1,99;2,77;1,99;2,77;0;1;
5631;-22,72;-41,84;-22,72;-41,84;2,2;2,95;2,2;2,95;0;1;
5651;-28,06;-37,56;-28,06;-37,56;2,18;3,03;2,18;3,03;0;1;
5668;-23,87;-34,11;-23,87;-34,11;2,05;3,07;2,05;3,07;0;1;
5685;-23,87;-34,11;-23,87;-34,11;2,08;3;2,08;3;0;1;
5702;-24,69;-44,5;-24,69;-44,5;1,79;2,5;1,79;2,5;0;1;
5719;-20,46;-38,29;-20,46;-38,29;1,79;2,3;1,79;2,3;0;0;
5737;-27,52;-42,11;-27,52;-42,11;1,74;2,58;1,74;2,58;0;0;
5756;-22,23;-45,32;-22,23;-45,32;1,54;2,87;1,54;2,87;0;0;
5778;-29,49;-43,27;-29,49;-43,27;1,73;2,74;1,73;2,74;0;0;
5799;-22,1;-43,29;-22,1;-43,29;1,8;2,99;1,8;2,99;0;0;
5820;-27,2;-37,18;-27,2;-37,18;1,92;2,88;1,92;2,88;0;0;
5837;-25,77;-49,12;-25,77;-49,12;1,99;3,1;1,99;3,1;0;0;
5856;-27,45;-41,05;-27,45;-41,05;2,42;2,88;2,42;2,88;0;0;
5874;-30,35;-41,19;-30,35;-41,19;3,12;2,68;3,12;2,68;0;0;
5893;-27,97;-41,91;-27,97;-41,91;2,99;3,09;2,99;3,09;0;0;
5911;-26,46;-35,91;-26,46;-35,91;3,39;3,13;3,39;3,13;0;0;
5927;-19,87;-36,04;-19,87;-36,04;4,01;3,35;4,01;3,35;0;0;
5948;-25,22;-30,32;-25,22;-30,32;3,51;3,37;3,51;3,37;0;0;
5970;-22,43;-41,11;-22,43;-41,11;3,2;3,24;3,2;3,24;0;0;
5989;-23,75;-55,25;-23,75;-55,25;2,68;3,45;2,68;3,45;0;0;
6009;-24,51;-39,62;-24,51;-39,62;2,28;3,58;2,28;3,58;0;0;
6026;-24,51;-39,62;-24,51;-39,62;1,79;3,62;1,79;3,62;0;0;
6042;-25,69;-44,15;-25,69;-44,15;1,43;3,67;1,43;3,67;0;0;
6060;-24,66;-38,55;-24,66;-38,55;1,47;3,69;1,47;3,69;0;0;
6077;-24,63;-35,13;-24,63;-35,13;1,44;3,99;1,44;3,99;0;0;
6094;-21,47;-34,3;-21,47;-34,3;1,58;3,57;1,58;3,57;0;0;
6111;-22,35;-33,66;-22,35;-33,66;2,04;3,67;2,04;3,67;0;0;
6128;-22,72;-40,34;-22,72;-40,34;2,11;3,37;2,11;3,37;0;0;
6143;-22,72;-40,34;-22,72;-40,34;2,11;3,06;2,11;3,06;0;0;
6158;-24,67;-38,81;-24,67;-38,81;2,03;2,98;2,03;2,98;0;0;
6174;-22,54;-39,4;-22,54;-39,4;1,94;2,91;1,94;2,91;0;0;
6191;-26,54;-40,34;-26,54;-40,34;1,63;2,78;1,63;2,78;0;0;
6211;-22,52;-39,12;-22,52;-39,12;1,74;2,66;1,74;2,66;0;0;
6229;-29,03;-37,36;-29,03;-37,36;1,69;2,8;1,69;2,8;0;0;
6248;-26,48;-41,23;-26,48;-41,23;1,7;2,63;1,7;2,63;0;0;
6265;-26,48;-41,23;-26,48;-41,23;1,72;2,39;1,72;2,39;0;0;
6285;-21,07;-41,58;-21,07;-41,58;1,79;2,24;1,79;2,24;0;0;
6305;-28,64;-43,11;-28,64;-43,11;1,63;2,31;1,63;2,31;0;0;
6322;-26,21;-37,34;-26,21;-37,34;1,65;2,31;1,65;2,31;0;0;
6339;-21,9;-39,49;-21,9;-39,49;1,72;2,34;1,72;2,34;0;0;
6357;-23,85;-42,36;-23,85;-42,36;1,71;2,4;1,71;2,4;0;0;
6376;-24,48;-39,63;-24,48;-39,63;1,72;2,5;1,72;2,5;0;0;
6393;-25,82;-37,93;-25,82;-37,93;1,67;2,5;1,67;2,5;0;0;
6412;-24,74;-41,47;-24,74;-41,47;1,92;2,57;1,92;2,57;0;0;
6428;-23,18;-40,81;-23,18;-40,81;1,95;2,41;1,95;2,41;0;0;
6444;-23,18;-40,81;-23,18;-40,81;1,92;2,26;1,92;2,26;0;0;
6463;-23,75;-40,02;-23,75;-40,02;2,2;2,11;2,2;2,11;0;0;
6483;-23,52;-38,66;-23,52;-38,66;2,22;2,28;2,22;2,28;0;0;
6503;-24,99;-38,03;-24,99;-38,03;1,96;2,15;1,96;2,15;0;0;
6520;-24,99;-36,79;-24,99;-36,79;2,15;2,3;2,15;2,3;0;0;
6538;-26,72;-43,8;-26,72;-43,8;1,95;2,39;1,95;2,39;0;0;
6555;-25,83;-44,05;-25,83;-44,05;1,85;2,43;1,85;2,43;0;0;
6574;-21,81;-38,67;-21,81;-38,67;1,86;2,22;1,86;2,22;0;0;
6592;-24,28;-37,13;-24,28;-37,13;2,03;2,17;2,03;2,17;0;0;
6610;-22,47;-39,28;-22,47;-39,28;2,06;2,15;2,06;2,15;0;0;
6628;-25,07;-39,87;-25,07;-39,87;2,29;2,08;2,29;2,08;0;0;
6648;-25,76;-34,98;-25,76;-34,98;2,36;1,91;2,36;1,91;0;0;
6664;-25,76;-34,98;-25,76;-34,98;2,42;1,85;2,42;1,85;0;0;
6681;-26,13;-41,72;-26,13;-41,72;2,28;1,97;2,28;1,97;0;0;
6699;-25,35;-37,32;-25,35;-37,32;2,11;1,85;2,11;1,85;0;0;
6715;-23,02;-41,6;-23,02;-41,6;2;1,95;2;1,95;0;0;
6735;-27,2;-40,36;-27,2;-40,36;1,87;1,8;1,87;1,8;0;0;
6755;-23,89;-39,1;-23,89;-39,1;1,72;1,8;1,72;1,8;0;0;
6776;-26,36;-41,12;-26,36;-41,12;1,59;1,83;1,59;1,83;0;0;
6796;-25,75;-44,02;-25,75;-44,02;1,58;1,94;1,58;1,94;0;0;
6818;-29,17;-40,81;-29,17;-40,81;1,66;1,76;1,66;1,76;0;0;
6835;-23,04;-40,09;-23,04;-40,09;1,66;1,7;1,66;1,7;0;0;
6853;-23,15;-36,07;-23,15;-36,07;1,8;1,59;1,8;1,59;0;0;
6868;-28,73;-40,62;-28,73;-40,62;1,9;1,68;1,9;1,68;0;0;
6886;-28,73;-40,62;-28,73;-40,62;1,94;1,63;1,94;1,63;0;0;
6902;-25,64;-36,46;-25,64;-36,46;1,86;1,43;1,86;1,43;0;0;
6920;-32,62;-42,85;-32,62;-42,85;2,62;1,5;2,62;1,5;0;0;
6944;-23,77;-41,98;-23,77;-41,98;2,8;1,62;2,8;1,62;0;0;
6961;-26,41;-39,66;-26,41;-39,66;2,68;1,64;2,68;1,64;0;0;
6979;-24,03;-37,64;-24,03;-37,64;2,78;1,78;2,78;1,78;0;0;
6996;-23,04;-40;-23,04;-40;2,86;1,7;2,86;1,7;0;0;
7016;-24,85;-40,53;-24,85;-40,53;2,66;1,82;2,66;1,82;0;0;
7033;-27,39;-34,73;-27,39;-34,73;1,73;1,89;1,73;1,89;0;0;
7052;-20,44;-41,82;-20,44;-41,82;1,78;1,99;1,78;1,99;0;0;
7070;-23,77;-43,58;-23,77;-43,58;1,57;2,1;1,57;2,1;0;0;
7088;-23,71;-42,83;-23,71;-42,83;1,59;2,12;1,59;2,12;0;0;
7108;-27,11;-39,66;-27,11;-39,66;1,5;2,11;1,5;2,11;0;0;
7125;-27,11;-39,66;-27,11;-39,66;1,5;2,11;1,5;2,11;0;0;
7143;-26,36;-40,85;-26,36;-40,85;1,46;1,88;1,46;1,88;0;0;
7161;-25,51;-42,54;-25,51;-42,54;1,32;2,02;1,32;2,02;0;0;
7180;-23,53;-43,93;-23,53;-43,93;1,61;1,9;1,61;1,9;0;0;
7198;-23,59;-41,59;-23,59;-41,59;2,55;1,97;2,55;1,97;0;0;
7218;-23,51;-40,51;-23,51;-40,51;3,17;2,07;3,17;2,07;0;0;
7234;-23,76;-41,21;-23,76;-41,21;3,14;2,11;3,14;2,11;0;0;
7252;-25,71;-39,86;-25,71;-39,86;3,25;2,21;3,25;2,21;0;0;
7270;-27;-36,58;-27;-36,58;3,42;2,15;3,42;2,15;0;0;
7288;-20,49;-39,66;-20,49;-39,66;2,96;2,15;2,96;2,15;0;0;
7307;-25,03;-38,37;-25,03;-38,37;2,37;2,24;2,37;2,24;0;0;
7325;-25,03;-38,37;-25,03;-38,37;2;2,22;2;2,22;0;0;
7341;-22,77;-38,2;-22,77;-38,2;2,3;2,32;2,3;2,32;0;0;
7357;-21,27;-36,66;-21,27;-36,66;2,31;2,14;2,31;2,14;0;0;
7375;-24,54;-39,14;-24,54;-39,14;2,35;2,16;2,35;2,16;0;0;
7392;-27,57;-42,8;-27,57;-42,8;2,1;2,34;2,1;2,34;0;0;
7410;-24,06;-39,91;-24,06;-39,91;2,25;2,14;2,25;2,14;0;0;
7429;-27,38;-39,09;-27,38;-39,09;2,23;1,88;2,23;1,88;0;0;
7446;-27,38;-39,09;-27,38;-39,09;2,08;1,68;2,08;1,68;0;0;
7462;-25,12;-42,54;-25,12;-42,54;2,21;1,6;2,21;1,6;0;0;
7479;-21,17;-38,81;-21,17;-38,81;2,19;1,63;2,19;1,63;0;0;
7498;-23,74;-37,21;-23,74;-37,21;1,97;1,55;1,97;1,55;0;0;
7515;-24,36;-40,98;-24,36;-40,98;1,99;1,61;1,99;1,61;0;0;
7533;-22,17;-40,54;-22,17;-40,54;1,94;1,68;1,94;1,68;0;0;
7551;-27,57;-42,1;-27,57;-42,1;1,65;1,86;1,65;1,86;0;0;
7571;-30,48;-36,42;-30,48;-36,42;2,1;1,95;2,1;1,95;0;0;
7588;-25,13;-41,24;-25,13;-41,24;2,65;1,81;2,65;1,81;0;0;
7605;-25,13;-41,24;-25,13;-41,24;3,06;1,84;3,06;1,84;0;0;
7626;-34,65;-38,42;-34,65;-38,42;3,6;1,83;3,6;1,83;0;0;
7644;-22,03;-39,72;-22,03;-39,72;4,19;1,96;4,19;1,96;0;0;
7661;-28,44;-40,05;-28,44;-40,05;4,04;1,67;4,04;1,67;0;0;
7679;-25,02;-39,31;-25,02;-39,31;3,61;1,81;3,61;1,81;0;0;
7696;-23,89;-36,08;-23,89;-36,08;3,24;1,85;3,24;1,85;0;0;
7715;-24,16;-40,8;-24,16;-40,8;3,03;2,11;3,03;2,11;0;0;
7731;-25,6;-42,71;-25,6;-42,71;2,28;2,1;2,28;2,1;0;0;
7749;-24,07;-34,97;-24,07;-34,97;2,07;2,28;2,07;2,28;0;0;
7766;-24,07;-34,97;-24,07;-34,97;2,01;2,45;2,01;2,45;0;0;
7784;-23,11;-39,52;-23,11;-39,52;2,1;2,58;2,1;2,58;0;0;
7803;-26,47;-36,91;-26,47;-36,91;1,81;2,53;1,81;2,53;0;1;
7821;-26,84;-36,45;-26,84;-36,45;1,8;2,44;1,8;2,44;0;1;
7838;-22,17;-37,13;-22,17;-37,13;1,66;2,44;1,66;2,44;0;1;
7857;-24,85;-34,66;-24,85;-34,66;1,65;2,4;1,65;2,4;0;1;
7877;-20,43;-37,4;-20,43;-37,4;1,91;2,36;1,91;2,36;0;1;
7896;-23,62;-44,02;-23,62;-44,02;1,85;2,49;1,85;2,49;0;1;
7915;-24,64;-41,16;-24,64;-41,16;1,86;2,36;1,86;2,36;0;1;
7935;-24,5;-37,18;-24,5;-37,18;2,02;2,37;2,02;2,37;0;1;
7953;-20,42;-42,67;-20,42;-42,67;2,1;2,56;2,1;2,56;0;1;
7974;-26,84;-39,49;-26,84;-39,49;1,95;2,55;1,95;2,55;0;1;
7995;-27,04;-46;-27,04;-46;1,63;2,51;1,63;2,51;0;1;
8017;-23,62;-40,22;-23,62;-40,22;1,54;2,55;1,54;2,55;0;1;
8037;-25,22;-38,55;-25,22;-38,55;1,56;2,56;1,56;2,56;0;1;
8057;-23,73;-42,58;-23,73;-42,58;1,89;2,73;1,89;2,73;0;1;
8076;-23,74;-33,78;-23,74;-33,78;1,85;2,83;1,85;2,83;0;1;
8095;-22,66;-41,69;-22,66;-41,69;1,94;2,65;1,94;2,65;0;1;
8112;-25,86;-40,75;-25,86;-40,75;2,04;2,35;2,04;2,35;0;1;
8129;-27,42;-35,1;-27,42;-35,1;2,14;2,25;2,14;2,25;0;0;
8144;-27,42;-35,1;-27,42;-35,1;2,21;2,22;2,21;2,22;0;0;
8162;-18,72;-34,11;-18,72;-34,11;2,68;2,16;2,68;2,16;0;0;
8179;-20,46;-43,17;-20,46;-43,17;2,75;2,01;2,75;2,01;0;0;
8198;-24,16;-45,72;-24,16;-45,72;2,68;2,18;2,68;2,18;0;0;
8218;-24,07;-38,26;-24,07;-38,26;2,68;2,38;2,68;2,38;0;0;
8237;-27,29;-33,63;-27,29;-33,63;2,43;2,44;2,43;2,44;0;0;
8255;-24,75;-35,5;-24,75;-35,5;1,69;2,42;1,69;2,42;0;0;
8272;-22,29;-38,53;-22,29;-38,53;1,51;2,44;1,51;2,44;0;0;
8293;-26,85;-39,82;-26,85;-39,82;1,58;2,16;1,58;2,16;0;0;
8312;-29,5;-38,11;-29,5;-38,11;1,85;2,09;1,85;2,09;0;0;
8330;-23,18;-37,93;-23,18;-37,93;1,98;2,09;1,98;2,09;0;0;
8351;-26,85;-39,33;-26,85;-39,33;2,14;2,1;2,14;2,1;0;0;
8371;-25,91;-40,52;-25,91;-40,52;2,29;1,96;2,29;1,96;0;0;
8387;-22,58;-42,21;-22,58;-42,21;2,36;1,94;2,36;1,94;0;0;
8406;-22,58;-42,21;-22,58;-42,21;2,35;1,86;2,35;1,86;0;0;
8424;-27,83;-35,58;-27,83;-35,58;2,15;1,82;2,15;1,82;0;0;
8441;-24,55;-39,09;-24,55;-39,09;2,03;1,69;2,03;1,69;0;0;
8460;-22,2;-38,64;-22,2;-38,64;1,88;1,99;1,88;1,99;0;0;
8477;-27;-41,86;-27;-41,86;1,72;1,92;1,72;1,92;0;0;
8497;-24,03;-39,77;-24,03;-39,77;1,7;1,93;1,7;1,93;0;0;
8515;-25,91;-43,18;-25,91;-43,18;1,71;2,16;1,71;2,16;0;0;
8533;-24,69;-40,81;-24,69;-40,81;1,74;2,3;1,74;2,3;1;0;
8550;-22,42;-40,6;-22,42;-40,6;2,11;2;2,11;2;1;0;
8566;-22,42;-40,6;-22,42;-40,6;2,3;1,85;2,3;1,85;1;0;
8582;-18,63;-40,56;-18,63;-40,56;2,44;1,89;2,44;1,89;1;0;
8599;-26,8;-35,21;-26,8;-35,21;2,63;1,96;2,63;1,96;1;0;
8624;-18,48;-39,9;-18,48;-39,9;2,47;2,08;2,47;2,08;1;0;
8641;-26,18;-36,57;-26,18;-36,57;2,48;2,18;2,48;2,18;1;0;
8659;-26,19;-39,53;-26,19;-39,53;2,23;2,25;2,23;2,25;1;0;
8676;-25,69;-40,63;-25,69;-40,63;2,02;2,25;2,02;2,25;1;0;
8694;-26,27;-38,49;-26,27;-38,49;1,76;2,19;1,76;2,19;1;0;
8712;-18,01;-38,9;-18,01;-38,9;1,74;1,85;1,74;1,85;1;0;
8729;-34,52;-38,27;-34,52;-38,27;2,32;1,65;2,32;1,65;1;0;
8746;-34,52;-38,27;-34,52;-38,27;2,89;1,58;2,89;1,58;1;0;
8762;-21,91;-37,38;-21,91;-37,38;2,9;1,64;2,9;1,64;1;0;
8782;-23,16;-36,45;-23,16;-36,45;2,95;1,58;2,95;1,58;1;0;
8800;-23,71;-41,87;-23,71;-41,87;3,2;1,71;3,2;1,71;1;0;
8820;-26,48;-42,58;-26,48;-42,58;2,75;1,89;2,75;1,89;1;0;
8842;-26,2;-38,14;-26,2;-38,14;2,33;1,97;2,33;1,97;1;0;
8859;-25,62;-43,94;-25,62;-43,94;2,43;2,04;2,43;2,04;1;0;
8875;-27,99;-38,3;-27,99;-38,3;2,91;2,19;2,91;2,19;0;0;
8894;-21,08;-35,59;-21,08;-35,59;3,48;2,19;3,48;2,19;0;0;
8913;-26,68;-36,05;-26,68;-36,05;3,41;2,15;3,41;2,15;0;0;
8930;-18,5;-39,65;-18,5;-39,65;3,48;2,16;3,48;2,16;0;0;
8948;-23,75;-38,4;-23,75;-38,4;3,33;2,17;3,33;2,17;0;0;
8968;-24,73;-39,66;-24,73;-39,66;2,37;1,97;2,37;1,97;0;0;
8985;-24,73;-39,66;-24,73;-39,66;1,89;2,01;1,89;2,01;0;0;
9005;-27,42;-41,27;-27,42;-41,27;1,98;1,99;1,98;1,99;0;0;
9028;-24,96;-41,5;-24,96;-41,5;2,01;2,25;2,01;2,25;0;0;
9045;-24,96;-41,5;-24,96;-41,5;1,86;2,6;1,86;2,6;0;0;
9062;-22,56;-36,22;-22,56;-36,22;2,13;2,56;2,13;2,56;0;0;
9082;-23,29;-37,74;-23,29;-37,74;2,3;2,61;2,3;2,61;0;0;
9102;-24,98;-37,74;-24,98;-37,74;2,6;2,63;2,6;2,63;0;0;
9121;-26,45;-38,11;-26,45;-38,11;2,48;2,39;2,48;2,39;0;0;
9142;-22,82;-43,57;-22,82;-43,57;2,35;2,07;2,35;2,07;0;0;
9159;-22,87;-41,59;-22,87;-41,59;2,28;1,98;2,28;1,98;0;0;
9177;-22,87;-41,59;-22,87;-41,59;2,15;2,02;2,15;2,02;0;0;
9194;-22,79;-40,8;-22,79;-40,8;1,98;2,08;1,98;2,08;0;0;
9216;-24,52;-40,09;-24,52;-40,09;1,78;2,15;1,78;2,15;0;0;
9232;-28,19;-39,63;-28,19;-39,63;1,74;2,22;1,74;2,22;0;0;
9251;-24,7;-38,62;-24,7;-38,62;1,78;2,28;1,78;2,28;0;0;
9267;-13,42;-43,89;-13,42;-43,89;1,98;2,45;1,98;2,45;0;0;
9285;-13,42;-43,89;-13,42;-43,89;2,14;2,65;2,14;2,65;0;0;
9303;-26,29;-42,62;-26,29;-42,62;2,16;2,66;2,16;2,66;0;0;
9320;-25,2;-34,92;-25,2;-34,92;2,24;2,57;2,24;2,57;0;0;
9339;-30,58;-38,4;-30,58;-38,4;2,84;2,54;2,84;2,54;0;0;
9356;-17,53;-38,91;-17,53;-38,91;3,12;2,22;3,12;2,22;0;0;
9373;-28,18;-43,35;-28,18;-43,35;3,25;2,13;3,25;2,13;0;0;
9390;-24,35;-42,58;-24,35;-42,58;3,29;2,28;3,29;2,28;0;0;
9408;-24,53;-41,2;-24,53;-41,2;4,2;2,2;4,2;2,2;0;0;
9427;-17,41;-39,28;-17,41;-39,28;4,38;2,22;4,38;2,22;0;0;
9444;-17,41;-39,28;-17,41;-39,28;4,09;2,1;4,09;2,1;0;0;
9460;-25,35;-40,44;-25,35;-40,44;3,81;2,16;3,81;2,16;0;0;
9477;-26,11;-39,16;-26,11;-39,16;3,92;2;3,92;2;0;0;
9497;-37,51;-43,4;-37,51;-43,4;5,38;2,07;5,38;2,07;0;0;
9515;-11,19;-35,66;-11,19;-35,66;6,53;2,04;6,53;2,04;0;0;
9535;-30,72;-37;-30,72;-37;8,04;2,12;8,04;2,12;0;0;
9555;-10,34;-42,45;-10,34;-42,45;8,41;2,27;8,41;2,27;0;0;
9572;-37,17;-40,23;-37,17;-40,23;10,81;2,19;10,81;2,19;0;0;
9590;-28,22;-38,65;-28,22;-38,65;14,07;2,17;14,07;2,17;0;0;
9606;-28,22;-38,65;-28,22;-38,65;17,34;2,07;17,34;2,07;0;0;
9623;-70,9;-42,11;-70,9;-42,11;18,95;1,96;18,95;1,96;0;0;
9640;-40,73;-39,88;-40,73;-39,88;23,06;1,93;23,06;1,93;0;0;
9657;-32,44;-40,26;-32,44;-40,26;26,97;2;26,97;2;0;0;
9674;-16,26;-43,76;-16,26;-43,76;24,03;2,12;24,03;2,12;0;0;
9691;-17,88;-40,84;-17,88;-40,84;21,26;2,35;21,26;2,35;0;0;
9709;-51,28;-42,34;-51,28;-42,34;20,5;2,49;20,5;2,49;1;0;
9728;-28,5;-38,3;-28,5;-38,3;18,19;2,48;18,19;2,48;1;0;
9748;-44,11;-41,07;-44,11;-41,07;20,39;2,27;20,39;2,27;1;0;
9763;-44,11;-41,07;-44,11;-41,07;21,56;2,06;21,56;2,06;1;0;
9783;-5,35;-39,99;-5,35;-39,99;20,13;2,06;20,13;2,06;1;0;
9800;-18,21;-42,09;-18,21;-42,09;20,9;2;20,9;2;1;0;
9818;32,2;-41;32,2;-41;19,67;1,97;19,67;1,97;1;0;
9835;-16,85;-40,61;-16,85;-40,61;19,63;1,99;19,63;1,99;1;0;
9856;-49,25;-42,56;-49,25;-42,56;20,27;2,27;20,27;2,27;1;0;
9872;-33,51;-44,81;-33,51;-44,81;19,08;2,47;19,08;2,47;1;0;
9893;-32,75;-35,95;-32,75;-35,95;19,02;2,6;19,02;2,6;1;0;
9914;-27,63;-41,13;-27,63;-41,13;21,55;2,33;21,55;2,33;1;0;
9933;-66,55;-37,32;-66,55;-37,32;21,5;2,42;21,5;2,42;1;0;
9953;-43,54;-38,77;-43,54;-38,77;20,29;2,25;20,29;2,25;1;0;
9969;-62,97;-43,14;-62,97;-43,14;19,14;2,13;19,14;2,13;1;0;
9989;-71,57;-37,55;-71,57;-37,55;21,49;2,22;21,49;2,22;1;0;
10005;-71,57;-37,55;-71,57;-37,55;24,23;2,27;24,23;2,27;1;0;
10024;-17,1;-41,01;-17,1;-41,01;20,91;2,5;20,91;2,5;1;0;
10041;-46,88;-39,52;-46,88;-39,52;20,55;2,54;20,55;2,54;1;0;
10060;-38,71;-40,31;-38,71;-40,31;21,75;2,68;21,75;2,68;0;0;
10075;-17,66;-40,17;-17,66;-40,17;22,59;2,77;22,59;2,77;0;0;
10093;-17,66;-40,17;-17,66;-40,17;21,67;2,75;21,67;2,75;0;0;
10111;18,03;-35,82;18,03;-35,82;22,37;2,73;22,37;2,73;0;0;
10131;-13,87;-36,95;-13,87;-36,95;23,01;2,28;23,01;2,28;0;0;
10151;-29,88;-43,32;-29,88;-43,32;21,74;2,35;21,74;2,35;0;0;
10168;19,79;-39,15;19,79;-39,15;22,23;2,16;22,23;2,16;0;0;
10185;19,79;-39,15;19,79;-39,15;22,52;2,03;22,52;2,03;0;0;
10202;10,81;-43,5;10,81;-43,5;21,31;1,93;21,31;1,93;0;0;
10220;24,66;-37,31;24,66;-37,31;21,75;2;21,75;2;0;0;
10237;-35,12;-40,03;-35,12;-40,03;20,87;2,37;20,87;2,37;0;0;
10255;-3,81;-40,62;-3,81;-40,62;22,86;2,07;22,86;2,07;0;0;
10272;-60,32;-39,48;-60,32;-39,48;21,57;2,02;21,57;2,02;0;0;
10299;-61,84;-38,62;-61,84;-38,62;22,07;2,24;22,07;2,24;0;0;
10320;-32,1;-43,29;-32,1;-43,29;25,17;2,17;25,17;2,17;0;0;
10339;-0,26;-40,39;-0,26;-40,39;24,46;1,86;24,46;1,86;0;0;
10373;3,91;-40,68;3,91;-40,68;24,22;1,89;24,22;1,89;0;0;
10392;-47,3;-41,09;-47,3;-41,09;27,3;1,86;27,3;1,86;0;0;
10409;-22,3;-35,2;-22,3;-35,2;26,66;2,11;26,66;2,11;0;0;
10431;-16,01;-38,29;-16,01;-38,29;19,15;2,05;19,15;2,05;0;0;
10449;-35,7;-43,77;-35,7;-43,77;17,99;1,96;17,99;1,96;0;0;
10465;-35,7;-43,77;-35,7;-43,77;20,75;1,75;20,75;1,75;0;0;
10483;-26,95;-42,58;-26,95;-42,58;21,99;2,08;21,99;2,08;0;0;
10498;-30,49;-41,25;-30,49;-41,25;22,55;1,91;22,55;1,91;0;0;
10515;-22,38;-37,54;-22,38;-37,54;22,75;1,9;22,75;1,9;0;0;
10532;-15,29;-39,93;-15,29;-39,93;25,25;2,15;25,25;2,15;0;0;
10550;-29,77;-36,6;-29,77;-36,6;23,84;2,1;23,84;2,1;0;0;
10567;-29,87;-44,37;-29,87;-44,37;20,48;2,44;20,48;2,44;0;0;
10584;-29,87;-44,37;-29,87;-44,37;19,71;2,67;19,71;2,67;0;0;
10601;-28,99;-42,21;-28,99;-42,21;17,3;2,74;17,3;2,74;0;0;
10621;-9,03;-40,78;-9,03;-40,78;16,01;2,62;16,01;2,62;0;0;
10638;-17,66;-37,65;-17,66;-37,65;12,96;2,65;12,96;2,65;0;0;
10657;-15,91;-40,25;-15,91;-40,25;10,92;2,51;10,92;2,51;0;0;
10674;-14,76;-42,65;-14,76;-42,65;10,19;2,19;10,19;2,19;0;0;
10693;-42,69;-36,83;-42,69;-36,83;11,6;2,01;11,6;2,01;0;0;
10709;-25,04;-44,41;-25,04;-44,41;11,65;2,04;11,65;2,04;0;0;
10727;-26,62;-34,41;-26,62;-34,41;10,77;2,11;10,77;2,11;0;0;
10743;-26,62;-34,41;-26,62;-34,41;9,95;2,26;9,95;2,26;0;0;
10759;-12,46;-40,61;-12,46;-40,61;10,64;2,39;10,64;2,39;0;0;
10780;-19,56;-40,95;-19,56;-40,95;10,09;2,52;10,09;2,52;0;0;
10798;-21,82;-38,93;-21,82;-38,93;6,06;2,52;6,06;2,52;0;0;
10816;-21,8;-42,92;-21,8;-42,92;5,35;2,39;5,35;2,39;0;0;
10834;-23,91;-34,23;-23,91;-34,23;5,99;2,34;5,99;2,34;0;0;
10852;-59,19;-40,05;-59,19;-40,05;8,03;2,21;8,03;2,21;0;0;
10868;-21,99;-36,28;-21,99;-36,28;6,55;2,35;6,55;2,35;0;0;
10885;-21,99;-36,28;-21,99;-36,28;6,16;2,25;6,16;2,25;0;0;
10904;-17,89;-42,75;-17,89;-42,75;6,84;2,25;6,84;2,25;0;0;
10921;-12,79;-38,67;-12,79;-38,67;7,75;2,17;7,75;2,17;0;0;
10938;-28,9;-35,24;-28,9;-35,24;7,51;2,12;7,51;2,12;0;0;
10955;-12,67;-35,76;-12,67;-35,76;7,5;2,14;7,5;2,14;0;0;
10972;-17,8;-42,03;-17,8;-42,03;8,67;2,06;8,67;2,06;0;0;
10991;-15,4;-36,38;-15,4;-36,38;8,95;2,11;8,95;2,11;0;0;
11009;-19,6;-40,96;-19,6;-40,96;8,01;2,22;8,01;2,22;0;0;
11028;-26,24;-40,85;-26,24;-40,85;6,78;2,02;6,78;2,02;0;0;
11044;-26,24;-40,85;-26,24;-40,85;6,23;1,79;6,23;1,79;0;0;
11063;-41,73;-38,47;-41,73;-38,47;4,94;1,53;4,94;1,53;0;0;
11082;-12,19;-42,93;-12,19;-42,93;7,66;1,65;7,66;1,65;0;0;
11099;-13,65;-39,99;-13,65;-39,99;8,37;1,67;8,37;1,67;0;0;
11116;-12,65;-35,3;-12,65;-35,3;10,26;1,76;10,26;1,76;0;0;
11135;-41,35;-38,15;-41,35;-38,15;12,11;1,88;12,11;1,88;0;0;
11152;-25,48;-40,32;-25,48;-40,32;16,85;1,82;16,85;1,82;0;0;
11169;-72,51;-39,09;-72,51;-39,09;15,93;2,01;15,93;2,01;0;0;
11188;-14,97;-41,76;-14,97;-41,76;20,61;1,85;20,61;1,85;0;0;
11204;-14,97;-41,76;-14,97;-41,76;24,86;1,71;24,86;1,71;0;0;
11223;-34,31;-38,65;-34,31;-38,65;24,28;1,78;24,28;1,78;0;0;
11240;-35,78;-40,08;-35,78;-40,08;23,37;1,88;23,37;1,88;0;0;
11258;-7,33;-40,36;-7,33;-40,36;19,82;1,93;19,82;1,93;0;0;
11276;65,85;-36,26;65,85;-36,26;21,6;2,07;21,6;2,07;0;0;
11294;-13,38;-36,44;-13,38;-36,44;16,32;1,98;16,32;1,98;0;0;
11313;4,57;-40,37;4,57;-40,37;15,45;1,94;15,45;1,94;0;0;
11331;-35,32;-37,19;-35,32;-37,19;19,84;1,91;19,84;1,91;0;0;
11349;-45,14;-46,2;-45,14;-46,2;21,8;1,95;21,8;1,95;0;0;
11367;15,54;-39,19;15,54;-39,19;24,65;1,83;24,65;1,83;0;0;
11384;15,54;-39,19;15,54;-39,19;26,2;1,81;26,2;1,81;0;0;
11400;-59,03;-40,14;-59,03;-40,14;30,46;1,82;30,46;1,82;0;0;
11419;-50,04;-34,14;-50,04;-34,14;29,65;1,91;29,65;1,91;0;0;
11436;-22,29;-42,1;-22,29;-42,1;26,79;1,83;26,79;1,83;0;0;
11454;-20,47;-42,47;-20,47;-42,47;29,35;1,78;29,35;1,78;0;0;
11470;57,79;-40,27;57,79;-40,27;30,25;1,73;30,25;1,73;0;0;
11490;-24,98;-43,34;-24,98;-43,34;28,7;1,76;28,7;1,76;0;0;
11508;76,56;-39,65;76,56;-39,65;28,29;1,88;28,29;1,88;0;0;
11525;76,56;-39,65;76,56;-39,65;26,85;1,81;26,85;1,81;0;0;
11542;-65,01;-42,08;-65,01;-42,08;26,74;1,78;26,74;1,78;0;0;
11561;6,27;-40,77;6,27;-40,77;28,34;1,85;28,34;1,85;0;0;
11579;2,26;-41,8;2,26;-41,8;28,22;1,95;28,22;1,95;1;0;
11597;-69,1;-40,36;-69,1;-40,36;31,72;1,91;31,72;1,91;1;0;
11615;43,88;-35,72;43,88;-35,72;33,44;2,19;33,44;2,19;1;0;
11636;-42,26;-37,65;-42,26;-37,65;32,03;2,41;32,03;2,41;0;0;
11657;-45,11;-42,35;-45,11;-42,35;31,48;2,3;31,48;2,3;0;0;
11677;-11,33;-42,36;-11,33;-42,36;24,58;2,45;24,58;2,45;0;0;
11696;-22,54;-37,92;-22,54;-37,92;20,91;2,29;20,91;2,29;0;0;
11716;24,81;-38,68;24,81;-38,68;20,92;1,99;20,92;1,99;0;0;
11736;-61,01;-38,05;-61,01;-38,05;23,27;1,73;23,27;1,73;0;0;
11754;-53,3;-44,83;-53,3;-44,83;23,02;1,89;23,02;1,89;0;0;
11774;-22,9;-38,47;-22,9;-38,47;19,91;1,94;19,91;1,94;0;0;
11794;-27,26;-41,08;-27,26;-41,08;20,7;1,92;20,7;1,92;0;0;
11812;-0,52;-38,37;-0,52;-38,37;21,72;2,02;21,72;2,02;0;0;
11830;-46,26;-34,26;-46,26;-34,26;22,74;2,18;22,74;2,18;0;0;
11848;33,59;-39,77;33,59;-39,77;20,57;2,19;20,57;2,19;0;0;
11864;33,59;-39,77;33,59;-39,77;23,48;2,12;23,48;2,12;0;0;
11882;32,32;-36,94;32,32;-36,94;23,67;1,99;23,67;1,99;0;0;
11901;23,23;-42,97;23,23;-42,97;26,82;2,21;26,82;2,21;0;0;
11918;-10,39;-41,85;-10,39;-41,85;31,48;2,27;31,48;2,27;0;0;
11937;-41,25;-41,87;-41,25;-41,87;29,02;2,19;29,02;2,19;0;0;
11961;-33,47;-39,17;-33,47;-39,17;29,2;2,12;29,2;2,12;0;0;
11980;55,81;-38,79;55,81;-38,79;30,3;2,45;30,3;2,45;0;0;
11996;-42,97;-41,35;-42,97;-41,35;31,97;2,33;31,97;2,33;0;0;
12014;-16,41;-40,27;-16,41;-40,27;31,1;2,32;31,1;2,32;0;0;
12032;-8,69;-38,3;-8,69;-38,3;26,88;2,35;26,88;2,35;0;0;
12050;-44,73;-38,67;-44,73;-38,67;28,84;2,29;28,84;2,29;0;0;
12069;-43,27;-40,6;-43,27;-40,6;27,53;2,09;27,53;2,09;0;0;
12087;-73,96;-35,36;-73,96;-35,36;25,88;2,24;25,88;2,24;0;0;
12104;-73,96;-35,36;-73,96;-35,36;26,23;2,43;26,23;2,43;0;0;
12121;-11,01;-40,72;-11,01;-40,72;26,25;2,31;26,25;2,31;0;0;
12139;5,17;-38,07;5,17;-38,07;25,87;2,31;25,87;2,31;0;0;
12158;11,12;-41,83;11,12;-41,83;27,96;2,23;27,96;2,23;0;0;
12175;-19,73;-39,66;-19,73;-39,66;28,74;2,04;28,74;2,04;0;0;
12192;-10,44;-46,35;-10,44;-46,35;25,3;1,89;25,3;1,89;0;0;
12212;3,79;-35,77;3,79;-35,77;26,11;1,91;26,11;1,91;0;0;
12232;-67,32;-40,47;-67,32;-40,47;26,71;1,97;26,71;1,97;0;0;
12248;-26,16;-41,44;-26,16;-41,44;26,39;1,97;26,39;1,97;0;0;
12264;-26,16;-41,44;-26,16;-41,44;24,02;2,17;24,02;2,17;0;0;
12281;-8,8;-38,19;-8,8;-38,19;26,46;2,26;26,46;2,26;0;0;
12299;-4,8;-43,74;-4,8;-43,74;24,94;2,12;24,94;2,12;0;0;
12315;-13,4;-42,81;-13,4;-42,81;22,88;2,01;22,88;2,01;0;0;
12334;-24,7;-40,26;-24,7;-40,26;23,61;1,83;23,61;1,83;0;0;
12352;-13,83;-38,16;-13,83;-38,16;21,28;1,7;21,28;1,7;0;0;
12368;-36,84;-38,91;-36,84;-38,91;19,49;1,76;19,49;1,76;0;0;
12386;-36,84;-38,91;-36,84;-38,91;19,32;1,87;19,32;1,87;0;0;
12402;-51,78;-40,29;-51,78;-40,29;23,15;1,89;23,15;1,89;0;0;
12420;-25,13;-35,64;-25,13;-35,64;21,19;2,11;21,19;2,11;0;0;
12439;-18,21;-41,13;-18,21;-41,13;20,9;2,29;20,9;2,29;0;0;
12456;21,77;-38,79;21,77;-38,79;23,18;2,19;23,18;2,19;0;0;
12473;-17,71;-37,15;-17,71;-37,15;20,9;2,15;20,9;2,15;0;0;
12493;-48,76;-38,64;-48,76;-38,64;16,47;2;16,47;2;0;0;
12512;-57,06;-41,78;-57,06;-41,78;15,11;1,91;15,11;1,91;0;0;
12530;-58,99;-39,29;-58,99;-39,29;16,4;1,68;16,4;1,68;0;0;
12552;-33;-35,58;-33;-35,58;20,41;1,79;20,41;1,79;0;0;
12568;-18,06;-40,83;-18,06;-40,83;21,3;1,91;21,3;1,91;0;0;
12585;-18,06;-40,83;-18,06;-40,83;24,85;1,93;24,85;1,93;0;0;
12600;-16,6;-37,26;-16,6;-37,26;22,79;1,97;22,79;1,97;0;0;
12618;-42,2;-41;-42,2;-41;22,04;2,11;22,04;2,11;0;0;
12635;-67,2;-36,56;-67,2;-36,56;19,72;2,23;19,72;2,23;0;0;
12653;-29,94;-37,31;-29,94;-37,31;19,84;2,05;19,84;2,05;0;0;
12670;-46,42;-37,31;-46,42;-37,31;20,83;2,11;20,83;2,11;0;0;
12687;-26,85;-39,62;-26,85;-39,62;18,81;2,03;18,81;2,03;0;0;
12704;-26,85;-39,62;-26,85;-39,62;15,91;1,98;15,91;1,98;0;0;
12721;-48,94;-36,45;-48,94;-36,45;19,87;2,06;19,87;2,06;0;0;
12743;-34,84;-36,7;-34,84;-36,7;16,45;2,13;16,45;2,13;0;0;
12761;-111,11;-41,96;-111,11;-41,96;15,35;2,32;15,35;2,32;0;0;
12783;-47,59;-43,2;-47,59;-43,2;14,65;2,19;14,65;2,19;0;0;
12800;-13,97;-37,57;-13,97;-37,57;15,86;2,29;15,86;2,29;0;0;
12818;-42,93;-39,35;-42,93;-39,35;14,99;2,29;14,99;2,29;0;0;
12836;-20,42;-43,61;-20,42;-43,61;17,33;2,13;17,33;2,13;0;0;
12853;-21,33;-38,23;-21,33;-38,23;19,13;2,07;19,13;2,07;0;0;
12870;-33,84;-41,57;-33,84;-41,57;16,78;2;16,78;2;0;0;
12890;-16,19;-40,33;-16,19;-40,33;20,97;1,96;20,97;1,96;0;0;
12909;-81,59;-37,76;-81,59;-37,76;23,81;1,89;23,81;1,89;0;0;
12925;-81,59;-37,76;-81,59;-37,76;23,68;1,66;23,68;1,66;0;0;
12943;27,6;-35,95;27,6;-35,95;18,99;1,66;18,99;1,66;0;0;
12960;-24,27;-37,18;-24,27;-37,18;19,36;1,65;19,36;1,65;0;0;
12980;13,24;-39,37;13,24;-39,37;20,44;1,68;20,44;1,68;0;0;
12997;-4,78;-43,09;-4,78;-43,09;18,53;1,77;18,53;1,77;0;0;
13016;-23,83;-34,54;-23,83;-34,54;18,03;1,89;18,03;1,89;0;0;
13035;46,66;-45,16;46,66;-45,16;20,07;2,11;20,07;2,11;0;0;
13055;-54,48;-38,41;-54,48;-38,41;19,08;2,19;19,08;2,19;0;0;
13072;-1,38;-34,74;-1,38;-34,74;23,9;2,37;23,9;2,37;0;0;
13089;-34,55;-40,91;-34,55;-40,91;21;2,51;21;2,51;0;0;
13106;-34,55;-40,91;-34,55;-40,91;19,32;2,76;19,32;2,76;0;0;
13125;-46,37;-41,36;-46,37;-41,36;17,86;2,54;17,86;2,54;0;0;
13144;-14,07;-40,81;-14,07;-40,81;15,47;2,25;15,47;2,25;0;0;
13162;6,63;-40,3;6,63;-40,3;12,8;2,18;12,8;2,18;0;0;
13179;-14,4;-38,27;-14,4;-38,27;15,09;1,97;15,09;1,97;0;0;
13196;-20,2;-41,79;-20,2;-41,79;14,43;1,75;14,43;1,75;0;0;
13215;-2,68;-41;-2,68;-41;13,93;1,78;13,93;1,78;0;0;
13231;-8,68;-38,04;-8,68;-38,04;13,62;1,65;13,62;1,65;0;0;
13253;-17,15;-37,5;-17,15;-37,5;12,75;1,62;12,75;1,62;0;0;
13271;-45,45;-43,33;-45,45;-43,33;12,67;1,54;12,67;1,54;0;0;
13288;-43,04;-38,18;-43,04;-38,18;16,38;1,62;16,38;1,62;0;0;
13307;-30,19;-40,43;-30,19;-40,43;17,74;1,65;17,74;1,65;0;0;
13323;-30,19;-40,43;-30,19;-40,43;17,86;1,78;17,86;1,78;0;0;
13341;14,29;-41,12;14,29;-41,12;18,74;2,07;18,74;2,07;0;0;
13360;-57,48;-38,28;-57,48;-38,28;20,16;2,03;20,16;2,03;0;0;
13380;-89,77;-38,62;-89,77;-38,62;20,27;1,81;20,27;1,81;0;0;
13396;-30,81;-42,78;-30,81;-42,78;19,02;1,86;19,02;1,86;0;0;
13415;-20,38;-36,59;-20,38;-36,59;20,96;1,77;20,96;1,77;0;0;
13435;-50,22;-40,61;-50,22;-40,61;22,67;1,62;22,67;1,62;0;0;
13456;-57,55;-40,74;-57,55;-40,74;24,48;1,73;24,48;1,73;0;0;
13475;-37,89;-39,64;-37,89;-39,64;24,61;1,7;24,61;1,7;1;0;
13492;-10,39;-33,61;-10,39;-33,61;19,39;1,84;19,39;1,84;1;0;
13511;-35,65;-39,25;-35,65;-39,25;20,16;1,79;20,16;1,79;1;0;
13532;63,29;-35,33;63,29;-35,33;20,28;1,89;20,28;1,89;1;0;
13550;-6,67;-43,2;-6,67;-43,2;21,56;1,89;21,56;1,89;1;0;
13569;-9,5;-39,14;-9,5;-39,14;19,39;1,81;19,39;1,81;1;0;
13588;8,55;-41,11;8,55;-41,11;20,41;1,83;20,41;1,83;1;0;
13604;8,55;-41,11;8,55;-41,11;20,3;1,7;20,3;1,7;1;0;
13627;6,12;-38,82;6,12;-38,82;22,49;1,69;22,49;1,69;1;0;
13646;6,12;-38,82;6,12;-38,82;21,14;1,44;21,14;1,44;1;0;
13662;-27,59;-39,92;-27,59;-39,92;19,41;1,63;19,41;1,63;1;0;
13680;-57,24;-39,03;-57,24;-39,03;18,73;1,69;18,73;1,69;1;0;
13700;-58,99;-37,57;-58,99;-37,57;18,87;1,62;18,87;1,62;1;0;
13719;-46,89;-39,8;-46,89;-39,8;19,8;1,72;19,8;1,72;1;0;
13735;-40,95;-40,63;-40,95;-40,63;17,22;1,79;17,22;1,79;1;0;
13753;32,66;-41,59;32,66;-41,59;27,67;1,76;27,67;1,76;1;0;
13771;-14,89;-36,39;-14,89;-36,39;28,68;1,61;28,68;1,61;1;0;
13791;-53,97;-39,17;-53,97;-39,17;28,99;1,73;28,99;1,73;1;0;
13807;0,8;-40,02;0,8;-40,02;27,56;1,7;27,56;1,7;1;0;
13825;0,8;-40,02;0,8;-40,02;27,81;1,62;27,81;1,62;1;0;
13841;-35,72;-43,69;-35,72;-43,69;28,06;1,67;28,06;1,67;0;0;
13858;-49,15;-40,13;-49,15;-40,13;22,23;1,93;22,23;1,93;0;0;
13877;-38,81;-42,47;-38,81;-42,47;21,15;1,88;21,15;1,88;0;0;
13896;23,95;-36,1;23,95;-36,1;26,37;1,98;26,37;1,98;0;0;
13916;-42,56;-37,69;-42,56;-37,69;26,64;2,24;26,64;2,24;0;0;
13933;-54,46;-42,92;-54,46;-42,92;26,8;2,33;26,8;2,33;0;0;
13951;-22,63;-40,43;-22,63;-40,43;25,56;2,17;25,56;2,17;0;0;
13971;-33,93;-40,64;-33,93;-40,64;24,76;2,3;24,76;2,3;0;0;
13990;-40,69;-35,79;-40,69;-35,79;23,8;2,31;23,8;2,31;0;0;
14007;-19,93;-38,1;-19,93;-38,1;26,37;2,37;26,37;2,37;0;0;
14023;-19,93;-38,1;-19,93;-38,1;31,67;2,36;31,67;2,36;0;0;
14041;-72,01;-41,38;-72,01;-41,38;29,98;2,29;29,98;2,29;0;0;
14059;0;-37,88;0;-37,88;36,53;2,43;36,53;2,43;0;0;
14076;-13,99;-38,08;-13,99;-38,08;35,15;2,22;35,15;2,22;0;0;
14095;-41,34;-44,66;-41,34;-44,66;32,67;1,98;32,67;1,98;0;0;
14113;20,83;-33,64;20,83;-33,64;35,21;2,28;35,21;2,28;0;0;
14130;-37,93;-34,46;-37,93;-34,46;31,86;2,36;31,86;2,36;0;0;
14149;0,72;-39,39;0,72;-39,39;30,03;2,34;30,03;2,34;0;0;
14169;-14,96;-38,89;-14,96;-38,89;23,19;2,33;23,19;2,33;0;0;
14185;-14,96;-38,89;-14,96;-38,89;23,53;2,3;23,53;2,3;0;0;
14201;-17,77;-39,16;-17,77;-39,16;27,19;2,43;27,19;2,43;0;0;
14220;-14,66;-41,61;-14,66;-41,61;19,47;2,14;19,47;2,14;0;0;
14236;-89,24;-39,43;-89,24;-39,43;21,83;2,3;21,83;2,3;0;0;
14253;-19,58;-40,87;-19,58;-40,87;22,03;2,55;22,03;2,55;0;0;
14271;-13,65;-39,55;-13,65;-39,55;21,94;2,76;21,94;2,76;0;0;
14288;130,82;-39,3;130,82;-39,3;26,51;2,87;26,51;2,87;0;0;
14304;130,82;-39,3;130,82;-39,3;29,73;2,52;29,73;2,52;0;0;
14320;-10,39;-37,12;-10,39;-37,12;29,03;2,7;29,03;2,7;0;0;
14340;-37,51;-40,57;-37,51;-40,57;27,92;2,92;27,92;2,92;0;0;
14358;2,72;-39,63;2,72;-39,63;29,09;2,63;29,09;2,63;0;0;
14375;-68,58;-39,17;-68,58;-39,17;34,51;2,33;34,51;2,33;0;0;
14394;-61,3;-40,76;-61,3;-40,76;28,85;2,21;28,85;2,21;0;0;
14411;-126;-39,28;-126;-39,28;24,2;2,29;24,2;2,29;1;0;
14428;-95,24;-38,55;-95,24;-38,55;29,3;1,72;29,3;1,72;1;0;
14446;-95,24;-38,55;-95,24;-38,55;32,44;1,48;32,44;1,48;1;0;
14463;-9,32;-42,68;-9,32;-42,68;28,08;1,6;28,08;1,6;1;0;
14479;-9,32;-42,68;-9,32;-42,68;25,64;1,68;25,64;1,68;1;0;
14497;-67,23;-33,97;-67,23;-33,97;23,26;1,62;23,26;1,62;1;0;
14515;-22,28;-40,25;-22,28;-40,25;19,22;1,99;19,22;1,99;1;0;
14532;0,56;-39,63;0,56;-39,63;23,42;2,01;23,42;2,01;1;0;
14550;-68,68;-42,57;-68,68;-42,57;26,6;2,25;26,6;2,25;1;0;
14566;-68,68;-42,57;-68,68;-42,57;30,24;2,37;30,24;2,37;1;0;
14586;-42,19;-42,35;-42,19;-42,35;28,73;2,54;28,73;2,54;1;0;
14603;-94,23;-38,09;-94,23;-38,09;29,09;2,59;29,09;2,59;1;0;
14620;-22,28;-36,16;-22,28;-36,16;33;2,37;33;2,37;1;0;
14638;-23,17;-36,11;-23,17;-36,11;30,96;2,49;30,96;2,49;1;0;
14656;-8,78;-37,92;-8,78;-37,92;28,69;2,15;28,69;2,15;1;0;
14674;-30,95;-42,6;-30,95;-42,6;26,9;1,95;26,9;1,95;1;0;
14693;-52,95;-39,62;-52,95;-39,62;27,69;1,81;27,69;1,81;1;0;
14711;-17,64;-38,28;-17,64;-38,28;25,04;1,59;25,04;1,59;1;0;
14731;-26,09;-39,39;-26,09;-39,39;21,34;1,56;21,34;1,56;1;0;
14748;-57,43;-39,14;-57,43;-39,14;26,48;1,43;26,48;1,43;1;0;
14769;-25,81;-37,54;-25,81;-37,54;29,03;1,39;29,03;1,39;0;0;
14791;-1,86;-41,78;-1,86;-41,78;29,75;1,36;29,75;1,36;0;0;
14809;-24,7;-35,96;-24,7;-35,96;24,34;1,44;24,34;1,44;0;0;
14827;-11,75;-42,44;-11,75;-42,44;26,46;1,56;26,46;1,56;0;0;
14845;-11,75;-42,44;-11,75;-42,44;24,17;1,62;24,17;1,62;0;0;
14866;-100,58;-40,05;-100,58;-40,05;19,23;1,89;19,23;1,89;0;0;
14884;-32,97;-37,47;-32,97;-37,47;21,41;1,91;21,41;1,91;0;0;
14902;-33,24;-39,3;-33,24;-39,3;19,57;2,06;19,57;2,06;0;0;
14920;-30,05;-41,22;-30,05;-41,22;19,13;2,06;19,13;2,06;0;0;
14940;15,96;-36,3;15,96;-36,3;19,03;2,15;19,03;2,15;0;0;
14959;19,44;-39,04;19,44;-39,04;23,81;2,27;23,81;2,27;0;0;
14976;-22,42;-44,02;-22,42;-44,02;22,15;2,15;22,15;2,15;0;0;
14992;-11,22;-39,34;-11,22;-39,34;21,75;2,27;21,75;2,27;0;0;
15010;-58,19;-37,68;-58,19;-37,68;23,3;2,14;23,3;2,14;0;0;
15027;-31,87;-42,04;-31,87;-42,04;23,41;2,11;23,41;2,11;0;0;
15044;-31,87;-42,04;-31,87;-42,04;21,08;1,9;21,08;1,9;0;0;
15063;-4,8;-38,41;-4,8;-38,41;21,11;1,86;21,11;1,86;0;0;
15083;1,08;-35,99;1,08;-35,99;23,41;1,82;23,41;1,82;0;0;
15100;-43,21;-34,16;-43,21;-34,16;19,36;1,97;19,36;1,97;0;0;
15117;-59,91;-42,68;-59,91;-42,68;23,01;1,98;23,01;1,98;0;0;
15135;-11,74;-37,2;-11,74;-37,2;21,95;1,98;21,95;1,98;0;0;
15153;58,91;-37,37;58,91;-37,37;22,71;2,03;22,71;2,03;0;0;
15171;-28,28;-39,08;-28,28;-39,08;23,25;2,21;23,25;2,21;0;0;
15189;-26,32;-39,13;-26,32;-39,13;23,81;2,23;23,81;2,23;0;0;
15207;-39,42;-38,39;-39,42;-38,39;22,09;2,17;22,09;2,17;0;0;
15225;-39,42;-38,39;-39,42;-38,39;20,07;2,33;20,07;2,33;0;0;
15241;-19,07;-40,24;-19,07;-40,24;25,54;2,48;25,54;2,48;0;0;
15263;-80,81;-35,45;-80,81;-35,45;26,87;2,55;26,87;2,55;0;0;
15281;-26,94;-44,96;-26,94;-44,96;27,29;2,46;27,29;2,46;0;0;
15299;-34,46;-40,26;-34,46;-40,26;26;2,26;26;2,26;0;0;
15316;-64,88;-40,49;-64,88;-40,49;26,32;2,18;26,32;2,18;0;0;
15335;-17,5;-36,25;-17,5;-36,25;25,03;2,26;25,03;2,26;0;0;
15354;-18,59;-44,66;-18,59;-44,66;22,78;2,21;22,78;2,21;0;0;
15373;-19,53;-38,87;-19,53;-38,87;18,71;2,15;18,71;2,15;0;0;
15390;-45,62;-41,86;-45,62;-41,86;21,29;2,2;21,29;2,2;0;0;
15406;-45,62;-41,86;-45,62;-41,86;23,95;2,23;23,95;2,23;0;0;
15424;-13,77;-35,36;-13,77;-35,36;24,76;2,08;24,76;2,08;1;0;
15444;-6,5;-39,9;-6,5;-39,9;26,5;2,16;26,5;2,16;1;0;
15462;-3,12;-41;-3,12;-41;26,64;2,33;26,64;2,33;1;0;
15481;-40,35;-34,52;-40,35;-34,52;27,22;2,67;27,22;2,67;1;0;
15498;-37,27;-39,37;-37,27;-39,37;28,27;2,78;28,27;2,78;1;0;
15516;-12,96;-41,71;-12,96;-41,71;28,09;2,61;28,09;2,61;1;0;
15534;-90,58;-38,97;-90,58;-38,97;28,84;2,85;28,84;2,85;1;0;
15554;20,13;-42,6;20,13;-42,6;29,01;2,63;29,01;2,63;1;0;
15572;7,05;-41,3;7,05;-41,3;33,04;2,43;33,04;2,43;1;0;
15593;45,9;-37,6;45,9;-37,6;32,01;2,17;32,01;2,17;1;0;
15610;-24,92;-33,56;-24,92;-33,56;31,19;2,24;31,19;2,24;1;0;
15628;-2,85;-37,33;-2,85;-37,33;33,73;2,39;33,73;2,39;1;0;
15644;-2,85;-37,33;-2,85;-37,33;32,04;2,52;32,04;2,52;1;0;
15662;75,17;-37,2;75,17;-37,2;32,39;2,53;32,39;2,53;1;0;
15680;26,15;-38,44;26,15;-38,44;29,98;2,73;29,98;2,73;1;0;
15697;-23,72;-38,6;-23,72;-38,6;35,33;2,63;35,33;2,63;1;0;
15713;20,49;-40,11;20,49;-40,11;33,71;2,63;33,71;2,63;1;0;
15730;-55,93;-39,26;-55,93;-39,26;33,64;2,42;33,64;2,42;1;0;
15748;-19,05;-44,42;-19,05;-44,42;34,65;2,05;34,65;2,05;1;0;
15767;-24,34;-39,83;-24,34;-39,83;31,94;2,03;31,94;2,03;0;0;
15787;-24,34;-39,83;-24,34;-39,83;27,81;2;27,81;2;0;0;
15809;-80,24;-41,53;-80,24;-41,53;29,28;2,11;29,28;2,11;0;0;
15829;3,2;-34,97;3,2;-34,97;26,69;1,97;26,69;1,97;0;0;
15847;-37,48;-38,85;-37,48;-38,85;24,96;2,27;24,96;2,27;0;0;
15863;-37,48;-38,85;-37,48;-38,85;23,81;2,41;23,81;2,41;0;0;
15881;-116,76;-38,31;-116,76;-38,31;28,45;2,22;28,45;2,22;0;0;
15902;-59,45;-45,21;-59,45;-45,21;25,95;2,35;25,95;2,35;0;0;
15923;-16,01;-41,97;-16,01;-41,97;24,34;2,14;24,34;2,14;0;0;
15940;-61,36;-41,67;-61,36;-41,67;29,14;2,07;29,14;2,07;0;0;
15958;-10,25;-40;-10,25;-40;28,44;2,12;28,44;2,12;0;0;
15976;-14,55;-39,9;-14,55;-39,9;26,41;1,95;26,41;1,95;0;0;
15993;50,56;-38,91;50,56;-38,91;29,21;1,84;29,21;1,84;0;0;
16009;-6,19;-39,35;-6,19;-39,35;31,1;1,92;31,1;1,92;0;0;
16027;-54,18;-38,93;-54,18;-38,93;33,69;1,95;33,69;1,95;0;0;
16044;-54,18;-38,93;-54,18;-38,93;34,64;1,87;34,64;1,87;0;0;
16062;-49,81;-43,12;-49,81;-43,12;36,54;1,65;36,54;1,65;0;0;
16079;-57,67;-39,9;-57,67;-39,9;35,09;1,97;35,09;1,97;0;0;
16098;21,94;-38,02;21,94;-38,02;32,81;1,9;32,81;1,9;0;0;
16115;-23,21;-37,83;-23,21;-37,83;30,12;1,83;30,12;1,83;0;0;
16134;-99,69;-36,66;-99,69;-36,66;27,72;1,81;27,72;1,81;0;0;
16150;-102,33;-38,69;-102,33;-38,69;28,74;1,91;28,74;1,91;0;0;
16168;2,83;-38,34;2,83;-38,34;35,54;1,73;35,54;1,73;0;0;
16185;2,83;-38,34;2,83;-38,34;40,33;1,68;40,33;1,68;0;0;
16202;-48,06;-34,13;-48,06;-34,13;40,83;1,74;40,83;1,74;0;0;
16221;-12,37;-39,16;-12,37;-39,16;39,9;1,83;39,9;1,83;0;0;
16238;-57,75;-38,79;-57,75;-38,79;39,5;1,97;39,5;1,97;0;0;
16256;-27,92;-41,56;-27,92;-41,56;35,06;2,2;35,06;2,2;0;0;
16274;-2,13;-38,95;-2,13;-38,95;29,59;2,25;29,59;2,25;0;0;
16294;-82,1;-41,46;-82,1;-41,46;27,59;2,55;27,59;2,55;0;0;
16311;-33,74;-38,62;-33,74;-38,62;25,18;2,44;25,18;2,44;0;0;
16330;-52,84;-36,8;-52,84;-36,8;26,22;2,37;26,22;2,37;0;0;
16348;20,18;-41,6;20,18;-41,6;27,71;2,4;27,71;2,4;0;0;
16364;20,18;-41,6;20,18;-41,6;31,62;2,39;31,62;2,39;0;0;
16381;-59,93;-40,25;-59,93;-40,25;31;2,24;31;2,24;0;0;
16397;-48,6;-40,1;-48,6;-40,1;27,27;2,17;27,27;2,17;0;0;
16416;-30,41;-41,47;-30,41;-41,47;25,77;2,14;25,77;2,14;0;0;
16432;8,22;-39,83;8,22;-39,83;23,1;2,09;23,1;2,09;0;0;
16449;7,93;-41,73;7,93;-41,73;25,25;2;25,25;2;0;0;
16466;7,93;-41,73;7,93;-41,73;25,69;1,84;25,69;1,84;0;0;
16484;-2,91;-38,79;-2,91;-38,79;24,8;1,84;24,8;1,84;0;0;
16502;-41,58;-35,13;-41,58;-35,13;24,88;1,98;24,88;1,98;0;0;
16519;-52,74;-44,23;-52,74;-44,23;26,94;2,05;26,94;2,05;0;0;
16537;19,49;-32,5;19,49;-32,5;26,22;2,43;26,22;2,43;0;0;
16553;-47,84;-38,66;-47,84;-38,66;21,21;2,6;21,21;2,6;0;0;
16572;-30,63;-42,33;-30,63;-42,33;23,02;2,83;23,02;2,83;0;0;
16588;-38,78;-38,67;-38,78;-38,67;21,56;2,62;21,56;2,62;0;0;
16604;-38,78;-38,67;-38,78;-38,67;18,99;2,34;18,99;2,34;0;0;
16621;-73,77;-38,41;-73,77;-38,41;17,65;2,26;17,65;2,26;0;0;
16638;20,96;-44,65;20,96;-44,65;19,24;1,97;19,24;1,97;0;0;
16659;-29,53;-39,5;-29,53;-39,5;15,36;1,97;15,36;1,97;0;0;
16675;-20,42;-38,26;-20,42;-38,26;14,72;1,79;14,72;1,79;0;0;
16695;43,94;-40,12;43,94;-40,12;17,85;1,96;17,85;1,96;0;0;
16712;-35,2;-44,8;-35,2;-44,8;23,06;2,06;23,06;2,06;0;0;
16729;-46;-39,53;-46;-39,53;25,49;2,04;25,49;2,04;0;0;
16749;-34,15;-38,63;-34,15;-38,63;22,9;2,13;22,9;2,13;0;0;
16767;-23,98;-44,62;-23,98;-44,62;24,1;2,18;24,1;2,18;0;0;
16788;-31,51;-39,63;-31,51;-39,63;23,79;2;23,79;2;0;0;
16805;-31,51;-39,63;-31,51;-39,63;19,53;1,88;19,53;1,88;0;0;
16822;-26,44;-38,13;-26,44;-38,13;13,16;1,86;13,16;1,86;0;0;
16839;-26,42;-39,46;-26,42;-39,46;11,71;1,83;11,71;1,83;0;0;
16883;-38,43;-38,78;-38,43;-38,78;10,59;1,61;10,59;1,61;0;0;
16903;-8,23;-40,63;-8,23;-40,63;10,34;1,59;10,34;1,59;0;0;
16923;-58,59;-40,08;-58,59;-40,08;10,57;1,62;10,57;1,62;0;0;
16945;-21,2;-43,32;-21,2;-43,32;9,82;1,79;9,82;1,79;0;0;
16963;-9,53;-39,27;-9,53;-39,27;10,7;1,73;10,7;1,73;0;0;
16982;-21,96;-37,96;-21,96;-37,96;11,99;1,93;11,99;1,93;0;0;
17003;-10,39;-42,82;-10,39;-42,82;11,28;2,12;11,28;2,12;0;0;
17024;-14,64;-36,05;-14,64;-36,05;10,19;2,3;10,19;2,3;0;0;
17042;-13,57;-40,02;-13,57;-40,02;9,96;2,45;9,96;2,45;0;0;
17062;-18,52;-40,47;-18,52;-40,47;12,11;2,44;12,11;2,44;0;0;
17078;10,2;-42,6;10,2;-42,6;16,09;2,35;16,09;2,35;0;0;
17096;-31,53;-41,75;-31,53;-41,75;18,83;2,3;18,83;2,3;0;0;
17113;-10,83;-38,56;-10,83;-38,56;20,73;2,12;20,73;2,12;0;0;
17131;-61,97;-37,21;-61,97;-37,21;22,62;1,98;22,62;1,98;0;0;
17148;-39,48;-38,02;-39,48;-38,02;26,22;1,97;26,22;1,97;0;0;
17169;53,98;-40,63;53,98;-40,63;26,23;1,88;26,23;1,88;0;0;
17186;53,98;-40,63;53,98;-40,63;25,42;1,72;25,42;1,72;0;0;
17202;-15,74;-35,45;-15,74;-35,45;25,55;1,79;25,55;1,79;0;0;
17222;-15,83;-40,3;-15,83;-40,3;27,7;1,7;27,7;1,7;0;0;
17239;-14,48;-39,51;-14,48;-39,51;26,14;1,57;26,14;1,57;0;0;
17256;-13,98;-34,83;-13,98;-34,83;28,4;1,81;28,4;1,81;0;0;
17273;-82,35;-42,75;-82,35;-42,75;29,46;1,9;29,46;1,9;0;0;
17292;-55,98;-39,25;-55,98;-39,25;27,62;2;27,62;2;1;0;
17309;-28,94;-42,61;-28,94;-42,61;29,58;1,98;29,58;1,98;1;0;
17328;-11,94;-38,71;-11,94;-38,71;29,1;2,19;29,1;2,19;1;0;
17344;-11,94;-38,71;-11,94;-38,71;30,78;2,18;30,78;2,18;1;0;
17361;-23,84;-38,88;-23,84;-38,88;31,32;2,01;31,32;2,01;1;0;
17379;-21,24;-39,69;-21,24;-39,69;27,88;2,15;27,88;2,15;1;0;
17395;-92,87;-39,29;-92,87;-39,29;27,28;2,25;27,28;2,25;1;0;
17413;-42,59;-41,49;-42,59;-41,49;26,62;2,38;26,62;2,38;1;0;
17431;-47,61;-43,78;-47,61;-43,78;23,53;2,48;23,53;2,48;1;0;
17448;-36,96;-41,23;-36,96;-41,23;25,23;2,34;25,23;2,34;1;0;
17465;-36,96;-41,23;-36,96;-41,23;23,27;2,22;23,27;2,22;1;0;
17482;-24,63;-39,65;-24,63;-39,65;25,17;2,01;25,17;2,01;1;0;
17500;-39,63;-37,76;-39,63;-37,76;22,65;1,92;22,65;1,92;1;0;
17516;-25,87;-39,41;-25,87;-39,41;28,8;1,75;28,8;1,75;1;0;
17533;-44,14;-40,24;-44,14;-40,24;31,42;1,5;31,42;1,5;1;0;
17549;42,06;-38,9;42,06;-38,9;32,48;1,41;32,48;1,41;1;0;
17568;-58,48;-42,52;-58,48;-42,52;35,28;1,52;35,28;1,52;1;0;
17585;-58,48;-42,52;-58,48;-42,52;39,88;1,59;39,88;1,59;1;0;
17602;-75,01;-43,51;-75,01;-43,51;44,8;1,57;44,8;1,57;1;0;
17620;-12,42;-37,63;-12,42;-37,63;38,33;1,61;38,33;1,61;1;0;
17636;-2,83;-38,79;-2,83;-38,79;37,68;1,97;37,68;1,97;1;0;
17655;89,78;-37,41;89,78;-37,41;42,24;2,09;42,24;2,09;0;0;
17671;-50,89;-38,67;-50,89;-38,67;41,56;2,21;41,56;2,21;0;0;
17689;33,36;-38,98;33,36;-38,98;36,66;2,2;36,66;2,2;0;0;
17707;-13,54;-41,86;-13,54;-41,86;32,9;2,17;32,9;2,17;0;0;
17727;23,04;-41,23;23,04;-41,23;35,53;2,12;35,53;2,12;0;0;
17745;23,04;-41,23;23,04;-41,23;31,97;2,15;31,97;2,15;0;0;
17765;63,45;-40,07;63,45;-40,07;31,52;1,98;31,52;1,98;0;0;
17785;17,08;-40,61;17,08;-40,61;30,25;2,09;30,25;2,09;0;0;
17805;48,4;-36,22;48,4;-36,22;39,3;1,95;39,3;1,95;0;0;
17828;8,11;-36,78;8,11;-36,78;42,69;1,89;42,69;1,89;0;0;
17850;39,14;-35,61;39,14;-35,61;42,85;1,91;42,85;1,91;0;0;
17867;-57,07;-41,28;-57,07;-41,28;41,72;1,93;41,72;1,93;0;0;
17885;-57,07;-41,28;-57,07;-41,28;39,21;2,05;39,21;2,05;0;0;
17902;-13,05;-42,93;-13,05;-42,93;36,49;2,13;36,49;2,13;0;0;
17918;-47,36;-35,93;-47,36;-35,93;26,55;2,22;26,55;2,22;0;0;
17935;-62,13;-37,18;-62,13;-37,18;29,86;2,22;29,86;2,22;0;0;
17952;-35,65;-40,98;-35,65;-40,98;29,41;1,94;29,41;1,94;0;0;
17969;-61,01;-37,28;-61,01;-37,28;28,61;1,93;28,61;1,93;0;0;
17986;-61,01;-37,28;-61,01;-37,28;28,02;1,99;28,02;1,99;0;0;
18004;-39,97;-37,19;-39,97;-37,19;29,09;1,99;29,09;1,99;0;0;
18022;-15,94;-39,14;-15,94;-39,14;28,37;1,89;28,37;1,89;0;0;
18038;-5,97;-39,14;-5,97;-39,14;29,59;1,95;29,59;1,95;0;0;
18055;1,33;-42,58;1,33;-42,58;32,69;1,95;32,69;1,95;0;0;
18071;-29,15;-38,89;-29,15;-38,89;32,02;2,12;32,02;2,12;0;0;
18087;-21;-43,42;-21;-43,42;30,13;2,17;30,13;2,17;0;0;
18103;-21;-43,42;-21;-43,42;29,33;2,13;29,33;2,13;0;0;
18120;-45,79;-40,06;-45,79;-40,06;29,73;2,05;29,73;2,05;0;0;
18138;-15,54;-37,95;-15,54;-37,95;23,23;2,31;23,23;2,31;0;0;
18156;-29,95;-38,1;-29,95;-38,1;18,56;2,26;18,56;2,26;0;0;
18175;-68,44;-34,78;-68,44;-34,78;19,8;2,44;19,8;2,44;0;0;
18195;-20,01;-41,62;-20,01;-41,62;20,51;2,43;20,51;2,43;0;0;
18220;-18,83;-43,28;-18,83;-43,28;21,78;2,6;21,78;2,6;0;0;
18237;1,53;-35,68;1,53;-35,68;21,82;2,72;21,82;2,72;0;0;
18254;-0,52;-39,72;-0,52;-39,72;22,99;2,4;22,99;2,4;0;0;
18273;-24,25;-36,44;-24,25;-36,44;28,78;2,19;28,78;2,19;0;0;
18291;-21,12;-39,33;-21,12;-39,33;27,2;2,16;27,2;2,16;0;0;
18311;-37,09;-46,48;-37,09;-46,48;25,31;2,35;25,31;2,35;0;0;
18328;-20,66;-39,62;-20,66;-39,62;23,08;2,13;23,08;2,13;0;0;
18344;-20,66;-39,62;-20,66;-39,62;21,44;2,1;21,44;2,1;0;0;
18363;-37,68;-41,1;-37,68;-41,1;18,77;2,07;18,77;2,07;0;0;
18383;-70,07;-38,58;-70,07;-38,58;16,91;2,05;16,91;2,05;0;0;
18401;-10,87;-37,68;-10,87;-37,68;21,58;2,18;21,58;2,18;0;0;
18419;-32,07;-40,6;-32,07;-40,6;21,7;2,11;21,7;2,11;0;0;
18436;-63,97;-40,07;-63,97;-40,07;24,4;2,16;24,4;2,16;0;0;
18455;-72,27;-37,17;-72,27;-37,17;28,27;2,26;28,27;2,26;0;0;
18473;-31,44;-43,31;-31,44;-43,31;29,22;2,4;29,22;2,4;0;0;
18492;-3,53;-37,14;-3,53;-37,14;29,2;2,34;29,2;2,34;0;0;
18511;-42,02;-36,56;-42,02;-36,56;26,71;2,04;26,71;2,04;0;0;
18528;-7,13;-43,79;-7,13;-43,79;25,46;1,9;25,46;1,9;0;0;
18544;-7,13;-43,79;-7,13;-43,79;19,04;2,14;19,04;2,14;0;0;
18562;-40,64;-39,28;-40,64;-39,28;22,07;2,04;22,07;2,04;0;0;
18580;-13,71;-43,27;-13,71;-43,27;22,64;1,98;22,64;1,98;0;0;
18602;31,1;-40,18;31,1;-40,18;23,15;1,87;23,15;1,87;0;0;
18622;0,51;-37,15;0,51;-37,15;23,81;1,87;23,81;1,87;0;0;
18638;-7,93;-37,26;-7,93;-37,26;26;1,79;26;1,79;0;0;
18656;26,04;-34,66;26,04;-34,66;24,86;2,05;24,86;2,05;0;0;
18672;-31,23;-42,51;-31,23;-42,51;22,88;2,37;22,88;2,37;0;0;
18689;-96,06;-42,06;-96,06;-42,06;22,71;2,49;22,71;2,49;0;0;
18704;-96,06;-42,06;-96,06;-42,06;26,24;2,72;26,24;2,72;0;0;
18720;-15,37;-45,15;-15,37;-45,15;25,09;2,88;25,09;2,88;0;0;
18737;-118,85;-38,17;-118,85;-38,17;27,5;2,88;27,5;2,88;0;0;
18756;-66;-34,05;-66;-34,05;27,63;2,4;27,63;2,4;0;0;
18777;-39,18;-35,6;-39,18;-35,6;27,26;2,3;27,26;2,3;0;0;
18795;-44,53;-33,75;-44,53;-33,75;23,46;2,48;23,46;2,48;0;0;
18812;-44,53;-33,75;-44,53;-33,75;21,33;2,64;21,33;2,64;0;0;
18830;-0,27;-43,57;-0,27;-43,57;22,34;2,67;22,34;2,67;0;0;
18847;-38,27;-44,92;-38,27;-44,92;18,14;2,73;18,14;2,73;0;0;
18863;-38,27;-44,92;-38,27;-44,92;17,84;2,98;17,84;2,98;0;0;
18880;-93,52;-42,24;-93,52;-42,24;20,13;2,86;20,13;2,86;0;0;
18898;-7,82;-40,38;-7,82;-40,38;21,87;2,59;21,87;2,59;0;0;
18914;-103,08;-40,6;-103,08;-40,6;24,18;2,56;24,18;2,56;0;0;
18933;16,4;-42,72;16,4;-42,72;28,64;2,82;28,64;2,82;0;0;
18953;-16,94;-40,11;-16,94;-40,11;28,02;3,13;28,02;3,13;0;0;
18971;-1,75;-41,71;-1,75;-41,71;30,57;2,93;30,57;2,93;0;0;
18987;18,37;-44,37;18,37;-44,37;31,03;3;31,03;3;0;0;
19004;18,37;-44,37;18,37;-44,37;33,1;2,91;33,1;2,91;0;0;
19023;-34,14;-38,97;-34,14;-38,97;31,75;3,07;31,75;3,07;0;0;
19039;-22,73;-42,34;-22,73;-42,34;26,93;2,52;26,93;2,52;0;0;
19057;-37,76;-41,58;-37,76;-41,58;27,22;2;27,22;2;0;0;
19074;12,62;-39,22;12,62;-39,22;23,77;2,33;23,77;2,33;0;0;
19092;-72,4;-30,51;-72,4;-30,51;23,3;2,44;23,3;2,44;0;0;
19108;-31,28;-38,08;-31,28;-38,08;22,95;2,68;22,95;2,68;0;0;
19124;-31,28;-38,08;-31,28;-38,08;23,96;2,83;23,96;2,83;0;0;
19141;105,3;-41,77;105,3;-41,77;25,33;3,02;25,33;3,02;0;0;
19157;-27,79;-38,17;-27,79;-38,17;28,44;3,01;28,44;3,01;0;0;
19175;-19,1;-39,38;-19,1;-39,38;29,46;2,89;29,46;2,89;0;0;
19192;70,54;-42,59;70,54;-42,59;26,53;2,57;26,53;2,57;0;1;
19210;-77,91;-34,14;-77,91;-34,14;28,15;2,59;28,15;2,59;0;1;
19229;3,11;-38,9;3,11;-38,9;28,28;2,62;28,28;2,62;0;1;
19244;3,11;-38,9;3,11;-38,9;22,06;2,59;22,06;2,59;0;1;
19261;-126,66;-36,08;-126,66;-36,08;23,97;2,63;23,97;2,63;0;1;
19279;43,47;-42,3;43,47;-42,3;25,05;2,66;25,05;2,66;0;1;
19297;-74,24;-40,72;-74,24;-40,72;25,56;2,53;25,56;2,53;0;1;
19316;4,75;-34,68;4,75;-34,68;25,77;2,33;25,77;2,33;0;1;
19334;-60,3;-40,9;-60,3;-40,9;28,11;2,4;28,11;2,4;0;1;
19352;-37,59;-41,96;-37,59;-41,96;27,23;2,66;27,23;2,66;0;1;
19370;-22,56;-41,62;-22,56;-41,62;24,56;2,77;24,56;2,77;0;1;
19389;-46,38;-40,01;-46,38;-40,01;22,37;2,85;22,37;2,85;0;1;
19405;-46,38;-40,01;-46,38;-40,01;22,21;2,88;22,21;2,88;0;1;
19425;30,96;-44;30,96;-44;21,64;2,63;21,64;2,63;0;1;
19442;6,75;-37,3;6,75;-37,3;21,83;2,4;21,83;2,4;0;1;
19459;-30,23;-43,45;-30,23;-43,45;22,94;2,5;22,94;2,5;0;1;
19476;-30,23;-43,45;-30,23;-43,45;22,01;2,38;22,01;2,38;0;1;
19495;-5,4;-38,16;-5,4;-38,16;19,14;2,75;19,14;2,75;0;1;
19515;-24,31;-40,73;-24,31;-40,73;21,65;2,93;21,65;2,93;0;1;
19532;9,88;-38,25;9,88;-38,25;27,16;2,99;27,16;2,99;0;0;
19549;-26,51;-41,59;-26,51;-41,59;27,75;2,97;27,75;2,97;0;0;
19568;-26,69;-35,63;-26,69;-35,63;27,12;2,91;27,12;2,91;0;0;
19586;-26,69;-35,63;-26,69;-35,63;27,17;2,92;27,17;2,92;0;0;
19608;37,21;-39,15;37,21;-39,15;24,98;2,57;24,98;2,57;0;0;
19628;-7,01;-32,49;-7,01;-32,49;28,77;2,58;28,77;2,58;0;0;
19648;-80,22;-34,99;-80,22;-34,99;26,09;2,94;26,09;2,94;0;0;
19664;-80,22;-34,99;-80,22;-34,99;32,41;3,43;32,41;3,43;0;0;
19681;-68,75;-43,7;-68,75;-43,7;33,27;3,37;33,27;3,37;0;0;
19698;-13,27;-38,39;-13,27;-38,39;32,3;3,54;32,3;3,54;0;0;
19719;-74,78;-40,06;-74,78;-40,06;32,36;3,38;32,36;3,38;0;0;
19739;84,03;-42,03;84,03;-42,03;33,64;2,87;33,64;2,87;0;0;
19760;-44,72;-40,98;-44,72;-40,98;30,41;2,37;30,41;2,37;0;0;
19780;-1,81;-42,47;-1,81;-42,47;30,87;2,15;30,87;2,15;0;0;
19798;-20,95;-42,34;-20,95;-42,34;32,09;2,35;32,09;2,35;0;0;
19816;26,76;-43,79;26,76;-43,79;31,69;2,22;31,69;2,22;0;0;
19834;-25,33;-41,97;-25,33;-41,97;30,77;2,36;30,77;2,36;0;0;
19851;-60,23;-38,9;-60,23;-38,9;28,62;2,57;28,62;2,57;0;0;
19870;7,37;-35,45;7,37;-35,45;25,59;2,8;25,59;2,8;0;0;
19888;-98,23;-42,75;-98,23;-42,75;28,72;3,06;28,72;3,06;0;0;
19905;-98,23;-42,75;-98,23;-42,75;31,25;3,31;31,25;3,31;0;0;
19921;-70,22;-35,99;-70,22;-35,99;29,75;3,02;29,75;3,02;1;0;
19937;-20,6;-38,89;-20,6;-38,89;30,3;2,74;30,3;2,74;1;0;
19954;14,4;-41,51;14,4;-41,51;29,7;2,54;29,7;2,54;1;0;
19971;-74,98;-41,13;-74,98;-41,13;30,82;1,97;30,82;1,97;1;0;
19988;-29,84;-39,63;-29,84;-39,63;29,68;1,57;29,68;1,57;1;0;
20004;-29,84;-39,63;-29,84;-39,63;29,83;1,47;29,83;1,47;1;0;
20023;-32,75;-40,62;-32,75;-40,62;27,59;1,59;27,59;1,59;1;0;
20040;6,86;-35,45;6,86;-35,45;26,26;1,77;26,26;1,77;1;0;
20056;-23,17;-40,64;-23,17;-40,64;25,8;1,63;25,8;1,63;1;0;
20071;-12,01;-37,89;-12,01;-37,89;21,16;1,67;21,16;1,67;1;0;
20088;-84,19;-38,15;-84,19;-38,15;24,12;1,51;24,12;1,51;1;0;
20106;6,18;-34,82;6,18;-34,82;29,4;1,72;29,4;1,72;1;0;
20123;6,18;-34,82;6,18;-34,82;34,39;1,92;34,39;1,92;1;0;
20140;78,86;-36,23;78,86;-36,23;35,41;1,87;35,41;1,87;1;0;
20156;-19,62;-37,17;-19,62;-37,17;39,78;2,07;39,78;2,07;1;0;
20173;-5,44;-40,27;-5,44;-40,27;39,42;2,18;39,42;2,18;1;0;
20192;-5,38;-32,51;-5,38;-32,51;32,88;2,31;32,88;2,31;1;0;
20218;-53,03;-37,02;-53,03;-37,02;32,66;2,15;32,66;2,15;1;0;
20235;-31,52;-33,58;-31,52;-33,58;30,94;2,05;30,94;2,05;1;0;
20253;-33,66;-36,21;-33,66;-36,21;25,36;2,13;25,36;2,13;0;0;
20270;-20,72;-35,15;-20,72;-35,15;28,07;2,05;28,07;2,05;0;0;
20288;66,84;-40,63;66,84;-40,63;31,12;2,18;31,12;2,18;0;0;
20304;66,84;-40,63;66,84;-40,63;30,51;2,17;30,51;2,17;0;0;
20321;-15,41;-39,25;-15,41;-39,25;28,32;2,31;28,32;2,31;0;0;
20340;-11,54;-46,17;-11,54;-46,17;27,26;2,32;27,26;2,32;0;0;
20360;-85,46;-41,13;-85,46;-41,13;25,58;2,37;25,58;2,37;0;0;
20378;-86,87;-42,32;-86,87;-42,32;22,63;2,35;22,63;2,35;0;0;
20395;-47,36;-37,69;-47,36;-37,69;22,91;2,26;22,91;2,26;0;0;
20412;-65,38;-49,43;-65,38;-49,43;19,66;2,57;19,66;2,57;0;0;
20430;-36,59;-36,35;-36,59;-36,35;21,09;2,78;21,09;2,78;0;0;
20449;-34,07;-43,54;-34,07;-43,54;24,72;2,53;24,72;2,53;0;0;
20467;-56,23;-41,68;-56,23;-41,68;25,48;2,53;25,48;2,53;0;0;
20485;-56,23;-41,68;-56,23;-41,68;24,22;2,47;24,22;2,47;0;0;
20503;-48,3;-38,73;-48,3;-38,73;25,74;2,62;25,74;2,62;0;0;
20521;14,49;-35,83;14,49;-35,83;29,08;2,33;29,08;2,33;0;0;
20538;18,39;-33,45;18,39;-33,45;30,38;2,36;30,38;2,36;0;0;
20555;-20,72;-40,99;-20,72;-40,99;30,38;2,22;30,38;2,22;0;0;
20571;-46,72;-40,07;-46,72;-40,07;30,53;2,17;30,53;2,17;0;0;
20590;-25,42;-40,86;-25,42;-40,86;30,07;2,06;30,07;2,06;0;0;
20607;-23,39;-41,98;-23,39;-41,98;26,18;2,01;26,18;2,01;0;0;
20625;-23,39;-41,98;-23,39;-41,98;21,98;1,91;21,98;1,91;0;0;
20641;-41,04;-46,03;-41,04;-46,03;21,06;2;21,06;2;0;0;
20659;-1,34;-37,45;-1,34;-37,45;19,85;2,17;19,85;2,17;0;0;
20674;-13,34;-38,3;-13,34;-38,3;17,95;2,42;17,95;2,42;0;0;
20693;-41,68;-39,17;-41,68;-39,17;17,45;2,43;17,45;2,43;0;0;
20713;-20,42;-40,9;-20,42;-40,9;19,73;2,41;19,73;2,41;0;0;
20730;-43,36;-40,4;-43,36;-40,4;18,55;2,3;18,55;2,3;0;0;
20749;-37,21;-40,98;-37,21;-40,98;17,79;1,99;17,79;1,99;0;0;
20766;-37,21;-40,98;-37,21;-40,98;18,84;1,72;18,84;1,72;0;0;
20784;-43,64;-42,74;-43,64;-42,74;22,21;1,82;22,21;1,82;0;0;
20802;-41,7;-36,67;-41,7;-36,67;20,83;1,98;20,83;1,98;0;0;
20822;-17,6;-37,38;-17,6;-37,38;20,7;2,12;20,7;2,12;0;0;
20839;-25,95;-37,89;-25,95;-37,89;18,89;2,15;18,89;2,15;0;0;
20855;-28,22;-35,58;-28,22;-35,58;19,11;2,46;19,11;2,46;0;0;
20874;1,84;-33,95;1,84;-33,95;15,89;2,61;15,89;2,61;0;0;
20893;-64,86;-45,26;-64,86;-45,26;19,76;2,69;19,76;2,69;0;0;
20910;-36,3;-32,38;-36,3;-32,38;23,79;2,76;23,79;2,76;0;0;
20926;-36,3;-32,38;-36,3;-32,38;27,76;3,03;27,76;3,03;0;0;
20945;-32,38;-40,81;-32,38;-40,81;27,5;2,96;27,5;2,96;0;0;
20962;-31,52;-41,63;-31,52;-41,63;27,07;2,72;27,07;2,72;0;0;
20979;-55,36;-42,1;-55,36;-42,1;24,77;2,59;24,77;2,59;0;0;
20996;-33,57;-37,69;-33,57;-37,69;20,49;2,24;20,49;2,24;0;0;
21015;-50;-35,24;-50;-35,24;21,77;2,27;21,77;2,27;0;0;
21032;-66,05;-37,94;-66,05;-37,94;23,49;2,24;23,49;2,24;0;0;
21049;-11,9;-37,45;-11,9;-37,45;26,13;2,31;26,13;2,31;0;0;
21065;-11,9;-37,45;-11,9;-37,45;31,26;2,46;31,26;2,46;0;0;
21082;-73,81;-42,08;-73,81;-42,08;34,16;2,47;34,16;2,47;0;0;
21100;-14,2;-42,3;-14,2;-42,3;31,96;2,3;31,96;2,3;1;0;
21119;-9,21;-41,64;-9,21;-41,64;28,9;2,2;28,9;2,2;1;0;
21137;-63,82;-42,45;-63,82;-42,45;26,45;2,43;26,45;2,43;1;0;
21154;-54,93;-42,45;-54,93;-42,45;25,3;2,4;25,3;2,4;1;0;
21170;5,63;-40,62;5,63;-40,62;25,48;2,51;25,48;2,51;1;0;
21187;-3,99;-38,58;-3,99;-38,58;24,89;2,53;24,89;2,53;1;0;
21205;-3,99;-38,58;-3,99;-38,58;23,63;2,54;23,63;2,54;1;0;
21222;-60,54;-38,74;-60,54;-38,74;24,87;2,76;24,87;2,76;1;0;
21239;-45,56;-42,66;-45,56;-42,66;23,44;2,63;23,44;2,63;1;0;
21257;-34,19;-44,66;-34,19;-44,66;25,48;2,7;25,48;2,7;1;0;
21275;-15,93;-42,58;-15,93;-42,58;26,8;2,58;26,8;2,58;1;0;
21295;-55,58;-42,2;-55,58;-42,2;29,88;2,83;29,88;2,83;1;0;
21311;-22,92;-36,93;-22,92;-36,93;30,77;2,6;30,77;2,6;1;0;
21331;-40,55;-40,72;-40,55;-40,72;33,1;2,64;33,1;2,64;1;0;
21346;-40,55;-40,72;-40,55;-40,72;34,4;2,48;34,4;2,48;1;0;
21364;-16,77;-34,97;-16,77;-34,97;28,43;2,55;28,43;2,55;1;0;
21384;155,32;-38,12;155,32;-38,12;29,32;2,27;29,32;2,27;1;0;
21401;-65,91;-37,55;-65,91;-37,55;32,2;2,11;32,2;2,11;1;0;
21419;-46,31;-39,86;-46,31;-39,86;31,31;1,96;31,31;1,96;1;0;
21436;-8,35;-39,38;-8,35;-39,38;30,09;1,86;30,09;1,86;0;0;
21454;-89,72;-37,31;-89,72;-37,31;33,63;1,95;33,63;1,95;0;0;
21473;-33,83;-42,58;-33,83;-42,58;39,88;1,89;39,88;1,89;0;0;
21493;24,98;-41,65;24,98;-41,65;35,55;1,98;35,55;1,98;0;0;
21511;-80,54;-38,3;-80,54;-38,3;38,31;2,12;38,31;2,12;0;0;
21530;38,04;-40,63;38,04;-40,63;39,49;2,1;39,49;2,1;0;0;
21546;38,04;-40,63;38,04;-40,63;39,75;1,96;39,75;1,96;0;0;
21565;-18,63;-41,37;-18,63;-41,37;36,27;2,17;36,27;2,17;0;0;
21585;-31,5;-42,71;-31,5;-42,71;39,65;2,29;39,65;2,29;0;0;
21602;-34,29;-42,05;-34,29;-42,05;32,19;2,26;32,19;2,26;0;0;
21620;-53,93;-35,97;-53,93;-35,97;32,21;2,28;32,21;2,28;0;0;
21641;-81,41;-38,79;-81,41;-38,79;32,36;2,34;32,36;2,34;0;0;
21661;83,04;-39,62;83,04;-39,62;34,03;2,42;34,03;2,42;0;0;
21678;2,93;-41,78;2,93;-41,78;29,18;2,26;29,18;2,26;0;0;
21696;9,52;-39,66;9,52;-39,66;31,83;2,08;31,83;2,08;0;0;
21712;-38,57;-42,77;-38,57;-42,77;30,84;2,17;30,84;2,17;0;0;
21727;-32,03;-42,42;-32,03;-42,42;29,07;2,23;29,07;2,23;0;0;
21743;-32,03;-42,42;-32,03;-42,42;24,88;2,41;24,88;2,41;0;0;
21764;-16,11;-37,83;-16,11;-37,83;21,39;2,53;21,39;2,53;0;0;
21785;-10,79;-38,29;-10,79;-38,29;21,36;2,72;21,36;2,72;0;0;
21803;-39,71;-41,75;-39,71;-41,75;18,43;2,78;18,43;2,78;0;0;
21823;-0,99;-37,95;-0,99;-37,95;18,75;2,57;18,75;2,57;0;0;
21841;-7,83;-38,78;-7,83;-38,78;19,25;2,46;19,25;2,46;0;0;
21864;-39,22;-41,21;-39,22;-41,21;18,86;2,36;18,86;2,36;0;0;
21881;-83,14;-37,93;-83,14;-37,93;18,69;2,2;18,69;2,2;0;0;
21898;-25,55;-43,01;-25,55;-43,01;22,04;2,14;22,04;2,14;0;0;
21915;-0,1;-42,67;-0,1;-42,67;24,72;2,25;24,72;2,25;0;0;
21932;-58,14;-38,57;-58,14;-38,57;24,87;2,4;24,87;2,4;0;0;
21950;-24,92;-42,53;-24,92;-42,53;29,07;2,55;29,07;2,55;0;0;
21966;-24,92;-42,53;-24,92;-42,53;33,77;2,79;33,77;2,79;0;0;
21983;-23,12;-35,97;-23,12;-35,97;32,86;2,78;32,86;2,78;0;0;
22001;6,97;-39,04;6,97;-39,04;32,78;2,99;32,78;2,99;0;0;
22019;-16,36;-36,83;-16,36;-36,83;33,51;2,83;33,51;2,83;0;0;
22038;-96,41;-47,26;-96,41;-47,26;29,79;3,12;29,79;3,12;0;0;
22055;-64,51;-38,67;-64,51;-38,67;30,09;2,78;30,09;2,78;0;0;
22072;-78,74;-41,72;-78,74;-41,72;26,63;2,5;26,63;2,5;0;0;
22090;-29,38;-40,2;-29,38;-40,2;25,56;2,5;25,56;2,5;0;0;
22112;-31,04;-34,37;-31,04;-34,37;24,61;2,37;24,61;2,37;0;0;
22128;22,73;-35,26;22,73;-35,26;28,01;2,3;28,01;2,3;0;0;
22145;22,73;-35,26;22,73;-35,26;28,48;2,19;28,48;2,19;0;0;
22162;-53,19;-40,61;-53,19;-40,61;25,95;2,16;25,95;2,16;0;0;
22180;-38,79;-40,32;-38,79;-40,32;25,58;2,14;25,58;2,14;0;0;
22196;-65,4;-39,37;-65,4;-39,37;24,22;1,96;24,22;1,96;0;0;
22212;-10,06;-40,79;-10,06;-40,79;27,53;1,77;27,53;1,77;0;0;
22230;-45,09;-36,86;-45,09;-36,86;23,8;1,93;23,8;1,93;0;0;
22246;-45,09;-36,86;-45,09;-36,86;20,62;2,2;20,62;2,2;0;0;
22263;60,15;-37,6;60,15;-37,6;22,33;2,12;22,33;2,12;0;0;
22280;-5,14;-34,51;-5,14;-34,51;22,35;2,14;22,35;2,14;0;0;
22299;0,87;-43,15;0,87;-43,15;24,54;2,49;24,54;2,49;0;0;
22315;3,85;-43,7;3,85;-43,7;21,89;2,48;21,89;2,48;0;0;
22334;-15,69;-35,45;-15,69;-35,45;21,51;2,3;21,51;2,3;0;0;
22353;-99,08;-40,63;-99,08;-40,63;29,52;2,14;29,52;2,14;0;0;
22369;-81,9;-39,37;-81,9;-39,37;26,68;2,37;26,68;2,37;0;0;
22387;-32,47;-37,4;-32,47;-37,4;25,2;2,08;25,2;2,08;0;0;
22402;-32,47;-37,4;-32,47;-37,4;22,74;1,92;22,74;1,92;0;0;
22423;-14,76;-41,83;-14,76;-41,83;21,84;1,79;21,84;1,79;0;0;
22441;3,05;-39,66;3,05;-39,66;18,31;1,85;18,31;1,85;0;0;
22460;22,27;-35,95;22,27;-35,95;15,92;1,77;15,92;1,77;0;0;
22477;-48,47;-39,63;-48,47;-39,63;19,82;1,74;19,82;1,74;0;0;
22495;-17,35;-37,3;-17,35;-37,3;20,86;1,88;20,86;1,88;0;0;
22514;-31,06;-38,99;-31,06;-38,99;20,89;1,82;20,89;1,82;0;0;
22530;-33,43;-40,31;-33,43;-40,31;22,19;1,71;22,19;1,71;0;0;
22550;-41,17;-39,91;-41,17;-39,91;20,75;1,77;20,75;1,77;0;0;
22569;-29,19;-41,63;-29,19;-41,63;15,91;1,86;15,91;1,86;0;0;
22586;-29,19;-41,63;-29,19;-41,63;14,73;1,98;14,73;1,98;0;0;
22601;-39,25;-38,55;-39,25;-38,55;17,53;1,78;17,53;1,78;0;0;
22619;-35,09;-39,16;-35,09;-39,16;15,79;1,88;15,79;1,88;0;0;
22638;-43,7;-39,4;-43,7;-39,4;16,44;1,78;16,44;1,78;0;0;
22654;-95,45;-40,46;-95,45;-40,46;16,59;1,78;16,59;1,78;0;0;
22671;-15,57;-38,49;-15,57;-38,49;16,16;1,75;16,16;1,75;0;0;
22689;-20,99;-36,12;-20,99;-36,12;15,98;1,98;15,98;1,98;0;0;
22705;-20,99;-36,12;-20,99;-36,12;17,62;2,25;17,62;2,25;0;0;
22723;-48,71;-44,06;-48,71;-44,06;19,04;2,37;19,04;2,37;0;0;
22741;-50,15;-43,17;-50,15;-43,17;19,8;2,38;19,8;2,38;0;0;
22759;-20,07;-39,95;-20,07;-39,95;19,97;2,45;19,97;2,45;0;0;
22777;-22,74;-35,96;-22,74;-35,96;19,78;2,3;19,78;2,3;0;0;
22798;-27,25;-40,22;-27,25;-40,22;19,42;2,3;19,42;2,3;0;0;
22817;-76,57;-36,43;-76,57;-36,43;18,17;2,14;18,17;2,14;0;0;
22834;0,5;-40,82;0,5;-40,82;22,22;2,12;22,22;2,12;0;0;
22851;-13,05;-40,26;-13,05;-40,26;21,43;2,11;21,43;2,11;0;0;
22868;-5,72;-38,72;-5,72;-38,72;21,9;1,98;21,9;1,98;0;0;
22887;0,36;-37,48;0,36;-37,48;25,52;2,36;25,52;2,36;0;0;
22904;0,36;-37,48;0,36;-37,48;30,6;2,64;30,6;2,64;0;0;
22919;-47,93;-35,94;-47,93;-35,94;29,29;2,49;29,29;2,49;0;0;
22936;37,71;-46,26;37,71;-46,26;30,82;2,54;30,82;2,54;0;0;
22954;-24,12;-35,83;-24,12;-35,83;33,28;2,68;33,28;2,68;0;0;
22972;-39,66;-45,67;-39,66;-45,67;33,22;3,01;33,22;3,01;0;0;
22988;-32,52;-32,38;-32,52;-32,38;29,14;2,96;29,14;2,96;0;1;
23008;-30,42;-43,32;-30,42;-43,32;24,67;2,65;24,67;2,65;0;1;
23025;-30,42;-43,32;-30,42;-43,32;21,35;2,78;21,35;2,78;0;1;
23043;-44,6;-39,29;-44,6;-39,29;23,77;2,59;23,77;2,59;0;1;
23060;-46,92;-40,63;-46,92;-40,63;22,96;2,59;22,96;2,59;0;1;
23077;-37,87;-39,14;-37,87;-39,14;22,53;2,43;22,53;2,43;0;1;
23094;-24,72;-41,82;-24,72;-41,82;23,05;2,35;23,05;2,35;0;1;
23112;-28,1;-39,82;-28,1;-39,82;23,59;2,29;23,59;2,29;0;1;
23131;-58,69;-37,45;-58,69;-37,45;22,04;2,3;22,04;2,3;0;1;
23148;-38,36;-40,75;-38,36;-40,75;22,89;2,24;22,89;2,24;0;1;
23163;-38,36;-40,75;-38,36;-40,75;25,41;2,12;25,41;2,12;0;1;
23180;-64,04;-41,7;-64,04;-41,7;28,03;2,1;28,03;2,1;0;1;
23198;-36,5;-41,14;-36,5;-41,14;29,06;1,99;29,06;1,99;0;1;
23215;39,92;-39,48;39,92;-39,48;29,44;2,21;29,44;2,21;0;1;
23233;13,99;-43,74;13,99;-43,74;28,06;2,16;28,06;2,16;0;1;
23251;-28,18;-38,07;-28,18;-38,07;26,64;2,44;26,64;2,44;0;1;
23270;-22,41;-37,1;-22,41;-37,1;27,3;2,76;27,3;2,76;0;1;
23286;-22,25;-44,39;-22,25;-44,39;27,36;2,81;27,36;2,81;0;1;
23303;-22,25;-44,39;-22,25;-44,39;27,12;2,91;27,12;2,91;0;1;
23320;-32,7;-43,74;-32,7;-43,74;27,11;2,85;27,11;2,85;0;1;
23338;45,23;-36,23;45,23;-36,23;25,19;2,52;25,19;2,52;0;0;
23357;-25,31;-43,77;-25,31;-43,77;23,65;2,61;23,65;2,61;0;0;
23376;-41,58;-45,88;-41,58;-45,88;24;2,51;24;2,51;0;0;
23392;-62,6;-41,24;-62,6;-41,24;26,1;2,39;26,1;2,39;0;0;
23410;-8,9;-45,79;-8,9;-45,79;28,73;2,46;28,73;2,46;0;0;
23431;-46,63;-36,64;-46,63;-36,64;29,08;2,32;29,08;2,32;0;0;
23449;-68,52;-41,62;-68,52;-41,62;30,35;2,34;30,35;2,34;0;0;
23467;-58,86;-38,91;-58,86;-38,91;31,88;2,35;31,88;2,35;0;0;
23491;-82,38;-38,64;-82,38;-38,64;35,03;2,13;35,03;2,13;0;0;
23509;-2,52;-36,59;-2,52;-36,59;27,17;2,22;27,17;2,22;0;0;
23526;-2,52;-36,59;-2,52;-36,59;26,51;2,21;26,51;2,21;0;0;
23548;-78,85;-36,96;-78,85;-36,96;27,48;2,17;27,48;2,17;0;0;
23569;-13,9;-40,98;-13,9;-40,98;25,75;1,99;25,75;1,99;0;0;
23586;-33,35;-38,29;-33,35;-38,29;22,03;1,96;22,03;1,96;0;0;
23602;-33,35;-38,29;-33,35;-38,29;19,54;2;19,54;2;0;0;
23619;-6,53;-32,25;-6,53;-32,25;22,81;2,06;22,81;2,06;0;0;
23636;-42,96;-39,35;-42,96;-39,35;22,98;1,98;22,98;1,98;0;0;
23653;-37,11;-38,29;-37,11;-38,29;21,3;1,88;21,3;1,88;0;0;
23670;-32,18;-42,46;-32,18;-42,46;21,68;2,27;21,68;2,27;0;0;
23688;-31,31;-41,24;-31,31;-41,24;20,38;2,5;20,38;2,5;0;0;
23703;-31,31;-41,24;-31,31;-41,24;18,08;2,75;18,08;2,75;0;0;
23721;4,66;-41,13;4,66;-41,13;16,8;2,55;16,8;2,55;1;0;
23738;-30,43;-39,98;-30,43;-39,98;15,87;2,46;15,87;2,46;1;0;
23755;-68,5;-36,07;-68,5;-36,07;20,37;2,43;20,37;2,43;1;0;
23772;-11,8;-43,07;-11,8;-43,07;18,87;2,28;18,87;2,28;1;0;
23790;-36,13;-40,43;-36,13;-40,43;19,18;2,47;19,18;2,47;1;0;
23806;-36,13;-40,43;-36,13;-40,43;18,36;2,82;18,36;2,82;1;0;
23823;-4,19;-41,35;-4,19;-41,35;20,64;2,87;20,64;2,87;1;0;
23841;-47,24;-40,62;-47,24;-40,62;15,18;2,86;15,18;2,86;1;0;
23858;-37,22;-38,66;-37,22;-38,66;17,06;2,95;17,06;2,95;1;0;
23875;-33,91;-39,45;-33,91;-39,45;19,81;2,41;19,81;2,41;1;0;
23893;-11,02;-36,11;-11,02;-36,11;21,56;1,9;21,56;1,9;1;0;
23910;-18,45;-43,3;-18,45;-43,3;21,26;2,04;21,26;2,04;1;0;
23927;7,72;-43,35;7,72;-43,35;21,33;2,16;21,33;2,16;1;0;
23944;7,72;-43,35;7,72;-43,35;22,21;2,25;22,21;2,25;1;0;
23962;-14,69;-41,62;-14,69;-41,62;19,87;2,01;19,87;2,01;1;0;
23980;43,18;-35,7;43,18;-35,7;21,93;2,31;21,93;2,31;1;0;
23996;-41,06;-35,57;-41,06;-35,57;21,71;2,28;21,71;2,28;1;0;
24012;-41,06;-35,57;-41,06;-35,57;23,9;2,16;23,9;2,16;1;0;
24028;-47,33;-41,16;-47,33;-41,16;25,45;2,04;25,45;2,04;1;0;
24045;-47,33;-41,16;-47,33;-41,16;27,03;2,06;27,03;2,06;1;0;
24063;-23,66;-39,15;-23,66;-39,15;26,66;2;26,66;2;0;0;
24081;-33,73;-39,37;-33,73;-39,37;23,74;1,87;23,74;1,87;0;0;
24099;-34,83;-42,57;-34,83;-42,57;26,08;1,9;26,08;1,9;0;0;
24116;-26,06;-40,62;-26,06;-40,62;22,66;1,81;22,66;1,81;0;0;
24132;-49,56;-42,58;-49,56;-42,58;19,9;2,04;19,9;2,04;0;0;
24151;-19,74;-38,29;-19,74;-38,29;22,25;2,16;22,25;2,16;0;0;
24170;-77,09;-44,39;-77,09;-44,39;21,55;2,23;21,55;2,23;0;0;
24189;-25,1;-42,58;-25,1;-42,58;22,26;2,43;22,26;2,43;0;0;
24208;-29,88;-39,68;-29,88;-39,68;18,57;2,57;18,57;2,57;0;0;
24225;-29,88;-39,68;-29,88;-39,68;18,96;2,71;18,96;2,71;0;0;
24242;-41,91;-43,93;-41,91;-43,93;20,37;2,56;20,37;2,56;0;0;
24259;-65,86;-41,37;-65,86;-41,37;22,39;2,54;22,39;2,54;0;0;
24277;22,04;-41,92;22,04;-41,92;24,26;2,22;24,26;2,22;0;0;
24297;-32,54;-40,62;-32,54;-40,62;24,39;2,06;24,39;2,06;0;0;
24315;-92,65;-35,43;-92,65;-35,43;24,6;1,92;24,6;1,92;0;0;
24332;-30,39;-40,52;-30,39;-40,52;25,29;1,96;25,29;1,96;0;0;
24350;20,68;-41,57;20,68;-41,57;24,12;1,8;24,12;1,8;0;0;
24369;-41,73;-39,62;-41,73;-39,62;21,79;1,86;21,79;1,86;0;0;
24386;-41,73;-39,62;-41,73;-39,62;21,06;1,78;21,06;1,78;0;0;
24401;-6,2;-42,96;-6,2;-42,96;21,24;2,06;21,24;2,06;0;0;
24417;-6,2;-42,96;-6,2;-42,96;18,03;2,11;18,03;2,11;0;0;
24435;-16,67;-43,31;-16,67;-43,31;18,77;2,16;18,77;2,16;0;0;
24451;-62,84;-41,86;-62,84;-41,86;15,71;2,27;15,71;2,27;0;0;
24470;-29,01;-42,93;-29,01;-42,93;15,34;2,33;15,34;2,33;0;0;
24489;7,73;-43,09;7,73;-43,09;15,42;2,31;15,42;2,31;0;0;
24507;-46,6;-40,75;-46,6;-40,75;15,83;2,2;15,83;2,2;0;0;
24524;-46,6;-40,75;-46,6;-40,75;16,46;2,24;16,46;2,24;0;0;
24542;-3,1;-37,05;-3,1;-37,05;15,9;2,08;15,9;2,08;0;0;
24560;-13,16;-41,13;-13,16;-41,13;14,6;2,09;14,6;2,09;0;0;
24576;-24,33;-39,17;-24,33;-39,17;13,83;1,89;13,83;1,89;0;0;
24595;-1,22;-39,4;-1,22;-39,4;14,34;1,89;14,34;1,89;0;0;
24613;-26,26;-43,57;-26,26;-43,57;15,99;1,78;15,99;1,78;0;0;
24633;-59,84;-39,65;-59,84;-39,65;15,47;1,66;15,47;1,66;0;0;
24650;-11,79;-40,98;-11,79;-40,98;18,61;1,61;18,61;1,61;0;0;
24665;-11,79;-40,98;-11,79;-40,98;22,5;1,66;22,5;1,66;0;0;
24685;-29,87;-43,41;-29,87;-43,41;22,2;1,85;22,2;1,85;0;0;
24705;-112,24;-37,44;-112,24;-37,44;21,69;1,89;21,69;1,89;0;0;
24723;-47,35;-40,3;-47,35;-40,3;21,84;2,11;21,84;2,11;0;0;
24739;-34,32;-44,79;-34,32;-44,79;19,25;2,19;19,25;2,19;0;0;
24759;-54,75;-40,83;-54,75;-40,83;16,57;2,13;16,57;2,13;0;0;
24779;71,99;-38,14;71,99;-38,14;20,15;1,94;20,15;1,94;0;0;
24797;-33,78;-42,27;-33,78;-42,27;20,37;2,01;20,37;2,01;0;0;
24815;-24,85;-45,04;-24,85;-45,04;19,89;1,96;19,89;1,96;0;0;
24831;-71,19;-38,92;-71,19;-38,92;22,38;1,85;22,38;1,85;0;0;
24847;-4,5;-37,32;-4,5;-37,32;28,84;1,89;28,84;1,89;0;0;
24863;-4,5;-37,32;-4,5;-37,32;33,33;2,04;33,33;2,04;0;0;
24880;-22,91;-41,59;-22,91;-41,59;32,16;2,04;32,16;2,04;0;0;
24897;114,13;-37,23;114,13;-37,23;34,27;2,12;34,27;2,12;1;0;
24914;-37,46;-46,27;-37,46;-46,27;42,32;2,16;42,32;2,16;1;0;
24932;34,59;-37,02;34,59;-37,02;39,58;2,14;39,58;2,14;1;0;
24949;22,93;-36,14;22,93;-36,14;35,78;2,14;35,78;2,14;1;0;
24969;-15,27;-43,12;-15,27;-43,12;30,7;1,99;30,7;1,99;1;0;
24986;-15,27;-43,12;-15,27;-43,12;30,67;1,7;30,67;1,7;1;0;
25002;-25,94;-41,95;-25,94;-41,95;22,34;1,67;22,34;1,67;1;0;
25020;-34,39;-35;-34,39;-35;18,02;1,62;18,02;1,62;1;0;
25036;-21,42;-42,34;-21,42;-42,34;15,07;1,54;15,07;1,54;1;0;
25053;23,43;-40,38;23,43;-40,38;18,07;1,71;18,07;1,71;1;0;
25070;-42,27;-39,99;-42,27;-39,99;19,89;1,88;19,89;1,88;1;0;
25089;-7,06;-38,15;-7,06;-38,15;17,76;2,02;17,76;2,02;1;0;
25116;-31,45;-41,61;-31,45;-41,61;15,46;1,88;15,46;1,88;1;0;
25133;-17,34;-41,59;-17,34;-41,59;16,4;2,22;16,4;2,22;1;0;
25149;-7,5;-41,34;-7,5;-41,34;14,19;2,25;14,19;2,25;1;0;
25169;-8,64;-38,75;-8,64;-38,75;10,52;2,22;10,52;2,22;1;0;
25185;-8,64;-38,75;-8,64;-38,75;11,16;2,35;11,16;2,35;1;0;
25201;-20,5;-38,98;-20,5;-38,98;13,08;2,53;13,08;2,53;1;0;
25218;-18,67;-37,19;-18,67;-37,19;12,86;2,67;12,86;2,67;1;0;
25236;6,16;-44,78;6,16;-44,78;15,12;2,63;15,12;2,63;0;0;
25254;-19,6;-39,28;-19,6;-39,28;16,75;2,35;16,75;2,35;0;0;
25271;39,91;-40,49;39,91;-40,49;16,25;2,11;16,25;2,11;0;0;
25290;-32,35;-38,6;-32,35;-38,6;15,15;1,95;15,15;1,95;0;0;
25307;-32,35;-38,6;-32,35;-38,6;17,14;1,64;17,14;1,64;0;0;
25327;-23,62;-38,65;-23,62;-38,65;17,33;1,57;17,33;1,57;0;0;
25344;-23,62;-38,65;-23,62;-38,65;16,76;1,58;16,76;1,58;0;0;
25364;-36,13;-40,33;-36,13;-40,33;17,21;1,59;17,21;1,59;0;0;
25383;-35,45;-38,28;-35,45;-38,28;20,9;1,81;20,9;1,81;0;0;
25398;93,9;-38,01;93,9;-38,01;23,7;1,94;23,7;1,94;0;0;
25415;-54,34;-37,95;-54,34;-37,95;26,34;2,1;26,34;2,1;0;0;
25433;-11,1;-40,82;-11,1;-40,82;29,06;1,96;29,06;1,96;0;0;
25455;8,28;-42,45;8,28;-42,45;30,98;1,95;30,98;1,95;0;0;
25474;-17,06;-40,98;-17,06;-40,98;27,98;1,7;27,98;1,7;0;0;
25493;-70,81;-41,48;-70,81;-41,48;29,85;1,63;29,85;1,63;0;0;
25510;93,92;-38,73;93,92;-38,73;25,82;1,9;25,82;1,9;0;0;
25526;93,92;-38,73;93,92;-38,73;27,4;2,18;27,4;2,18;0;0;
25542;-26,33;-40,82;-26,33;-40,82;29,9;2,23;29,9;2,23;0;0;
25559;-30,22;-39,91;-30,22;-39,91;28,46;2,41;28,46;2,41;0;0;
25577;-5,43;-40,63;-5,43;-40,63;28,77;2,33;28,77;2,33;0;0;
25593;-63,46;-32,55;-63,46;-32,55;24,2;2,26;24,2;2,26;0;0;
25610;-71,71;-42,19;-71,71;-42,19;28,76;2,34;28,76;2,34;0;0;
25629;-67,61;-41,67;-67,61;-41,67;22,59;2,17;22,59;2,17;0;0;
25647;-2,84;-39,64;-2,84;-39,64;25,01;2,39;25,01;2,39;0;0;
25664;-2,84;-39,64;-2,84;-39,64;26,41;2,37;26,41;2,37;0;0;
25681;-41,16;-41,38;-41,16;-41,38;26,13;2,39;26,13;2,39;0;0;
25698;-30,23;-40,26;-30,23;-40,26;24,56;2,1;24,56;2,1;0;0;
25716;-19,19;-40,09;-19,19;-40,09;21,49;1,88;21,49;1,88;0;0;
25734;44,51;-38,14;44,51;-38,14;25,4;1,77;25,4;1,77;0;0;
25751;-8,14;-41,11;-8,14;-41,11;25,19;1,57;25,19;1,57;0;0;
25766;-12,44;-40,37;-12,44;-40,37;25,03;1,54;25,03;1,54;0;0;
25786;-12,44;-40,37;-12,44;-40,37;22,71;1,47;22,71;1,47;0;0;
25803;105,32;-44,27;105,32;-44,27;21,41;1,72;21,41;1,72;0;0;
25821;-31,78;-39,25;-31,78;-39,25;27,01;1,79;27,01;1,79;0;0;
25838;-6,49;-39,85;-6,49;-39,85;18,8;1,83;18,8;1,83;0;0;
25855;-48,35;-38,65;-48,35;-38,65;18,69;1,87;18,69;1,87;0;0;
25873;2,43;-40,82;2,43;-40,82;19,74;2,05;19,74;2,05;0;0;
25890;-50,14;-39,69;-50,14;-39,69;20,8;1,99;20,8;1,99;0;0;
25910;-37,61;-38,81;-37,61;-38,81;17,05;1,88;17,05;1,88;0;0;
25927;-36,26;-39,02;-36,26;-39,02;16,39;1,85;16,39;1,85;0;0;
25945;-36,26;-39,02;-36,26;-39,02;17,48;1,94;17,48;1,94;0;0;
25962;-44,64;-43,6;-44,64;-43,6;18,32;1,97;18,32;1,97;0;0;
25981;-21,03;-39,79;-21,03;-39,79;17,3;1,9;17,3;1,9;0;0;
25998;-48,86;-39,59;-48,86;-39,59;20,7;1,72;20,7;1,72;0;0;
26014;-22,33;-39,91;-22,33;-39,91;22,88;1,51;22,88;1,51;0;0;
26029;7,01;-36,42;7,01;-36,42;24,03;1,61;24,03;1,61;0;0;
26046;7,01;-36,42;7,01;-36,42;26,27;1,73;26,27;1,73;0;0;
26065;-41,63;-41,48;-41,63;-41,48;26,25;1,67;26,25;1,67;0;0;
26084;23,88;-40,65;23,88;-40,65;30,37;1,85;30,37;1,85;0;0;
26101;-83,47;-42,45;-83,47;-42,45;26,5;2,04;26,5;2,04;0;0;
26122;-5,63;-39,72;-5,63;-39,72;32,87;2;32,87;2;0;0;
26145;7,95;-37,67;7,95;-37,67;31,84;1,86;31,84;1,86;0;0;
26166;-3,86;-37,12;-3,86;-37,12;34,57;1,73;34,57;1,73;0;0;
26188;-60,16;-39,1;-60,16;-39,1;35,58;1,63;35,58;1,63;0;0;
26211;-41,91;-35,1;-41,91;-35,1;32,24;1,61;32,24;1,61;0;0;
26232;44,63;-44,14;44,63;-44,14;29,83;1,52;29,83;1,52;0;0;
26254;18,99;-39,67;18,99;-39,67;30,85;1,53;30,85;1,53;0;0;
26277;-18,03;-42,84;-18,03;-42,84;35,36;1,42;35,36;1,42;0;0;
26298;13,67;-39,26;13,67;-39,26;36,34;1,4;36,34;1,4;0;0;
26320;-53,8;-39,9;-53,8;-39,9;33,71;1,56;33,71;1,56;0;0;
26338;-90,8;-41,34;-90,8;-41,34;35,36;1,56;35,36;1,56;0;0;
26355;99,67;-36,55;99,67;-36,55;35,22;1,68;35,22;1,68;0;0;
26373;-15,56;-39,89;-15,56;-39,89;31,8;1,9;31,8;1,9;0;0;
26391;-35,66;-36,29;-35,66;-36,29;29;2,04;29;2,04;0;0;
26408;-43,25;-38,11;-43,25;-38,11;30,19;1,9;30,19;1,9;0;0;
26425;-43,25;-38,11;-43,25;-38,11;32,4;1,81;32,4;1,81;0;0;
26441;-4,04;-42,13;-4,04;-42,13;29,8;1,85;29,8;1,85;0;0;
26458;-53,3;-40,61;-53,3;-40,61;27,01;2,02;27,01;2,02;0;0;
26474;-11,93;-39,38;-11,93;-39,38;28,39;2,03;28,39;2,03;0;0;
26496;20,98;-39,28;20,98;-39,28;25,18;1,89;25,18;1,89;0;0;
26513;28,81;-38,28;28,81;-38,28;23,08;1,92;23,08;1,92;0;0;
26529;-36,91;-42,51;-36,91;-42,51;24,97;1,83;24,97;1,83;0;0;
26545;-36,91;-42,51;-36,91;-42,51;25,44;1,8;25,44;1,8;0;0;
26562;-45,56;-39,32;-45,56;-39,32;21,29;1,61;21,29;1,61;0;0;
26581;-96,77;-40,62;-96,77;-40,62;24,77;1,52;24,77;1,52;0;0;
26596;-10,21;-42,72;-10,21;-42,72;24,78;1,49;24,78;1,49;0;0;
26614;-17,25;-36,06;-17,25;-36,06;23,22;1,74;23,22;1,74;0;0;
26631;-20,89;-37,74;-20,89;-37,74;23,23;1,71;23,23;1,71;0;0;
26648;-18,61;-45,93;-18,61;-45,93;22,15;1,89;22,15;1,89;0;0;
26664;-18,61;-45,93;-18,61;-45,93;18,22;2,17;18,22;2,17;0;0;
26681;-27,6;-39,58;-27,6;-39,58;11,39;2,19;11,39;2,19;0;0;
26700;27,11;-37,31;27,11;-37,31;15,53;2,25;15,53;2,25;0;0;
26718;-19,46;-42,01;-19,46;-42,01;14,75;2,1;14,75;2,1;0;0;
26734;-15,95;-39,51;-15,95;-39,51;17,52;1,92;17,52;1,92;0;0;
26753;26,68;-38,79;26,68;-38,79;20,75;1,69;20,75;1,69;0;0;
26778;-23,95;-42,32;-23,95;-42,32;20,93;1,55;20,93;1,55;0;0;
26796;-47,35;-40,62;-47,35;-40,62;21,29;1,96;21,29;1,96;0;0;
26814;99,48;-42,74;99,48;-42,74;20,53;1,97;20,53;1,97;1;0;
26832;-25,14;-38,45;-25,14;-38,45;25,88;2,07;25,88;2,07;1;0;
26848;-74,43;-45,74;-74,43;-45,74;28,04;2,33;28,04;2,33;1;0;
26863;-74,43;-45,74;-74,43;-45,74;31,29;2,61;31,29;2,61;1;0;
26881;-59,84;-43,66;-59,84;-43,66;31,75;2,58;31,75;2,58;1;0;
26898;-77,18;-36,92;-77,18;-36,92;30,74;2,4;30,74;2,4;1;0;
26915;-29,87;-41,74;-29,87;-41,74;25,76;2,43;25,76;2,43;1;0;
26932;-29,37;-39,87;-29,37;-39,87;20,49;2,27;20,49;2,27;1;0;
26950;-31,5;-39,65;-31,5;-39,65;20,47;1,99;20,47;1,99;1;0;
26965;-31,5;-39,65;-31,5;-39,65;22,22;1,7;22,22;1,7;1;0;
26982;30,91;-42,56;30,91;-42,56;23,08;1,78;23,08;1,78;1;0;
26999;-14,82;-35,92;-14,82;-35,92;26,56;1,75;26,56;1,75;1;0;
27019;-67,47;-40,25;-67,47;-40,25;27,51;1,96;27,51;1,96;1;0;
27037;-8,83;-40,37;-8,83;-40,37;26,09;2,06;26,09;2,06;1;0;
27056;-33,94;-39,63;-33,94;-39,63;21,99;2,05;21,99;2,05;1;0;
27072;-28,6;-40,31;-28,6;-40,31;18,51;2,04;18,51;2,04;1;0;
27089;-34,7;-42,23;-34,7;-42,23;17,23;2,11;17,23;2,11;1;0;
27108;29,12;-41,12;29,12;-41,12;17,17;1,98;17,17;1,98;1;0;
27124;29,12;-41,12;29,12;-41,12;19,38;1,87;19,38;1,87;1;0;
27143;-22,3;-37,65;-22,3;-37,65;19,17;1,68;19,17;1,68;1;0;
27179;-28,99;-40,08;-28,99;-40,08;19,53;1,71;19,53;1,71;0;0;
27196;-29,16;-43,5;-29,16;-43,5;22,5;1,8;22,5;1,8;0;0;
27214;-13,43;-40,62;-13,43;-40,62;21,65;1,83;21,65;1,83;0;0;
27231;-33,21;-42,84;-33,21;-42,84;17,61;1,79;17,61;1,79;0;0;
27249;-22,47;-42,32;-22,47;-42,32;19,49;1,89;19,49;1,89;0;0;
27266;-22,47;-42,32;-22,47;-42,32;22,5;1,94;22,5;1,94;0;0;
27284;-35,21;-35,42;-35,21;-35,42;23,4;1,78;23,4;1,78;0;0;
27304;-29,11;-40,36;-29,11;-40,36;19,28;1,67;19,28;1,67;0;0;
27320;-44,43;-36,65;-44,43;-36,65;22,78;1,84;22,78;1,84;0;0;
27338;-40,62;-37,3;-40,62;-37,3;22,43;1,95;22,43;1,95;0;0;
27356;-59,91;-37,69;-59,91;-37,69;19,58;1,95;19,58;1,95;0;0;
27374;15,92;-42,22;15,92;-42,22;17,69;1,99;17,69;1,99;0;0;
27393;38,32;-41,11;38,32;-41,11;21,16;2,15;21,16;2,15;0;0;
27410;-21,1;-39,65;-21,1;-39,65;19,72;2,13;19,72;2,13;0;0;
27429;2,83;-37,94;2,83;-37,94;16,8;1,88;16,8;1,88;0;0;
27445;2,83;-37,94;2,83;-37,94;18,44;1,66;18,44;1,66;0;0;
27463;-56,69;-39,39;-56,69;-39,39;22;1,56;22;1,56;0;0;
27482;-36,86;-41,31;-36,86;-41,31;21,49;1,66;21,49;1,66;0;0;
27501;-27,75;-40,03;-27,75;-40,03;18,07;1,44;18,07;1,44;1;0;
27518;-26,12;-41,84;-26,12;-41,84;19,62;1,47;19,62;1,47;1;0;
27534;-29,63;-36,52;-29,63;-36,52;17,02;1,67;17,02;1,67;1;0;
27553;-30,17;-41,95;-30,17;-41,95;11,4;1,99;11,4;1,99;1;0;
27570;-115,76;-34,45;-115,76;-34,45;13,79;2,15;13,79;2,15;1;0;
27586;-115,76;-34,45;-115,76;-34,45;16,55;2,16;16,55;2,16;1;0;
27602;-55,9;-39,62;-55,9;-39,62;17,39;2,08;17,39;2,08;1;0;
27620;-30,33;-35,24;-30,33;-35,24;18,02;2,11;18,02;2,11;1;0;
27635;-20,98;-42,23;-20,98;-42,23;17,81;1,87;17,81;1,87;1;0;
27653;-22,02;-40,42;-22,02;-40,42;17,71;1,78;17,71;1,78;1;0;
27668;25,49;-42,68;25,49;-42,68;16,08;1,79;16,08;1,79;1;0;
27687;0,41;-41,61;0,41;-41,61;15,65;1,73;15,65;1,73;1;0;
27706;0,41;-41,61;0,41;-41,61;19,46;1,67;19,46;1,67;1;0;
27721;-29,57;-41,33;-29,57;-41,33;18,52;1,67;18,52;1,67;1;0;
27739;-38,12;-38,5;-38,12;-38,5;21,13;1,55;21,13;1,55;1;0;
27758;-17,23;-38,92;-17,23;-38,92;20,51;1,43;20,51;1,43;1;0;
27777;-16,14;-38,59;-16,14;-38,59;19,63;1,4;19,63;1,4;1;0;
27795;-30,28;-39,82;-30,28;-39,82;16,42;1,38;16,42;1,38;1;0;
27813;-20,57;-37,78;-20,57;-37,78;13,57;1,42;13,57;1,42;1;0;
27831;-36,1;-34,68;-36,1;-34,68;17,14;1,54;17,14;1,54;1;0;
27849;-45,1;-37,81;-45,1;-37,81;17,35;1,76;17,35;1,76;0;0;
27867;-35,51;-43,78;-35,51;-43,78;19,95;1,94;19,95;1,94;0;0;
27884;-35,51;-43,78;-35,51;-43,78;19,16;2,13;19,16;2,13;0;0;
27902;-22,25;-40,35;-22,25;-40,35;20,73;2,05;20,73;2,05;0;0;
27920;-58,66;-39,52;-58,66;-39,52;15,82;1,91;15,82;1,91;0;0;
27940;-28,68;-42,52;-28,68;-42,52;16;1,71;16;1,71;0;0;
27957;-20,32;-37,57;-20,32;-37,57;17,9;1,56;17,9;1,56;0;0;
27974;-45,72;-45,15;-45,72;-45,15;16,07;1,49;16,07;1,49;0;0;
27994;-69,5;-39,13;-69,5;-39,13;16,15;1,43;16,15;1,43;0;0;
28014;-58,09;-36,95;-58,09;-36,95;21,82;1,52;21,82;1,52;0;0;
28031;-28,82;-40,92;-28,82;-40,92;21,17;1,55;21,17;1,55;0;0;
28049;-18,39;-41,5;-18,39;-41,5;19,7;1,57;19,7;1,57;0;0;
28065;-18,39;-41,5;-18,39;-41,5;18,99;1,51;18,99;1,51;0;0;
28081;-24,76;-37,93;-24,76;-37,93;15,16;1,5;15,16;1,5;0;0;
28100;-15,36;-38,52;-15,36;-38,52;14,09;1,38;14,09;1,38;0;0;
28119;-17,12;-42,93;-17,12;-42,93;13,47;1,46;13,47;1,46;0;0;
28136;-13,53;-36,53;-13,53;-36,53;7,64;1,54;7,64;1,54;0;0;
28152;-19,22;-32,32;-19,22;-32,32;7,81;1,75;7,81;1,75;0;0;
28170;-52,79;-37,14;-52,79;-37,14;10,29;1,89;10,29;1,89;0;0;
28186;-52,79;-37,14;-52,79;-37,14;12,76;2,03;12,76;2,03;0;0;
28204;-30,84;-40,25;-30,84;-40,25;18,21;1,86;18,21;1,86;0;0;
28223;-35,25;-37,44;-35,25;-37,44;16,98;1,79;16,98;1,79;0;0;
28239;-26,84;-37,54;-26,84;-37,54;15,28;1,89;15,28;1,89;0;0;
28258;-24,76;-39,65;-24,76;-39,65;12,46;1,81;12,46;1,81;0;0;
28274;5,1;-40,72;5,1;-40,72;12,31;1,8;12,31;1,8;0;0;
28293;-2,68;-41,91;-2,68;-41,91;10,36;1,86;10,36;1,86;0;0;
28309;8,68;-35,94;8,68;-35,94;14,93;2,06;14,93;2,06;0;0;
28325;8,68;-35,94;8,68;-35,94;22,72;2,19;22,72;2,19;0;0;
28343;-30,52;-41,24;-30,52;-41,24;23,32;2,05;23,32;2,05;0;0;
28361;-24,28;-39,89;-24,28;-39,89;22,51;1,8;22,51;1,8;0;0;
28379;-21,9;-37,85;-21,9;-37,85;20,08;1,79;20,08;1,79;0;0;
28394;-26,73;-42,14;-26,73;-42,14;22;1,75;22;1,75;0;0;
28417;-31,4;-36,93;-31,4;-36,93;14,04;1,77;14,04;1,77;0;0;
28434;-19,85;-41,96;-19,85;-41,96;11,62;1,6;11,62;1,6;0;0;
28452;-3,44;-39,16;-3,44;-39,16;11,92;1,69;11,92;1,69;0;0;
28469;-28,73;-41,61;-28,73;-41,61;12,71;1,74;12,71;1,74;0;0;
28485;-28,73;-41,61;-28,73;-41,61;8,62;1,76;8,62;1,76;0;0;
28501;-27,42;-41,64;-27,42;-41,64;7,36;1,71;7,36;1,71;0;0;
28519;-26,82;-36,45;-26,82;-36,45;5,46;1,53;5,46;1,53;0;0;
28535;-20,72;-38,64;-20,72;-38,64;7,02;1,43;7,02;1,43;0;0;
28554;-26,98;-40,5;-26,98;-40,5;6,03;1,4;6,03;1,4;0;0;
28570;-0,78;-38,79;-0,78;-38,79;7,75;1,36;7,75;1,36;0;0;
28589;-29,12;-35,85;-29,12;-35,85;11,7;1,58;11,7;1,58;0;0;
28605;-29,12;-35,85;-29,12;-35,85;15,72;1,69;15,72;1,69;0;0;
28624;-31,6;-37,91;-31,6;-37,91;16,35;1,69;16,35;1,69;0;0;
28640;-31,6;-37,91;-31,6;-37,91;16,08;1,73;16,08;1,73;0;0;
28657;-18,38;-42,33;-18,38;-42,33;19,63;1,71;19,63;1,71;0;0;
28673;-23,67;-39,72;-23,67;-39,72;16,56;1,96;16,56;1,96;0;0;
28690;-16,76;-38,3;-16,76;-38,3;12,87;1,86;12,87;1,86;0;0;
28708;-24,14;-39,89;-24,14;-39,89;11,9;1,67;11,9;1,67;0;0;
28724;-24,14;-39,89;-24,14;-39,89;10,64;1,66;10,64;1,66;0;0;
28743;-28,49;-38,8;-28,49;-38,8;6,87;1,61;6,87;1,61;1;0;
28761;-35,74;-43,51;-35,74;-43,51;7,82;1,73;7,82;1,73;1;0;
28779;-28,41;-37,93;-28,41;-37,93;6,82;1,77;6,82;1,77;1;0;
28797;-48,06;-41,69;-48,06;-41,69;7,56;1,73;7,56;1,73;1;0;
28815;13,48;-40;13,48;-40;11,21;1,72;11,21;1,72;1;0;
28831;-26,94;-38,89;-26,94;-38,89;11,42;1,77;11,42;1,77;1;0;
28848;-23,01;-40,95;-23,01;-40,95;9,43;1,78;9,43;1,78;1;0;
28863;-23,01;-40,95;-23,01;-40,95;8,21;1,63;8,21;1,63;1;0;
28878;-30,09;-38,91;-30,09;-38,91;7,59;1,65;7,59;1,65;1;0;
28895;-25,43;-39,23;-25,43;-39,23;5,57;1,83;5,57;1,83;1;0;
28911;-28,45;-38,6;-28,45;-38,6;2,16;1,79;2,16;1,79;1;0;
28930;-22,04;-41,15;-22,04;-41,15;2,26;1,77;2,26;1,77;1;0;
28947;-22,4;-38,5;-22,4;-38,5;2,51;1,59;2,51;1,59;1;0;
28966;-22,4;-38,5;-22,4;-38,5;2,72;1,41;2,72;1,41;1;0;
28984;-24,76;-37,42;-24,76;-37,42;3,75;1,27;3,75;1,27;1;0;
29001;-24,49;-38,11;-24,49;-38,11;3,46;1,31;3,46;1,31;1;0;
29018;-44,15;-42,95;-44,15;-42,95;3,65;1,33;3,65;1,33;1;0;
29037;-23,75;-35,06;-23,75;-35,06;6,74;1,55;6,74;1,55;1;0;
29054;-25,61;-43,1;-25,61;-43,1;5,85;1,59;5,85;1,59;1;0;
29069;-23,49;-37,39;-23,49;-37,39;5,99;1,63;5,99;1,63;1;0;
29088;-23,49;-37,39;-23,49;-37,39;6,42;1,73;6,42;1,73;0;0;
29107;-25,11;-39,65;-25,11;-39,65;6,89;1,67;6,89;1,67;0;0;
29125;-25,11;-39,65;-25,11;-39,65;6,59;1,53;6,59;1,53;0;0;
29144;-29,53;-43,11;-29,53;-43,11;5,87;1,43;5,87;1,43;0;0;
29162;-33,05;-40,07;-33,05;-40,07;6,94;1,44;6,94;1,44;0;0;
29183;-26,88;-35,97;-26,88;-35,97;7,15;1,58;7,15;1,58;0;0;
29200;-29,43;-41,86;-29,43;-41,86;6,65;1,67;6,65;1,67;0;0;
29219;-28,24;-37,11;-28,24;-37,11;5,37;1,67;5,37;1,67;0;0;
29237;-39,74;-40,81;-39,74;-40,81;6,45;1,69;6,45;1,69;0;0;
29255;-14,1;-41,77;-14,1;-41,77;6,73;1,64;6,73;1,64;0;0;
29274;-27,05;-40,13;-27,05;-40,13;6,75;1,65;6,75;1,65;0;0;
29289;-29,62;-38,87;-29,62;-38,87;6,48;1,43;6,48;1,43;0;0;
29306;-29,62;-38,87;-29,62;-38,87;6,29;1,47;6,29;1,47;0;0;
29325;-28,82;-40,49;-28,82;-40,49;6,58;1,76;6,58;1,76;0;0;
29343;-18,38;-41,13;-18,38;-41,13;4,87;1,79;4,87;1,79;0;0;
29358;-25,26;-41,71;-25,26;-41,71;4,49;1,74;4,49;1,74;0;0;
29374;-21,25;-39,91;-21,25;-39,91;5,19;1,82;5,19;1,82;0;0;
29392;-30,06;-42,47;-30,06;-42,47;6,59;1,79;6,59;1,79;0;0;
29408;-24,97;-46,42;-24,97;-46,42;7,71;1,8;7,71;1,8;0;0;
29425;-24,97;-46,42;-24,97;-46,42;7,76;2;7,76;2;0;0;
29440;-83,97;-42,97;-83,97;-42,97;8,98;2,08;8,98;2,08;0;0;
29458;-43,55;-43,3;-43,55;-43,3;13,08;2,11;13,08;2,11;0;0;
29475;-44,69;-40,26;-44,69;-40,26;11,94;2,23;11,94;2,23;0;0;
29495;-26,8;-36,15;-26,8;-36,15;11,86;2,3;11,86;2,3;0;0;
29513;-37,9;-38,41;-37,9;-38,41;11,27;2,06;11,27;2,06;0;0;
29530;-46,41;-37,41;-46,41;-37,41;14,7;1,94;14,7;1,94;0;0;
29549;-22,65;-45,85;-22,65;-45,85;12,97;1,91;12,97;1,91;0;0;
29566;-22,65;-45,85;-22,65;-45,85;12,27;1,82;12,27;1,82;0;0;
29584;-14,66;-38,53;-14,66;-38,53;14,58;1,81;14,58;1,81;0;0;
29601;-35,95;-37,6;-35,95;-37,6;18,9;1,72;18,9;1,72;0;0;
29619;-14,24;-39,3;-14,24;-39,3;16,82;1,67;16,82;1,67;0;0;
29636;-32,35;-33,78;-32,35;-33,78;14,75;1,83;14,75;1,83;0;0;
29650;-32,35;-33,78;-32,35;-33,78;15,09;2,04;15,09;2,04;0;0;
29667;-8,8;-40,42;-8,8;-40,42;14,31;2,08;14,31;2,08;0;0;
29684;-8,8;-40,42;-8,8;-40,42;9,58;2,2;9,58;2,2;0;0;
29702;-27,53;-37,66;-27,53;-37,66;8,45;2,16;8,45;2,16;0;0;
29721;-31,73;-39,3;-31,73;-39,3;14,77;2,16;14,77;2,16;0;0;
29739;-18,07;-40,27;-18,07;-40,27;16,62;1,78;16,62;1,78;0;0;
29756;-31,74;-38,66;-31,74;-38,66;16,6;1,56;16,6;1,56;0;0;
29777;-31,2;-38,42;-31,2;-38,42;17,88;1,53;17,88;1,53;0;0;
29797;-16,81;-43,82;-16,81;-43,82;17,96;1,71;17,96;1,71;0;0;
29814;-26,57;-38,44;-26,57;-38,44;14,99;1,78;14,99;1,78;0;0;
29831;-31,84;-37,36;-31,84;-37,36;10,74;1,94;10,74;1,94;0;0;
29850;-43,17;-41,78;-43,17;-41,78;9,66;2,15;9,66;2,15;0;0;
29868;-34,02;-43,11;-34,02;-43,11;10,95;2,14;10,95;2,14;0;0;
29885;-34,02;-43,11;-34,02;-43,11;12,02;2,2;12,02;2,2;0;0;
29902;-31,69;-39,92;-31,69;-39,92;13,19;1,95;13,19;1,95;0;0;
29922;-2,4;-38,54;-2,4;-38,54;14,83;1,71;14,83;1,71;0;0;
29939;-25,41;-42,31;-25,41;-42,31;15,57;1,67;15,57;1,67;0;0;
29958;-29,97;-45,64;-29,97;-45,64;14,22;1,79;14,22;1,79;0;0;
29976;-17,86;-38,85;-17,86;-38,85;15,76;1,67;15,76;1,67;0;0;
29993;-33,92;-41,46;-33,92;-41,46;13,77;1,7;13,77;1,7;0;0;
30009;-32,7;-42,6;-32,7;-42,6;13,39;1,7;13,39;1,7;0;0;
30031;-24,46;-40,97;-24,46;-40,97;13,68;1,96;13,68;1,96;0;0;
30049;-22,92;-38,95;-22,92;-38,95;11,83;1,87;11,83;1,87;0;0;
30065;-22,92;-38,95;-22,92;-38,95;9,46;1,76;9,46;1,76;0;0;
30083;-43,02;-42,24;-43,02;-42,24;14,23;1,9;14,23;1,9;0;0;
30101;-6,97;-41,24;-6,97;-41,24;14,18;1,95;14,18;1,95;0;0;
30117;-32,44;-41,22;-32,44;-41,22;14,8;2,02;14,8;2,02;0;0;
30133;-58,87;-37,6;-58,87;-37,6;18,98;1,8;18,98;1,8;0;0;
30150;-43,1;-40,74;-43,1;-40,74;20,86;1,76;20,86;1,76;0;0;
30166;-43,1;-40,74;-43,1;-40,74;18,14;1,73;18,14;1,73;0;0;
30183;-19,82;-38,27;-19,82;-38,27;20,73;1,77;20,73;1,77;0;0;
30199;-11,01;-42,33;-11,01;-42,33;19,13;1,91;19,13;1,91;0;0;
30217;-31,54;-39,25;-31,54;-39,25;15,42;1,84;15,42;1,84;0;0;
30233;-38,05;-36,82;-38,05;-36,82;15,79;1,98;15,79;1,98;0;0;
30250;4,9;-43,18;4,9;-43,18;17,98;2,33;17,98;2,33;0;0;
30267;-38,57;-39,83;-38,57;-39,83;19,53;2,42;19,53;2,42;0;0;
30284;-38,57;-39,83;-38,57;-39,83;21,57;2,33;21,57;2,33;0;0;
30302;-0,82;-38,95;-0,82;-38,95;21,72;2,47;21,72;2,47;0;0;
30319;-21,93;-38,43;-21,93;-38,43;20,97;2,49;20,97;2,49;0;0;
30336;-20,55;-43,02;-20,55;-43,02;18,43;2,37;18,43;2,37;0;0;
30353;-42,16;-41,76;-42,16;-41,76;22,01;2,35;22,01;2,35;0;0;
30373;-67,73;-46,68;-67,73;-46,68;20,15;2,43;20,15;2,43;0;0;
30387;-23,74;-37,91;-23,74;-37,91;22,25;2,21;22,25;2,21;0;0;
30403;-23,74;-37,91;-23,74;-37,91;24,77;2,28;24,77;2,28;0;0;
30419;-31,11;-37,2;-31,11;-37,2;25,91;2,45;25,91;2,45;0;0;
30436;57,88;-36,45;57,88;-36,45;23,42;2,62;23,42;2,62;0;0;
30454;-57,25;-44,49;-57,25;-44,49;22,72;2,56;22,72;2,56;0;0;
30470;-27,97;-37,54;-27,97;-37,54;21,51;2,61;21,51;2,61;0;0;
30490;-29,16;-34,69;-29,16;-34,69;18,72;2,58;18,72;2,58;0;0;
30509;-100,69;-41,73;-100,69;-41,73;19,59;2,68;19,59;2,68;0;0;
30525;-100,69;-41,73;-100,69;-41,73;19,3;2,61;19,3;2,61;0;0;
30542;-3,36;-42,19;-3,36;-42,19;20,69;2,51;20,69;2,51;0;0;
30561;-24,52;-36,02;-24,52;-36,02;18,17;2,36;18,17;2,36;0;0;
30578;-32,66;-42,92;-32,66;-42,92;17,61;2,49;17,61;2,49;0;0;
30597;-63,63;-37,7;-63,63;-37,7;19,64;2,29;19,64;2,29;0;0;
30615;-79,26;-42,69;-79,26;-42,69;20,19;2,22;20,19;2,22;0;1;
30633;-17,61;-38,74;-17,61;-38,74;20,18;2,4;20,18;2,4;0;1;
30652;-43,05;-36,01;-43,05;-36,01;15,35;2,34;15,35;2,34;0;1;
30667;-42,89;-31,33;-42,89;-31,33;16,1;2,73;16,1;2,73;0;1;
30683;-42,89;-31,33;-42,89;-31,33;18,16;3,26;18,16;3,26;0;1;
30701;-58,2;-35,05;-58,2;-35,05;15,84;3,21;15,84;3,21;0;1;
30717;7,48;-43,92;7,48;-43,92;18,95;3,31;18,95;3,31;0;1;
30734;-23,16;-39,97;-23,16;-39,97;17,92;3,51;17,92;3,51;0;1;
30750;-19,87;-44,07;-19,87;-44,07;15,5;3,67;15,5;3,67;0;1;
30772;-12,1;-40,06;-12,1;-40,06;18,45;3,47;18,45;3,47;0;1;
30791;-37,36;-42,58;-37,36;-42,58;20,22;3,14;20,22;3,14;0;1;
30808;-41;-38,56;-41;-38,56;20,74;2,94;20,74;2,94;0;1;
30825;-41;-38,56;-41;-38,56;21,69;2,74;21,69;2,74;0;1;
30844;-27,72;-35,74;-27,72;-35,74;22,52;2,7;22,52;2,7;0;1;
30861;-36,47;-42,55;-36,47;-42,55;21,65;2,57;21,65;2,57;0;1;
30877;-112,48;-41,08;-112,48;-41,08;19,92;2,13;19,92;2,13;0;1;
30894;-23,19;-38,29;-23,19;-38,29;19,72;2,24;19,72;2,24;0;1;
30910;-20,99;-39,51;-20,99;-39,51;19,41;2,55;19,41;2,55;0;1;
30926;-20,99;-39,51;-20,99;-39,51;20,46;2,8;20,46;2,8;0;1;
30946;-32,74;-37,2;-32,74;-37,2;19,78;2,74;19,78;2,74;0;1;
30964;8,83;-40,25;8,83;-40,25;22,31;2,92;22,31;2,92;0;0;
30981;26,9;-38,91;26,9;-38,91;21,46;2,72;21,46;2,72;0;0;
30999;-22,83;-39,3;-22,83;-39,3;22,61;2,5;22,61;2,5;0;0;
31016;-14,42;-43,3;-14,42;-43,3;21,48;2,17;21,48;2,17;0;0;
31034;-26,39;-38,93;-26,39;-38,93;19,61;2,01;19,61;2,01;0;0;
31053;-44,76;-40,98;-44,76;-40,98;19,95;2,13;19,95;2,13;0;0;
31068;-45,82;-38,2;-45,82;-38,2;16,87;2,08;16,87;2,08;0;0;
31085;-45,82;-38,2;-45,82;-38,2;13,24;2,04;13,24;2,04;0;0;
31102;-58,97;-41,22;-58,97;-41,22;13,24;2,24;13,24;2,24;0;0;
31120;-45,25;-40,12;-45,25;-40,12;17,25;2,23;17,25;2,23;0;0;
31140;-54,74;-38,89;-54,74;-38,89;16,89;2,29;16,89;2,29;0;0;
31160;-33,95;-38,5;-33,95;-38,5;20,89;2,11;20,89;2,11;0;0;
31177;-23,95;-39,66;-23,95;-39,66;19,65;2,06;19,65;2,06;0;0;
31193;-42,12;-38,61;-42,12;-38,61;18,68;2,08;18,68;2,08;0;0;
31209;-50,63;-40,38;-50,63;-40,38;15,64;2,19;15,64;2,19;0;0;
31228;-28,66;-38,18;-28,66;-38,18;19,41;2,04;19,41;2,04;0;0;
31244;-28,66;-38,18;-28,66;-38,18;20,35;2,1;20,35;2,1;0;0;
31261;-19,24;-43,49;-19,24;-43,49;19,98;2,1;19,98;2,1;0;0;
31278;-27,15;-43,08;-27,15;-43,08;18,02;2,36;18,02;2,36;0;0;
31295;16,62;-36,96;16,62;-36,96;17,94;2,45;17,94;2,45;0;0;
31310;-12,06;-35,81;-12,06;-35,81;19,45;2,36;19,45;2,36;0;0;
31327;-13,01;-42,33;-13,01;-42,33;16,35;2,21;16,35;2,21;0;0;
31345;-13,01;-42,33;-13,01;-42,33;13,86;2,09;13,86;2,09;0;0;
31365;-19,24;-43,16;-19,24;-43,16;16,11;1,89;16,11;1,89;0;0;
31382;-32,71;-42,58;-32,71;-42,58;17,26;1,77;17,26;1,77;0;0;
31399;1,09;-39,92;1,09;-39,92;13,95;1,61;13,95;1,61;0;0;
31416;-5,22;-40,56;-5,22;-40,56;14,01;1,6;14,01;1,6;0;0;
31434;-37,78;-40,97;-37,78;-40,97;14,03;1,84;14,03;1,84;0;0;
31451;-26,18;-37,32;-26,18;-37,32;12,64;1,82;12,64;1,82;0;0;
31465;-26,18;-37,32;-26,18;-37,32;9,78;1,78;9,78;1,78;0;0;
31483;80,58;-41,2;80,58;-41,2;15,04;1,77;15,04;1,77;0;0;
31502;-44,36;-39,9;-44,36;-39,9;15,51;1,77;15,51;1,77;0;0;
31518;-43,89;-40,62;-43,89;-40,62;14,56;1,65;14,56;1,65;0;0;
31536;-16,8;-46,64;-16,8;-46,64;14,44;1,75;14,44;1,75;0;0;
31554;-27,15;-36,09;-27,15;-36,09;14,79;1,87;14,79;1,87;0;0;
31571;-35,41;-40,02;-35,41;-40,02;14,56;1,82;14,56;1,82;0;0;
31591;-32,68;-40,43;-32,68;-40,43;12,8;2,02;12,8;2,02;0;0;
31608;-83,1;-40,74;-83,1;-40,74;12,91;2,13;12,91;2,13;0;0;
31634;-20,66;-39,63;-20,66;-39,63;13,61;1,94;13,61;1,94;0;0;
31651;-21,53;-42,58;-21,53;-42,58;13,35;1,81;13,35;1,81;0;0;
31668;-46,87;-42,34;-46,87;-42,34;12,71;1,59;12,71;1,59;0;0;
31686;-46,87;-42,34;-46,87;-42,34;10,04;1,37;10,04;1,37;0;0;
31705;14,68;-43,8;14,68;-43,8;14,29;1,49;14,29;1,49;0;0;
31720;-50,69;-38,32;-50,69;-38,32;12,88;1,7;12,88;1,7;0;0;
31736;-64;-42,82;-64;-42,82;14,38;1,64;14,38;1,64;0;0;
31753;-38,7;-41,35;-38,7;-41,35;20,27;1,86;20,27;1,86;0;0;
31772;-17,62;-41,18;-17,62;-41,18;20,18;2,14;20,18;2,14;0;0;
31792;-19,49;-38,76;-19,49;-38,76;16,97;2,28;16,97;2,28;0;0;
31809;-29,71;-42,71;-29,71;-42,71;15,02;1,98;15,02;1,98;0;0;
31827;0,13;-40,63;0,13;-40,63;16;1,99;16;1,99;0;0;
31847;-24,4;-38,64;-24,4;-38,64;12,35;2,03;12,35;2,03;0;0;
31864;-24,4;-38,64;-24,4;-38,64;10,61;1,85;10,61;1,85;0;0;
31879;-26,86;-41,23;-26,86;-41,23;10,97;2,06;10,97;2,06;0;0;
31897;-28,72;-44,05;-28,72;-44,05;11,05;2,05;11,05;2,05;0;0;
31914;-28,64;-35,8;-28,64;-35,8;8,28;2,27;8,28;2,27;0;0;
31931;-77,02;-39,38;-77,02;-39,38;8,92;2,26;8,92;2,26;0;0;
31947;-77,02;-39,38;-77,02;-39,38;10,89;2,22;10,89;2,22;0;0;
31964;-77,02;-39,38;-77,02;-39,38;13,03;2,11;13,03;2,11;0;0;
31980;-9,78;-38,16;-9,78;-38,16;13,47;2,05;13,47;2,05;0;0;
31997;-116,04;-40,07;-116,04;-40,07;16,14;1,95;16,14;1,95;0;0;
32014;-23,86;-43,41;-23,86;-43,41;18,7;1,81;18,7;1,81;0;0;
32031;-22,12;-41,29;-22,12;-41,29;16,15;1,86;16,15;1,86;0;0;
32049;-26,84;-42,6;-26,84;-42,6;13,14;1,78;13,14;1,78;0;0;
32064;-26,84;-42,6;-26,84;-42,6;10,86;1,75;10,86;1,75;0;0;
32081;-56,52;-44,29;-56,52;-44,29;10,63;1,88;10,63;1,88;0;0;
32100;-104,58;-40,49;-104,58;-40,49;11,8;2,05;11,8;2,05;0;0;
32117;-36,7;-41,68;-36,7;-41,68;14,65;1,88;14,65;1,88;0;0;
32135;-10,74;-45,16;-10,74;-45,16;14,78;1,92;14,78;1,92;0;0;
32153;-23,64;-37,45;-23,64;-37,45;16,68;2,03;16,68;2,03;0;0;
32169;-25,46;-39,91;-25,46;-39,91;16,69;2,41;16,69;2,41;0;0;
32187;-14,97;-40,88;-14,97;-40,88;14,02;2,3;14,02;2,3;0;0;
32202;-14,97;-40,88;-14,97;-40,88;10,68;2,36;10,68;2,36;0;0;
32219;-19,06;-40,64;-19,06;-40,64;14,31;2,42;14,31;2,42;0;0;
32240;-29,15;-38,59;-29,15;-38,59;13,79;2,31;13,79;2,31;0;0;
32257;-19,77;-39,03;-19,77;-39,03;12,69;2,11;12,69;2,11;0;0;
32272;33,17;-39,61;33,17;-39,61;14,45;1,81;14,45;1,81;0;0;
32291;-35,19;-40,36;-35,19;-40,36;15,88;1,79;15,88;1,79;0;0;
32308;-2,45;-39,61;-2,45;-39,61;15,33;1,72;15,33;1,72;0;0;
32324;-2,45;-39,61;-2,45;-39,61;14,54;1,61;14,54;1,61;0;0;
32341;-9,66;-38,4;-9,66;-38,4;15,17;1,62;15,17;1,62;0;0;
32359;-18,57;-45,48;-18,57;-45,48;19,48;1,83;19,48;1,83;0;0;
32375;-23,23;-38,55;-23,23;-38,55;16,47;1,95;16,47;1,95;0;0;
32393;-95,12;-39,28;-95,12;-39,28;17,58;1,83;17,58;1,83;0;0;
32410;-30,15;-37,18;-30,15;-37,18;20,1;1,92;20,1;1,92;0;0;
32428;-27,39;-41,12;-27,39;-41,12;18,81;2,01;18,81;2,01;0;0;
32444;-27,39;-41,12;-27,39;-41,12;16,28;1,97;16,28;1,97;0;0;
32461;18,05;-37,87;18,05;-37,87;17,91;1,73;17,91;1,73;0;0;
32479;-16,71;-40,88;-16,71;-40,88;18,2;1,7;18,2;1,7;0;0;
32497;17,91;-38,04;17,91;-38,04;13,53;1,8;13,53;1,8;1;0;
32514;-6,58;-42,98;-6,58;-42,98;15,69;1,81;15,69;1,81;1;0;
32530;98,45;-42,67;98,45;-42,67;19,49;1,74;19,49;1,74;1;0;
32547;-115,81;-40,8;-115,81;-40,8;20,96;1,8;20,96;1,8;1;0;
32564;-115,81;-40,8;-115,81;-40,8;21,71;1,9;21,71;1,9;1;0;
32582;-38,71;-38,44;-38,71;-38,44;23,75;1,89;23,75;1,89;1;0;
32599;-30,75;-41,18;-30,75;-41,18;20,11;1,74;20,11;1,74;1;0;
32616;-30,33;-36,65;-30,33;-36,65;19,53;1,9;19,53;1,9;1;0;
32635;-20,35;-41;-20,35;-41;14,96;1,9;14,96;1,9;1;0;
32654;-90,32;-39,64;-90,32;-39,64;16,11;1,85;16,11;1,85;1;0;
32670;-9,96;-39,27;-9,96;-39,27;17,23;2,04;17,23;2,04;1;0;
32688;-8,47;-35,96;-8,47;-35,96;17,03;2,15;17,03;2,15;1;0;
32705;-8,47;-35,96;-8,47;-35,96;18,77;2,12;18,77;2,12;1;0;
32721;-20,27;-35,61;-20,27;-35,61;18,39;2,02;18,39;2,02;1;0;
32738;-37,06;-40,7;-37,06;-40,7;17,36;2,02;17,36;2,02;1;0;
32755;-97,06;-38,42;-97,06;-38,42;20,58;1,97;20,58;1,97;1;0;
32774;-37,7;-41,8;-37,7;-41,8;20,46;1,95;20,46;1,95;1;0;
32792;-24,29;-38,64;-24,29;-38,64;20,2;1,98;20,2;1,98;1;0;
32808;-11,03;-36,14;-11,03;-36,14;19,67;2,17;19,67;2,17;1;0;
32826;-21,65;-41,14;-21,65;-41,14;21,47;2,14;21,47;2,14;0;0;
32844;-21,65;-41,14;-21,65;-41,14;19,87;2,21;19,87;2,21;0;0;
32863;-78,43;-43,94;-78,43;-43,94;17,59;2,37;17,59;2,37;0;0;
32879;-2,42;-41,61;-2,42;-41,61;15,68;2,55;15,68;2,55;0;0;
32899;-31,05;-39,25;-31,05;-39,25;15,35;2,44;15,35;2,44;0;0;
32916;-28,17;-34,32;-28,17;-34,32;15,17;2,16;15,17;2,16;0;0;
32936;29,34;-39,17;29,34;-39,17;14,24;2,27;14,24;2,27;0;0;
32953;-27,67;-38,12;-27,67;-38,12;17,8;2,06;17,8;2,06;0;0;
32969;-63,05;-40,61;-63,05;-40,61;13,97;1,85;13,97;1,85;0;0;
32987;-1,29;-40,58;-1,29;-40,58;14,03;1,87;14,03;1,87;0;0;
33003;-1,29;-40,58;-1,29;-40,58;13,87;2,03;13,87;2,03;0;0;
33022;-26,81;-39,64;-26,81;-39,64;15,92;1,87;15,92;1,87;0;0;
33040;-24,41;-38,78;-24,41;-38,78;15,92;1,86;15,92;1,86;0;0;
33059;-14,35;-37,54;-14,35;-37,54;17,2;1,77;17,2;1,77;0;0;
33076;-84,92;-41,73;-84,92;-41,73;21,88;1,91;21,88;1,91;0;0;
33094;-24,32;-38,27;-24,32;-38,27;23,24;1,93;23,24;1,93;0;0;
33110;-16,54;-40,33;-16,54;-40,33;27,32;1,79;27,32;1,79;0;0;
33126;-16,54;-40,33;-16,54;-40,33;27,1;1,7;27,1;1,7;0;0;
33142;-23,86;-41,1;-23,86;-41,1;23,81;1,66;23,81;1,66;0;0;
33160;-12,69;-39,62;-12,69;-39,62;26,95;1,56;26,95;1,56;0;0;
33178;10,45;-42,32;10,45;-42,32;24,13;1,79;24,13;1,79;0;0;
33196;21,09;-41,1;21,09;-41,1;24,28;1,75;24,28;1,75;0;0;
33221;-33,24;-37,81;-33,24;-37,81;19,89;1,78;19,89;1,78;0;0;
33244;-13,42;-42,08;-13,42;-42,08;21,07;1,81;21,07;1,81;0;0;
33260;9,59;-40,64;9,59;-40,64;20,88;1,84;20,88;1,84;0;0;
33278;-25,52;-42,14;-25,52;-42,14;21,08;1,67;21,08;1,67;0;0;
33295;-5,37;-40,65;-5,37;-40,65;18;1,6;18;1,6;0;0;
33310;-5,37;-40,65;-5,37;-40,65;15,22;1,65;15,22;1,65;0;0;
33328;-16,48;-38,37;-16,48;-38,37;13,09;1,59;13,09;1,59;0;0;
33345;-16,48;-38,37;-16,48;-38,37;12,33;1,46;12,33;1,46;0;0;
33363;-55,27;-40,62;-55,27;-40,62;12,35;1,45;12,35;1,45;0;0;
33380;-36,72;-35,57;-36,72;-35,57;14,43;1,38;14,43;1,38;0;0;
33396;-27,59;-37,37;-27,59;-37,37;14,15;1,66;14,15;1,66;0;0;
33413;-75;-44,25;-75;-44,25;15,15;1,89;15,15;1,89;0;0;
33431;-57,12;-37,9;-57,12;-37,9;17,39;2,02;17,39;2,02;0;0;
33448;-39,23;-37,68;-39,23;-37,68;22,96;2,06;22,96;2,06;0;0;
33466;-39,23;-37,68;-39,23;-37,68;25,78;2,1;25,78;2,1;0;0;
33483;-41,97;-39,73;-41,97;-39,73;25,63;1,79;25,63;1,79;0;0;
33500;-41,97;-39,73;-41,97;-39,73;26,29;1,5;26,29;1,5;0;0;
33517;-5,07;-40,71;-5,07;-40,71;26,69;1,27;26,69;1,27;0;0;
33534;-38,79;-36,48;-38,79;-36,48;25,14;1,28;25,14;1,28;0;0;
33552;-45,2;-42,74;-45,2;-42,74;25,26;1,55;25,26;1,55;0;0;
33568;-62,41;-36,25;-62,41;-36,25;23,04;1,62;23,04;1,62;0;0;
33585;-62,41;-36,25;-62,41;-36,25;23,07;1,7;23,07;1,7;0;0;
33603;3,39;-40,62;3,39;-40,62;23,63;1,74;23,63;1,74;0;0;
33619;-62,5;-42,7;-62,5;-42,7;24,39;1,97;24,39;1,97;0;0;
33638;-34,29;-37,28;-34,29;-37,28;16,87;1,84;16,87;1,84;0;0;
33658;-78,88;-38,1;-78,88;-38,1;16,63;1,83;16,63;1,83;0;0;
33674;2,82;-40,14;2,82;-40,14;19,81;1,95;19,81;1,95;0;0;
33691;21,08;-38,82;21,08;-38,82;24,72;1,94;24,72;1,94;0;0;
33707;16,61;-40,37;16,61;-40,37;22,35;1,89;22,35;1,89;0;0;
33722;16,61;-40,37;16,61;-40,37;21,75;1,92;21,75;1,92;0;0;
33739;-39,64;-41,12;-39,64;-41,12;27,8;1,93;27,8;1,93;0;0;
33757;-7,94;-36,91;-7,94;-36,91;23,12;1,98;23,12;1,98;0;0;
33776;-52,14;-41,07;-52,14;-41,07;23,5;1,87;23,5;1,87;0;0;
33794;53,13;-44,23;53,13;-44,23;22,19;1,82;22,19;1,82;0;0;
33813;11,66;-38,51;11,66;-38,51;25,76;2;25,76;2;0;0;
33831;-23,77;-41;-23,77;-41;21,61;1,79;21,61;1,79;0;0;
33848;-27,14;-40,08;-27,14;-40,08;18,19;1,85;18,19;1,85;0;0;
33864;-27,14;-40,08;-27,14;-40,08;16,13;1,61;16,13;1,61;0;0;
33882;-53,54;-37,59;-53,54;-37,59;13,37;1,71;13,37;1,71;0;0;
33899;-15,04;-33,63;-15,04;-33,63;11,02;1,72;11,02;1,72;0;0;
33915;-5,91;-43,2;-5,91;-43,2;10,35;1,95;10,35;1,95;0;0;
33932;20,39;-40,49;20,39;-40,49;16,95;1,89;16,95;1,89;0;0;
33951;-22,79;-39,15;-22,79;-39,15;17,78;2,03;17,78;2,03;0;0;
33967;-41,56;-39,8;-41,56;-39,8;18,46;2,24;18,46;2,24;0;0;
33984;-41,56;-39,8;-41,56;-39,8;18,24;2,17;18,24;2,17;0;0;
33999;-25,06;-41,93;-25,06;-41,93;17,14;2,02;17,14;2,02;0;0;
34017;-94,03;-38,9;-94,03;-38,9;12,6;2,04;12,6;2,04;0;0;
34033;12,64;-39,65;12,64;-39,65;15,45;1,93;15,45;1,93;0;0;
34050;-29,5;-41,81;-29,5;-41,81;16,34;2,01;16,34;2,01;0;0;
34067;-61,4;-37,07;-61,4;-37,07;16,27;2,61;16,27;2,61;0;0;
34082;-61,4;-37,07;-61,4;-37,07;16,34;3,04;16,34;3,04;0;0;
34100;-37,97;-37,05;-37,97;-37,05;16,87;2,95;16,87;2,95;0;0;
34115;9,04;-38,3;9,04;-38,3;16,81;3,03;16,81;3,03;0;0;
34132;-28,88;-39,64;-28,88;-39,64;14,07;3,09;14,07;3,09;0;0;
34148;-31,2;-37,04;-31,2;-37,04;13,62;2,76;13,62;2,76;0;0;
34165;-31,2;-37,04;-31,2;-37,04;12,52;2,27;12,52;2,27;0;0;
34182;-39,84;-37,18;-39,84;-37,18;11,72;2,06;11,72;2,06;0;0;
34199;-19,77;-41,35;-19,77;-41,35;11,58;2,06;11,58;2,06;0;0;
34219;-65,37;-38,05;-65,37;-38,05;11,53;2,18;11,53;2,18;0;0;
34236;-15,48;-42,22;-15,48;-42,22;14,61;2,24;14,61;2,24;0;0;
34256;-58,14;-39,64;-58,14;-39,64;15,74;2,22;15,74;2,22;0;0;
34273;-16,4;-43,3;-16,4;-43,3;18,89;2,07;18,89;2,07;0;0;
34291;-22,89;-38,65;-22,89;-38,65;18,26;2,05;18,26;2,05;0;0;
34308;-18,85;-40,54;-18,85;-40,54;17,25;2,18;17,25;2,18;0;0;
34323;-18,85;-40,54;-18,85;-40,54;14,02;2,09;14,02;2,09;0;0;
34339;-39,77;-36,64;-39,77;-36,64;14,41;2,2;14,41;2,2;0;0;
34358;-43,56;-38,31;-43,56;-38,31;15,41;2,03;15,41;2,03;0;0;
34376;-15,65;-38,62;-15,65;-38,62;13,45;1,93;13,45;1,93;0;0;
34396;38,49;-39,67;38,49;-39,67;18,53;1,96;18,53;1,96;0;0;
34412;-24,75;-42,14;-24,75;-42,14;18,08;1,84;18,08;1,84;0;1;
34429;77,21;-39,27;77,21;-39,27;21,34;1,7;21,34;1,7;0;1;
34445;77,21;-39,27;77,21;-39,27;23,17;1,73;23,17;1,73;0;1;
34462;-43,16;-37,68;-43,16;-37,68;22,32;1,96;22,32;1,96;0;1;
34479;-11,97;-39,11;-11,97;-39,11;22,75;2,04;22,75;2,04;0;1;
34498;-7,47;-38,29;-7,47;-38,29;18,56;2,13;18,56;2,13;0;1;
34514;-36,47;-38,66;-36,47;-38,66;18,98;2,22;18,98;2,22;0;1;
34533;-3,21;-41,01;-3,21;-41,01;14,5;2,18;14,5;2,18;0;1;
34550;-21,54;-37,74;-21,54;-37,74;14,53;2;14,53;2;0;1;
34568;-48,8;-41,34;-48,8;-41,34;18,97;1,78;18,97;1,78;0;1;
34587;-1,03;-34,41;-1,03;-34,41;19,33;1,79;19,33;1,79;0;1;
34603;-1,03;-34,41;-1,03;-34,41;18,77;1,83;18,77;1,83;0;1;
34619;-42,59;-37,19;-42,59;-37,19;19,13;1,88;19,13;1,88;0;1;
34636;-21,24;-37,19;-21,24;-37,19;18,2;1,94;18,2;1,94;0;1;
34653;-20,52;-39,14;-20,52;-39,14;15,79;2,2;15,79;2,2;0;1;
34670;-28,13;-36,08;-28,13;-36,08;16,34;2,37;16,34;2,37;0;1;
34688;-33,46;-38,88;-33,46;-38,88;19,11;2,56;19,11;2,56;0;1;
34705;-33,46;-38,88;-33,46;-38,88;21,71;2,66;21,71;2,66;0;1;
34721;-23,67;-37,7;-23,67;-37,7;22,5;2,48;22,5;2,48;0;1;
34738;-27,25;-39,67;-27,25;-39,67;21,19;2,49;21,19;2,49;0;1;
34756;-42,67;-39,1;-42,67;-39,1;15,9;2,24;15,9;2,24;0;1;
34774;-11,22;-37,56;-11,22;-37,56;16,05;2,03;16,05;2,03;0;0;
34793;-20,82;-36,18;-20,82;-36,18;12,57;1,74;12,57;1,74;0;0;
34812;-9,67;-41,35;-9,67;-41,35;11,34;1,54;11,34;1,54;0;0;
34829;26,38;-39,41;26,38;-39,41;18,43;1,54;18,43;1,54;0;0;
34852;-19,64;-39,01;-19,64;-39,01;18,76;1,64;18,76;1,64;0;0;
34872;-13,39;-37,69;-13,39;-37,69;19,44;1,74;19,44;1,74;0;0;
34891;-18,06;-42,41;-18,06;-42,41;21,33;1,99;21,33;1,99;0;0;
34909;-35,02;-39,61;-35,02;-39,61;21,99;2,07;21,99;2,07;0;0;
34927;-34,04;-39,27;-34,04;-39,27;20,48;2,13;20,48;2,13;0;0;
34947;-42,34;-39,26;-42,34;-39,26;19,72;1,96;19,72;1,96;0;0;
34964;-42,34;-39,26;-42,34;-39,26;23,42;1,98;23,42;1,98;0;0;
34981;-32,97;-41,25;-32,97;-41,25;24,24;1,87;24,24;1,87;0;0;
34999;-30,3;-34,92;-30,3;-34,92;21,7;1,69;21,7;1,69;0;0;
35015;-16,08;-43,03;-16,08;-43,03;24,43;1,82;24,43;1,82;0;0;
35034;-15,95;-40,64;-15,95;-40,64;20,75;1,78;20,75;1,78;0;0;
35050;-16,55;-40,34;-16,55;-40,34;16,97;1,79;16,97;1,79;0;0;
35067;-16,55;-40,34;-16,55;-40,34;13,3;1,73;13,3;1,73;0;0;
35083;-24,29;-38,43;-24,29;-38,43;15,09;1,71;15,09;1,71;0;0;
35099;-40,35;-38,98;-40,35;-38,98;14,34;1,63;14,34;1,63;0;0;
35115;-31,4;-39,51;-31,4;-39,51;14,01;1,58;14,01;1,58;0;0;
35133;-22,32;-38,13;-22,32;-38,13;16,11;1,78;16,11;1,78;1;0;
35150;-41,57;-38,27;-41,57;-38,27;16,05;1,87;16,05;1,87;1;0;
35166;-41,57;-38,27;-41,57;-38,27;12,13;1,98;12,13;1,98;1;0;
35183;-28,19;-38,39;-28,19;-38,39;10,97;2,03;10,97;2,03;1;0;
35199;30,78;-44,67;30,78;-44,67;10,9;2;10,9;2;1;0;
35217;-28,36;-38,9;-28,36;-38,9;18,39;1,93;18,39;1,93;1;0;
35234;-62,98;-37,62;-62,98;-37,62;19,01;1,82;19,01;1,82;1;0;
35251;-24,54;-39,83;-24,54;-39,83;19,32;1,76;19,32;1,76;1;0;
35268;-34,88;-43,93;-34,88;-43,93;18,74;2,02;18,74;2,02;1;0;
35284;-34,88;-43,93;-34,88;-43,93;19,17;2,3;19,17;2,3;1;0;
35300;-18,86;-41,37;-18,86;-41,37;16,44;2,26;16,44;2,26;1;0;
35316;-18,45;-41,1;-18,45;-41,1;17,74;2,36;17,74;2,36;1;0;
35333;-28,59;-43,39;-28,59;-43,39;16,59;2,39;16,59;2,39;1;0;
35349;-20,03;-45,41;-20,03;-45,41;17,97;2,28;17,97;2,28;1;0;
35368;-31,37;-39,19;-31,37;-39,19;18,23;2,06;18,23;2,06;1;0;
35387;-39,52;-40,7;-39,52;-40,7;19,27;1,99;19,27;1,99;1;0;
35403;-39,52;-40,7;-39,52;-40,7;18,69;1,87;18,69;1,87;1;0;
35419;-18,59;-40,66;-18,59;-40,66;18,68;2,04;18,68;2,04;1;0;
35435;-10,52;-39,18;-10,52;-39,18;23,97;2,18;23,97;2,18;1;0;
35451;-15,41;-40,27;-15,41;-40,27;26,35;2,09;26,35;2,09;1;0;
35467;-15,69;-35,85;-15,69;-35,85;30,85;2;30,85;2;1;0;
35484;-15,69;-35,85;-15,69;-35,85;33,53;1,89;33,53;1,89;1;0;
35504;-61,32;-43,3;-61,32;-43,3;30,28;2,07;30,28;2,07;0;0;
35526;-18,13;-37,93;-18,13;-37,93;30,64;1,81;30,64;1,81;0;0;
35544;-85,29;-39,57;-85,29;-39,57;30,51;1,83;30,51;1,83;0;0;
35563;-25,69;-41,61;-25,69;-41,61;29,78;1,89;29,78;1,89;0;0;
35580;-54,96;-38,06;-54,96;-38,06;30,19;1,83;30,19;1,83;0;0;
35598;20,94;-38,77;20,94;-38,77;31,35;1,8;31,35;1,8;0;0;
35617;55,68;-41,42;55,68;-41,42;31,63;1,67;31,63;1,67;0;0;
35634;55,68;-41,42;55,68;-41,42;31,86;1,57;31,86;1,57;0;0;
35653;-40,69;-38,01;-40,69;-38,01;28,29;1,81;28,29;1,81;0;0;
35669;-23,57;-41,48;-23,57;-41,48;28,27;1,92;28,27;1,92;0;0;
35688;-2,74;-38,63;-2,74;-38,63;25,64;2,3;25,64;2,3;0;0;
35707;48,65;-39,86;48,65;-39,86;29,91;2,47;29,91;2,47;0;0;
35726;48,65;-39,86;48,65;-39,86;33,82;2,52;33,82;2,52;0;0;
35741;-21,7;-37,88;-21,7;-37,88;32,68;2,47;32,68;2,47;0;0;
35757;-9,39;-39,62;-9,39;-39,62;37,34;2,3;37,34;2,3;0;0;
35775;-59,59;-41,85;-59,59;-41,85;42,21;2,29;42,21;2,29;0;0;
35794;-49,44;-38,24;-49,44;-38,24;47,4;2,13;47,4;2,13;0;0;
35812;-24,56;-41,04;-24,56;-41,04;42,56;2,05;42,56;2,05;0;0;
35830;-13,84;-39,62;-13,84;-39,62;39,28;1,86;39,28;1,86;0;0;
35845;-13,84;-39,62;-13,84;-39,62;39,4;1,76;39,4;1,76;0;0;
35863;-46,2;-36,56;-46,2;-36,56;30,56;1,6;30,56;1,6;0;0;
35881;20,41;-39,28;20,41;-39,28;25,59;1,66;25,59;1,66;0;0;
35899;10,3;-43,13;10,3;-43,13;24,43;1,58;24,43;1,58;0;0;
35916;-21,78;-43,67;-21,78;-43,67;25,55;1,62;25,55;1,62;0;0;
35931;-16,47;-35,96;-16,47;-35,96;27,29;1,77;27,29;1,77;0;0;
35949;-46,31;-35,72;-46,31;-35,72;28,94;1,83;28,94;1,83;0;0;
35964;-46,31;-35,72;-46,31;-35,72;31,32;1,78;31,32;1,78;0;0;
35980;-27,96;-45,88;-27,96;-45,88;26,49;1,98;26,49;1,98;0;0;
35997;-8,96;-40,11;-8,96;-40,11;23,86;1,99;23,86;1,99;0;0;
36013;-34,09;-40,6;-34,09;-40,6;20,3;1,96;20,3;1,96;0;0;
36030;-86,91;-38,91;-86,91;-38,91;21,01;1,85;21,01;1,85;0;0;
36047;-66,85;-41,64;-66,85;-41,64;20,77;1,82;20,77;1,82;0;0;
36065;-66,85;-41,64;-66,85;-41,64;23,15;1,76;23,15;1,76;0;0;
36081;-29,66;-39,81;-29,66;-39,81;25,51;1,65;25,51;1,65;0;0;
36098;2,41;-41,81;2,41;-41,81;24,76;1,81;24,76;1,81;0;0;
36115;-64,21;-38,53;-64,21;-38,53;27,25;1,77;27,25;1,77;0;0;
36135;55,31;-40,01;55,31;-40,01;28,88;1,99;28,88;1,99;0;0;
36151;-10,62;-39,34;-10,62;-39,34;25,38;1,9;25,38;1,9;0;0;
36167;-20,71;-34,84;-20,71;-34,84;20,37;1,84;20,37;1,84;0;0;
36182;-20,71;-34,84;-20,71;-34,84;21,25;1,74;21,25;1,74;0;0;
36199;-45,23;-38,05;-45,23;-38,05;25,23;1,62;25,23;1,62;0;0;
36217;-22,82;-37,55;-22,82;-37,55;23,21;1,76;23,21;1,76;0;0;
36235;-17,18;-38,54;-17,18;-38,54;24,97;1,79;24,97;1,79;0;0;
36251;-10,44;-41,6;-10,44;-41,6;27,77;2,07;27,77;2,07;0;0;
36268;-18,53;-38,14;-18,53;-38,14;27,95;2,27;27,95;2,27;0;0;
36287;-13,76;-42,58;-13,76;-42,58;25,39;2,21;25,39;2,21;0;0;
36303;-13,76;-42,58;-13,76;-42,58;19,14;2,14;19,14;2,14;0;0;
36319;-33,35;-37,7;-33,35;-37,7;13,69;2,13;13,69;2,13;0;1;
36335;-70,5;-43,55;-70,5;-43,55;12,78;2,2;12,78;2,2;0;1;
36352;-70,5;-43,55;-70,5;-43,55;15,3;1,92;15,3;1,92;0;1;
36369;6,93;-41,4;6,93;-41,4;15,89;1,83;15,89;1,83;0;1;
36388;-32,07;-39,14;-32,07;-39,14;17,7;1,8;17,7;1,8;0;1;
36406;-32,07;-39,14;-32,07;-39,14;19,43;1,66;19,43;1,66;0;1;
36428;-12,45;-39,12;-12,45;-39,12;19,18;1,7;19,18;1,7;0;1;
36444;-12,45;-39,12;-12,45;-39,12;16,99;1,75;16,99;1,75;0;1;
36462;-30,45;-42,32;-30,45;-42,32;14,17;1,79;14,17;1,79;0;1;
