Time;EMG1;EMG2;EMG3;EMG4;EMG1_F;EMG2_F;EMG3_F;EMG4_F;Note_R;Note_V;;Level 3;Joueur;Score;Notes hit;% Reussite R;Offset EMG1;Onset EMG1;% Reussite V;Offset EMG2;Onset EMG2
9;-10,92;-1,22;-10,92;-1,22;3,18;2,21;3,18;2,21;0;0;;;1;9000;86;46,46465;-16,25558;29,57016;40,40404;-6,17545;22,28927
34;-17,74;-3,61;-17,74;-3,61;3,32;2,32;3,32;2,32;0;0;;;2;9100;88;48,48485;-16,25558;29,57016;40,40404;-6,17545;22,28927
53;-18,95;-6,7;-18,95;-6,7;3,52;2,45;3,52;2,45;0;0;
74;-16,13;-7,11;-16,13;-7,11;3,28;2,17;3,28;2,17;0;0;
101;-21,45;-4,72;-21,45;-4,72;3,28;1,97;3,28;1,97;0;0;
122;-16,39;-0,21;-16,39;-0,21;3,44;2,14;3,44;2,14;0;0;
141;-13,59;-6,74;-13,59;-6,74;3,4;2,25;3,4;2,25;0;0;
159;-22,62;-5,83;-22,62;-5,83;3,09;2,35;3,09;2,35;0;0;
176;-20,21;-3,63;-20,21;-3,63;3,25;2,53;3,25;2,53;0;0;
193;-17;-5,47;-17;-5,47;3,14;2,9;3,14;2,9;0;0;
212;-11,87;-7,69;-11,87;-7,69;3,05;2,88;3,05;2,88;0;0;
229;-11,87;-7,69;-11,87;-7,69;3,25;2,82;3,25;2,82;0;0;
249;-17,41;-7,78;-17,41;-7,78;3,44;2,57;3,44;2,57;0;0;
265;-18,18;-9,04;-18,18;-9,04;3,74;2,57;3,74;2,57;0;0;
281;-9,99;-9,06;-9,99;-9,06;3,55;2,17;3,55;2,17;0;0;
300;-16,5;-4,32;-16,5;-4,32;4,07;2,23;4,07;2,23;0;0;
318;-15,32;-2,27;-15,32;-2,27;3,73;2,14;3,73;2,14;0;0;
335;-17,61;-15,47;-17,61;-15,47;3,55;2,4;3,55;2,4;0;0;
352;-12,62;-9,01;-12,62;-9,01;3,07;2,55;3,07;2,55;0;0;
371;-15,48;-8,86;-15,48;-8,86;3,11;2,6;3,11;2,6;0;0;
389;-15,48;-8,86;-15,48;-8,86;2,68;2,44;2,68;2,44;0;0;
409;-11,96;-5,47;-11,96;-5,47;2,68;2,37;2,68;2,37;0;0;
427;-21,49;-1,76;-21,49;-1,76;2,88;2,34;2,88;2,34;0;0;
448;-18,5;-5,49;-18,5;-5,49;2,86;2,3;2,86;2,3;0;0;
465;-8,15;-4,75;-8,15;-4,75;2,79;2,37;2,79;2,37;0;0;
482;-14,72;-3,46;-14,72;-3,46;2,86;2,18;2,86;2,18;0;0;
500;-16,66;-6,17;-16,66;-6,17;2,98;2,32;2,98;2,32;0;0;
518;-8,07;-6,93;-8,07;-6,93;3,15;2,29;3,15;2,29;0;0;
539;-16,93;-1,15;-16,93;-1,15;3,17;2,41;3,17;2,41;0;0;
560;-20,51;-3,03;-20,51;-3,03;3,81;2,25;3,81;2,25;0;0;
577;-8,98;-4,7;-8,98;-4,7;3,79;2,32;3,79;2,32;0;0;
595;-14,8;-4,79;-14,8;-4,79;3,87;2,38;3,87;2,38;0;0;
612;-16,4;-9,5;-16,4;-9,5;4,12;2,23;4,12;2,23;0;0;
631;-7,77;-7,15;-7,77;-7,15;4,17;2,37;4,17;2,37;0;0;
651;-17,65;-4,71;-17,65;-4,71;3,68;2,31;3,68;2,31;0;0;
666;-17,65;-4,71;-17,65;-4,71;3,08;2,5;3,08;2,5;0;0;
686;-12,05;-8,13;-12,05;-8,13;3,36;2,65;3,36;2,65;0;0;
704;-15,56;-6,78;-15,56;-6,78;3,23;2,82;3,23;2,82;0;0;
723;-21,25;-3,97;-21,25;-3,97;2,8;2,79;2,8;2,79;0;0;
741;-18,36;-6,78;-18,36;-6,78;2,94;2,73;2,94;2,73;0;0;
759;-22,74;-9,07;-22,74;-9,07;3,39;2,37;3,39;2,37;0;0;
776;-17,59;-13,67;-17,59;-13,67;3,47;2,19;3,47;2,19;0;0;
793;-13,5;-7,05;-13,5;-7,05;3,37;2,23;3,37;2,23;0;0;
809;-13,5;-7,05;-13,5;-7,05;3,39;2,23;3,39;2,23;0;0;
828;-11,52;-9,46;-11,52;-9,46;3,31;2,31;3,31;2,31;0;0;
846;-14,11;-7,41;-14,11;-7,41;2,97;2,3;2,97;2,3;0;0;
861;-20,17;-9,01;-20,17;-9,01;2,95;2,45;2,95;2,45;0;0;
883;-20,21;-7,76;-20,21;-7,76;2,85;2,3;2,85;2,3;0;0;
902;-11,83;-3,18;-11,83;-3,18;2,92;2,2;2,92;2,2;0;0;
925;-21,5;-6,05;-21,5;-6,05;3,04;2,27;3,04;2,27;0;0;
942;-21,75;-12,08;-21,75;-12,08;3,58;2,19;3,58;2,19;0;0;
961;-11,51;-8,67;-11,51;-8,67;3,59;2,28;3,59;2,28;0;0;
979;-20,84;-10,15;-20,84;-10,15;3,56;2,54;3,56;2,54;0;0;
997;-13,63;-6,21;-13,63;-6,21;3,62;2,36;3,62;2,36;0;0;
1015;-14,18;-10,36;-14,18;-10,36;3,56;2,21;3,56;2,21;0;0;
1036;-13,83;-7,29;-13,83;-7,29;3,95;2,3;3,95;2,3;0;0;
1057;-21,31;-9,62;-21,31;-9,62;3,95;2,2;3,95;2,2;0;0;
1078;-14,18;-4,41;-14,18;-4,41;3,8;2,27;3,8;2,27;0;0;
1096;-14,18;-4,41;-14,18;-4,41;3,5;2,02;3,5;2,02;0;0;
1114;-19,85;-4,45;-19,85;-4,45;3,78;2,18;3,78;2,18;0;0;
1132;-17,08;-8,99;-17,08;-8,99;3,35;2,24;3,35;2,24;0;0;
1151;-19,03;-5,21;-19,03;-5,21;2,91;2,29;2,91;2,29;0;0;
1169;-19,03;-5,21;-19,03;-5,21;2,95;2,21;2,95;2,21;0;0;
1189;-19,38;-7,8;-19,38;-7,8;3,14;2,17;3,14;2,17;0;0;
1205;-19,43;-6,44;-19,43;-6,44;3,03;2,5;3,03;2,5;0;0;
1224;-13,71;-7,84;-13,71;-7,84;3,27;2,26;3,27;2,26;0;0;
1240;-19,17;-8,04;-19,17;-8,04;3,28;2,06;3,28;2,06;0;0;
1257;-21,62;-1,32;-21,62;-1,32;3,83;2,24;3,83;2,24;0;0;
1274;-20,89;-8,55;-20,89;-8,55;3,75;2,66;3,75;2,66;0;0;
1295;-23,23;-7,24;-23,23;-7,24;3,87;2,49;3,87;2,49;0;0;
1314;-8,18;-3,01;-8,18;-3,01;4,24;2,25;4,24;2,25;0;0;
1332;-11,04;-6,36;-11,04;-6,36;4,3;2,48;4,3;2,48;0;0;
1354;-9,55;-5,22;-9,55;-5,22;4,34;2,49;4,34;2,49;0;0;
1372;-17,42;-2,21;-17,42;-2,21;3,86;1,96;3,86;1,96;0;0;
1388;-17,42;-2,21;-17,42;-2,21;4;1,68;4;1,68;0;0;
1406;-21,16;-10,56;-21,16;-10,56;4,47;1,85;4,47;1,85;0;0;
1423;-23,88;-9,39;-23,88;-9,39;4,08;2,06;4,08;2,06;0;0;
1438;-17,29;-10,35;-17,29;-10,35;4,02;2,13;4,02;2,13;0;0;
1457;-17,4;-4,4;-17,4;-4,4;3,74;2,06;3,74;2,06;0;0;
1474;-19,01;-3,19;-19,01;-3,19;3,59;2,25;3,59;2,25;0;0;
1493;-19,23;-2,98;-19,23;-2,98;3,65;2,12;3,65;2,12;0;0;
1513;-19,9;-5,35;-19,9;-5,35;3,18;2,01;3,18;2,01;0;0;
1531;-14,97;-5,22;-14,97;-5,22;2,96;1,82;2,96;1,82;0;0;
1550;-18,64;-6,88;-18,64;-6,88;2,82;1,72;2,82;1,72;0;0;
1568;-18,64;-6,88;-18,64;-6,88;2,78;1,71;2,78;1,71;0;0;
1585;-19,04;-9,65;-19,04;-9,65;2,81;2;2,81;2;0;0;
1605;-17,77;-4,71;-17,77;-4,71;2,58;2,06;2,58;2,06;0;0;
1622;-9,37;-9,75;-9,37;-9,75;2,83;1,82;2,83;1,82;0;0;
1641;-9,41;0,7;-9,41;0,7;2,67;2,21;2,67;2,21;0;0;
1660;-12,31;-5,88;-12,31;-5,88;2,7;2,31;2,7;2,31;0;0;
1679;-16,66;-10,61;-16,66;-10,61;3,15;2,33;3,15;2,33;0;0;
1698;-22,15;-5,88;-22,15;-5,88;3,01;2,33;3,01;2,33;0;0;
1715;-22,15;-5,88;-22,15;-5,88;3;2,53;3;2,53;0;0;
1731;-15,2;-6,7;-15,2;-6,7;2,94;2,63;2,94;2,63;0;0;
1749;-15,2;-6,7;-15,2;-6,7;3,02;2,55;3,02;2,55;0;0;
1765;-23,68;-6,67;-23,68;-6,67;2,91;2,52;2,91;2,52;0;0;
1782;-16,16;-6,57;-16,16;-6,57;3,15;2,29;3,15;2,29;0;0;
1800;-22,59;-3,74;-22,59;-3,74;3,43;1,98;3,43;1,98;0;0;
1819;-18,08;-9,85;-18,08;-9,85;3,94;2,02;3,94;2,02;0;0;
1839;-10,51;-5,87;-10,51;-5,87;3,76;2,08;3,76;2,08;0;0;
1856;-14,19;-3,2;-14,19;-3,2;4,01;1,86;4,01;1,86;0;0;
1873;-12,63;-6,12;-12,63;-6,12;3,42;2,28;3,42;2,28;0;0;
1895;-17,04;-10,07;-17,04;-10,07;3,5;2,45;3,5;2,45;0;0;
1914;-20,41;-6,08;-20,41;-6,08;3,04;2,48;3,04;2,48;0;0;
1932;-18,66;-3,21;-18,66;-3,21;3,02;2,17;3,02;2,17;0;0;
1948;-18,66;-3,21;-18,66;-3,21;3,07;2,06;3,07;2,06;0;0;
1965;-10,91;-5;-10,91;-5;3,22;2,09;3,22;2,09;0;0;
1984;-15,77;-3,41;-15,77;-3,41;3,26;1,81;3,26;1,81;0;0;
2006;-16,65;-7,03;-16,65;-7,03;3,53;1,68;3,53;1,68;0;0;
2024;-16,61;-5,47;-16,61;-5,47;3,19;1,87;3,19;1,87;0;0;
2041;-16,85;-3,96;-16,85;-3,96;3,13;2,05;3,13;2,05;0;0;
2060;-21,6;-7,05;-21,6;-7,05;3,21;1,96;3,21;1,96;0;0;
2079;-15,56;-5,46;-15,56;-5,46;3,22;2;3,22;2;0;0;
2099;-12,71;-5,06;-12,71;-5,06;3,3;2,13;3,3;2,13;0;0;
2115;-15,89;-9,16;-15,89;-9,16;3,57;2;3,57;2;0;0;
2133;-22,82;-6,04;-22,82;-6,04;3,6;1,83;3,6;1,83;0;0;
2150;-22,82;-6,04;-22,82;-6,04;3,39;1,71;3,39;1,71;0;0;
2173;-17,82;-7,65;-17,82;-7,65;3,01;1,8;3,01;1,8;0;0;
2190;-17,82;-7,65;-17,82;-7,65;3,01;1,83;3,01;1,83;0;0;
2207;-23,47;-8,37;-23,47;-8,37;2,85;1,97;2,85;1,97;0;0;
2225;-14,84;-3,13;-14,84;-3,13;2,85;2,38;2,85;2,38;0;0;
2243;-15,74;-2,71;-15,74;-2,71;2,95;2,53;2,95;2,53;0;0;
2261;-21,5;-6,67;-21,5;-6,67;2,9;3,07;2,9;3,07;0;0;
2281;-10,93;-8,27;-10,93;-8,27;3;3,28;3;3,28;0;0;
2301;-18,25;-1,54;-18,25;-1,54;3,3;3,28;3,3;3,28;0;0;
2323;-17,93;-5,78;-17,93;-5,78;3,35;3,15;3,35;3,15;0;0;
2340;-20,84;-9,71;-20,84;-9,71;3,31;3,05;3,31;3,05;0;0;
2358;-23,37;-3,42;-23,37;-3,42;3,46;3,28;3,46;3,28;0;0;
2375;-16,25;-3,5;-16,25;-3,5;3,03;2,75;3,03;2,75;0;0;
2392;-18,09;-10,47;-18,09;-10,47;2,97;2,95;2,97;2,95;0;0;
2408;-18,09;-10,47;-18,09;-10,47;3,27;2,9;3,27;2,9;0;0;
2429;-11,04;-7,53;-11,04;-7,53;3,5;2,76;3,5;2,76;0;0;
2447;-10,98;-3,73;-10,98;-3,73;3,77;2,41;3,77;2,41;0;0;
2465;-8,42;-4,92;-8,42;-4,92;4,23;2,06;4,23;2,06;0;0;
2494;-11,15;-0,8;-11,15;-0,8;4,14;1,81;4,14;1,81;0;0;
2512;-21,02;-6,79;-21,02;-6,79;3,93;1,57;3,93;1,57;0;0;
2529;-21,02;-6,79;-21,02;-6,79;3,99;1,57;3,99;1,57;0;0;
2546;-21,24;-6,3;-21,24;-6,3;3,24;1,63;3,24;1,63;0;0;
2565;-18,69;-8,77;-18,69;-8,77;3;1,68;3;1,68;0;0;
2582;-13,68;-7,98;-13,68;-7,98;3,31;1,91;3,31;1,91;0;0;
2599;-13,38;-3,18;-13,38;-3,18;3,46;2,04;3,46;2,04;0;0;
2617;-15,4;-7,85;-15,4;-7,85;3,21;2,17;3,21;2,17;0;0;
2637;-7,49;-5,08;-7,49;-5,08;3,5;2,14;3,5;2,14;0;0;
2655;-18,79;-6,6;-18,79;-6,6;3,97;2,13;3,97;2,13;0;0;
2673;-11,65;-10,55;-11,65;-10,55;3,95;2,02;3,95;2,02;0;0;
2692;-20,25;-8,06;-20,25;-8,06;4,22;2,28;4,22;2,28;0;0;
2708;-20,25;-8,06;-20,25;-8,06;4,36;2,3;4,36;2,3;0;0;
2725;-14,01;-6,56;-14,01;-6,56;4,19;2,45;4,19;2,45;0;0;
2746;-13,27;-6,55;-13,27;-6,55;4,1;2,55;4,1;2,55;0;0;
2766;-14,45;-3,52;-14,45;-3,52;4,12;2,57;4,12;2,57;0;0;
2784;-15,11;-2,31;-15,11;-2,31;3,88;2,52;3,88;2,52;0;0;
2804;-19,38;-6,68;-19,38;-6,68;3,29;2,64;3,29;2,64;0;0;
2822;-13,27;-6,31;-13,27;-6,31;3,32;2,34;3,32;2,34;0;0;
2840;-18,08;-5,31;-18,08;-5,31;2,78;2,45;2,78;2,45;0;0;
2856;-16,41;-2,29;-16,41;-2,29;2,76;2,53;2,76;2,53;0;0;
2874;-16,47;-8,89;-16,47;-8,89;2,3;2,56;2,3;2,56;0;0;
2891;-22,06;-4,97;-22,06;-4,97;2,56;2,49;2,56;2,49;0;0;
2909;-22,06;-4,97;-22,06;-4,97;2,63;2,58;2,63;2,58;0;0;
2929;-13,36;-9,88;-13,36;-9,88;2,71;2,62;2,71;2,62;0;0;
2945;-20,26;-10,55;-20,26;-10,55;2,37;2,37;2,37;2,37;0;0;
2967;-18,46;-0,4;-18,46;-0,4;2,9;2,62;2,9;2,62;0;0;
2985;-17,26;-1,99;-17,26;-1,99;3,28;2,67;3,28;2,67;0;0;
3003;-15,44;-6,39;-15,44;-6,39;3,16;2,62;3,16;2,62;0;0;
3019;-18,12;-4,92;-18,12;-4,92;2,85;2,61;2,85;2,61;0;0;
3036;-13,84;-4,71;-13,84;-4,71;3,14;2,44;3,14;2,44;0;0;
3054;-17,31;-3,1;-17,31;-3,1;3,4;2,48;3,4;2,48;0;0;
3075;-24,05;-7,9;-24,05;-7,9;3,31;2,32;3,31;2,32;0;0;
3095;-15,93;-9,61;-15,93;-9,61;3,2;2,28;3,2;2,28;0;0;
3112;-9,17;-4,59;-9,17;-4,59;3,4;2,14;3,4;2,14;0;0;
3133;-14,77;-11,44;-14,77;-11,44;3,49;2,37;3,49;2,37;0;0;
3149;-14,77;-11,44;-14,77;-11,44;3,26;2,43;3,26;2,43;0;0;
3168;-11,39;-6;-11,39;-6;3,6;2,41;3,6;2,41;0;0;
3185;-18,98;-3,74;-18,98;-3,74;3,55;2,42;3,55;2,42;0;0;
3201;-18,94;-9,48;-18,94;-9,48;3,39;2,39;3,39;2,39;0;0;
3221;-22,71;-10,1;-22,71;-10,1;3,19;2,23;3,19;2,23;0;0;
3238;-15,46;-6,26;-15,46;-6,26;3,19;2,05;3,19;2,05;0;0;
3255;-18,25;-10,54;-18,25;-10,54;2,9;2,11;2,9;2,11;0;0;
3272;-15,15;-4,19;-15,15;-4,19;2,52;1,85;2,52;1,85;0;0;
3293;-10,44;-7,77;-10,44;-7,77;2,69;1,88;2,69;1,88;0;0;
3309;-10,44;-7,77;-10,44;-7,77;2,97;1,86;2,97;1,86;0;0;
3327;-25,53;-5,36;-25,53;-5,36;3,07;2,13;3,07;2,13;0;0;
3344;-18,03;-6,61;-18,03;-6,61;3,34;2,37;3,34;2,37;0;0;
3362;-19,9;-11,9;-19,9;-11,9;3,42;2,14;3,42;2,14;0;0;
3379;-11,84;-10,74;-11,84;-10,74;3,86;2,07;3,86;2,07;0;0;
3398;-19,17;-11,06;-19,17;-11,06;4,05;2,24;4,05;2,24;0;0;
3417;-25,63;-5,52;-25,63;-5,52;4,12;2,09;4,12;2,09;0;0;
3434;-8,43;-5,99;-8,43;-5,99;4,25;1,85;4,25;1,85;0;0;
3457;-20,19;-3,3;-20,19;-3,3;4,24;1,86;4,24;1,86;0;0;
3475;-17,08;-7,37;-17,08;-7,37;4,88;2,01;4,88;2,01;0;0;
3492;-19,51;-8,78;-19,51;-8,78;4,78;1,93;4,78;1,93;0;0;
3508;-19,51;-8,78;-19,51;-8,78;4,6;1,64;4,6;1,64;0;0;
3525;-16,36;-3,67;-16,36;-3,67;4,36;1,99;4,36;1,99;0;0;
3542;-13,69;-7,61;-13,69;-7,61;4,01;2,07;4,01;2,07;0;0;
3562;-13,88;-4,7;-13,88;-4,7;4,19;2,13;4,19;2,13;0;0;
3581;-15,37;-6,63;-15,37;-6,63;3,78;2,13;3,78;2,13;0;0;
3598;-20,64;-9,34;-20,64;-9,34;3,72;2,27;3,72;2,27;0;0;
3618;-24,46;-7,79;-24,46;-7,79;3,33;2,2;3,33;2,2;0;0;
3637;-19,32;-5,09;-19,32;-5,09;3,64;2,11;3,64;2,11;0;0;
3655;-20,64;-2,62;-20,64;-2,62;3,78;1,8;3,78;1,8;0;0;
3674;-15,09;-8,75;-15,09;-8,75;3,33;1,67;3,33;1,67;0;0;
3692;-17,34;-6,08;-17,34;-6,08;3,01;1,89;3,01;1,89;0;0;
3710;-8,1;-13,41;-8,1;-13,41;3,67;2,16;3,67;2,16;0;0;
3729;-8,1;-13,41;-8,1;-13,41;4,07;2,46;4,07;2,46;0;0;
3744;-20,01;-7,57;-20,01;-7,57;4,32;2,5;4,32;2,5;0;0;
3761;-13,65;-6,4;-13,65;-6,4;4,45;2,61;4,45;2,61;0;0;
3783;-8,59;-4,98;-8,59;-4,98;4,59;2,89;4,59;2,89;0;0;
3800;-19,49;-8,46;-19,49;-8,46;4,78;2,93;4,78;2,93;0;0;
3817;-17,34;-4,37;-17,34;-4,37;4,02;2,69;4,02;2,69;0;0;
3835;-17,97;-4,46;-17,97;-4,46;3,03;2,37;3,03;2,37;0;0;
3855;-12,13;-4;-12,13;-4;2,83;2,38;2,83;2,38;0;0;
3872;-12,35;-8,77;-12,35;-8,77;2,99;2,39;2,99;2,39;0;0;
3892;-12,31;-6,29;-12,31;-6,29;3;2,34;3;2,34;0;0;
3908;-12,31;-6,29;-12,31;-6,29;3,25;2,33;3,25;2,33;0;0;
3926;-19,16;-8,76;-19,16;-8,76;3,21;2,2;3,21;2,2;0;0;
3945;-14,25;-7,78;-14,25;-7,78;3,4;2,21;3,4;2,21;0;0;
3964;-16,13;-4,7;-16,13;-4,7;3,3;2,19;3,3;2,19;0;0;
3983;-17,66;-7,24;-17,66;-7,24;2,93;2,3;2,93;2,3;0;0;
4000;-18,92;-8,52;-18,92;-8,52;2,72;2,32;2,72;2,32;0;0;
4018;-10,01;-8,59;-10,01;-8,59;3,05;2,26;3,05;2,26;0;0;
4037;-15,9;-7,66;-15,9;-7,66;3,07;2,5;3,07;2,5;0;0;
4053;-18,97;-7,64;-18,97;-7,64;2,89;2,86;2,89;2,86;0;0;
4077;-16,5;-4,2;-16,5;-4,2;3,27;2,79;3,27;2,79;0;0;
4100;-12,47;-2,04;-12,47;-2,04;3,2;2,91;3,2;2,91;0;0;
4119;-17,14;-7,05;-17,14;-7,05;3,18;2,64;3,18;2,64;0;0;
4136;-14,55;-4,09;-14,55;-4,09;3,44;2,71;3,44;2,71;0;0;
4154;-13,38;-4,58;-13,38;-4,58;3,99;2,26;3,99;2,26;0;0;
4173;-16,89;-9,74;-16,89;-9,74;4,06;2,1;4,06;2,1;0;0;
4191;-19,77;-2,49;-19,77;-2,49;4,03;1,86;4,03;1,86;0;0;
4213;-16,01;-6,68;-16,01;-6,68;4,09;1,77;4,09;1,77;0;0;
4229;-16,01;-6,68;-16,01;-6,68;4,14;1,94;4,14;1,94;0;0;
4249;-20,01;-7,15;-20,01;-7,15;3,95;2,3;3,95;2,3;0;0;
4265;-15,11;-2,08;-15,11;-2,08;3,67;2,28;3,67;2,28;0;0;
4287;-15,61;-7,85;-15,61;-7,85;3,6;2,3;3,6;2,3;0;0;
4307;-8,29;-6,62;-8,29;-6,62;3,6;2,11;3,6;2,11;0;0;
4326;-16,09;-8,06;-16,09;-8,06;3,64;2,24;3,64;2,24;0;0;
4344;-21,34;-5,16;-21,34;-5,16;3,79;2,03;3,79;2,03;0;0;
4361;-13,48;-3,39;-13,48;-3,39;3,47;2,43;3,47;2,43;0;0;
4381;-10,56;-5,98;-10,56;-5,98;3,58;2,44;3,58;2,44;0;0;
4402;-16,7;-4,94;-16,7;-4,94;3,61;2,5;3,61;2,5;0;0;
4420;-19,82;-3,01;-19,82;-3,01;3,27;2,39;3,27;2,39;0;0;
4438;-16,01;-3,38;-16,01;-3,38;2,86;2,34;2,86;2,34;0;0;
4456;-10,79;-5,61;-10,79;-5,61;2,66;2,08;2,66;2,08;0;0;
4472;-21,65;1,31;-21,65;1,31;2,97;2,02;2,97;2,02;0;0;
4489;-21,65;1,31;-21,65;1,31;2,99;2,22;2,99;2,22;0;0;
4506;-14,42;-6,49;-14,42;-6,49;3,45;2,24;3,45;2,24;0;0;
4524;-11,1;-6,14;-11,1;-6,14;3,71;2,34;3,71;2,34;0;0;
4541;-21,08;-10;-21,08;-10;4,02;2,39;4,02;2,39;0;0;
4562;-22,2;-8,41;-22,2;-8,41;4,26;2,49;4,26;2,49;0;0;
4579;-13,45;-3,15;-13,45;-3,15;4,16;2,26;4,16;2,26;0;0;
4596;-23,15;-8,15;-23,15;-8,15;3,67;2,38;3,67;2,38;0;0;
4615;-20,73;-6,98;-20,73;-6,98;4,53;2,22;4,53;2,22;0;0;
4632;-21,66;-3,22;-21,66;-3,22;4,41;2,14;4,41;2,14;0;0;
4647;-21,66;-3,22;-21,66;-3,22;4,22;2,11;4,22;2,11;0;0;
4663;-27,71;-4,68;-27,71;-4,68;3,7;2,56;3,7;2,56;0;0;
4680;-13,68;-7,76;-13,68;-7,76;3,95;2,49;3,95;2,49;0;0;
4697;-22,96;-6,99;-22,96;-6,99;4,43;2,29;4,43;2,29;0;0;
4719;-16,29;-7,99;-16,29;-7,99;3,89;2,45;3,89;2,45;0;0;
4736;-18,76;-9,57;-18,76;-9,57;3,99;3,27;3,99;3,27;0;0;
4753;-8,7;-8,64;-8,7;-8,64;4,31;3,1;4,31;3,1;0;0;
4774;-16,52;-5,3;-16,52;-5,3;4,2;3,37;4,2;3,37;0;0;
4792;-11,27;-4,56;-11,27;-4,56;3,97;3,31;3,97;3,31;0;0;
4809;-11,27;-4,56;-11,27;-4,56;3,92;3,09;3,92;3,09;0;0;
4827;-17,77;-2,69;-17,77;-2,69;3,97;2,74;3,97;2,74;0;0;
4844;-22,9;-7,27;-22,9;-7,27;4,13;2,24;4,13;2,24;0;0;
4862;-18,06;-3,2;-18,06;-3,2;3,63;2,02;3,63;2,02;0;0;
4887;-9,83;-5,98;-9,83;-5,98;3,44;1,97;3,44;1,97;0;0;
4905;-22,56;-2,07;-22,56;-2,07;3,32;2,32;3,32;2,32;0;0;
4923;-20,36;-5,73;-20,36;-5,73;3,26;2,36;3,26;2,36;0;0;
4942;-18,03;-5,68;-18,03;-5,68;2,97;2,34;2,97;2,34;0;0;
4961;-22,13;-4,84;-22,13;-4,84;3,77;2,53;3,77;2,53;0;0;
4980;-18,12;-5,13;-18,12;-5,13;4,3;2,36;4,3;2,36;0;0;
4998;-19,52;-2,43;-19,52;-2,43;4,41;2,22;4,41;2,22;0;0;
5015;-11,94;-0,87;-11,94;-0,87;4,48;2,44;4,48;2,44;0;0;
5035;-15,1;-5,62;-15,1;-5,62;4,03;2,21;4,03;2,21;0;0;
5054;-24,71;-8,89;-24,71;-8,89;3,97;2,03;3,97;2,03;0;0;
5072;-22,49;-5,32;-22,49;-5,32;3,86;1,9;3,86;1,9;0;0;
5092;-15,9;-7,61;-15,9;-7,61;3,51;1,84;3,51;1,84;0;0;
5109;-15,9;-7,61;-15,9;-7,61;3,21;1,77;3,21;1,77;0;0;
5128;-15,49;-5,63;-15,49;-5,63;2,94;1,61;2,94;1,61;0;0;
5144;-15,53;-9,64;-15,53;-9,64;2,89;1,72;2,89;1,72;0;0;
5163;-16,52;-6,71;-16,52;-6,71;3,07;1,94;3,07;1,94;0;0;
5182;-10,11;-6,48;-10,11;-6,48;3,27;1,83;3,27;1,83;0;0;
5202;-12,6;-5,27;-12,6;-5,27;3,11;2,14;3,11;2,14;0;0;
5222;-18,8;-5,14;-18,8;-5,14;3,57;2,29;3,57;2,29;0;0;
5239;-10,86;-5,47;-10,86;-5,47;3,76;2,41;3,76;2,41;0;0;
5256;-17,99;-8,16;-17,99;-8,16;4,09;2,02;4,09;2,02;0;0;
5275;-12,66;-3,77;-12,66;-3,77;3,9;2,26;3,9;2,26;0;0;
5293;-9,76;-5,7;-9,76;-5,7;4,13;2,17;4,13;2,17;0;0;
5312;-19,15;-11,27;-19,15;-11,27;4,33;2,01;4,33;2,01;0;0;
5331;-26,43;-7,66;-26,43;-7,66;4,24;1,86;4,24;1,86;0;0;
5347;-26,43;-7,66;-26,43;-7,66;4,55;1,95;4,55;1,95;0;0;
5369;-11,67;-4,38;-11,67;-4,38;3,97;2,05;3,97;2,05;0;1;
5386;-15,48;-5,69;-15,48;-5,69;3,66;1,88;3,66;1,88;0;1;
5403;-14,61;-5,6;-14,61;-5,6;3,26;1,86;3,26;1,86;0;1;
5425;-22,4;-1,86;-22,4;-1,86;3,11;1,92;3,11;1,92;0;1;
5442;-22,4;-1,86;-22,4;-1,86;2,58;1,96;2,58;1,96;0;1;
5461;-19,55;-7,3;-19,55;-7,3;2,4;1,99;2,4;1,99;0;1;
5481;-23,15;-10,83;-23,15;-10,83;2,41;2,06;2,41;2,06;0;1;
5502;-23,31;-10,15;-23,31;-10,15;2,98;2,61;2,98;2,61;0;1;
5525;-15,24;14,64;-15,24;14,64;3,1;3,82;3,1;3,82;0;1;
5543;-14,07;-7,86;-14,07;-7,86;3,34;3,96;3,34;3,96;0;1;
5562;-10,84;-7,37;-10,84;-7,37;3,59;3,77;3,59;3,77;0;1;
5578;-13,19;-2,41;-13,19;-2,41;3,56;3,79;3,56;3,79;0;1;
5595;-17,88;-8,41;-17,88;-8,41;3,82;3,46;3,82;3,46;0;1;
5613;-21,71;-8,39;-21,71;-8,39;4,17;3,15;4,17;3,15;0;1;
5629;-21,71;-8,39;-21,71;-8,39;4,79;1,57;4,79;1,57;0;1;
5653;-15,19;-2,5;-15,19;-2,5;4,9;1,96;4,9;1,96;0;1;
5674;-22,09;-1,68;-22,09;-1,68;4,96;4,07;4,96;4,07;0;1;
5694;-21,07;-36,2;-21,07;-36,2;4,45;5,41;4,45;5,41;0;0;
5711;-19,79;-14,82;-19,79;-14,82;4,81;5,93;4,81;5,93;0;0;
5729;-19,79;-14,82;-19,79;-14,82;4,55;6,56;4,55;6,56;0;0;
5746;-18,52;-0,66;-18,52;-0,66;3,94;7,03;3,94;7,03;0;0;
5767;-8,22;-14,5;-8,22;-14,5;3,96;7,83;3,96;7,83;0;0;
5787;-21,13;-29,47;-21,13;-29,47;4,45;7,38;4,45;7,38;0;0;
5806;-22,33;14,63;-22,33;14,63;4,58;7,88;4,58;7,88;0;0;
5831;-14,93;-4,92;-14,93;-4,92;4,38;10,47;4,38;10,47;0;0;
5851;-13,11;-10,82;-13,11;-10,82;4,88;11,25;4,88;11,25;0;0;
5867;-13,11;-10,82;-13,11;-10,82;5,23;11,22;5,23;11,22;0;0;
5883;-14,09;-5,42;-14,09;-5,42;5,02;10,69;5,02;10,69;0;0;
5902;-16,59;0,96;-16,59;0,96;5,31;10,24;5,31;10,24;0;0;
5921;-8,7;-9,63;-8,7;-9,63;5,08;7,56;5,08;7,56;0;0;
5939;-20,73;-16,96;-20,73;-16,96;5,21;5,71;5,21;5,71;0;0;
5960;-13,42;-9,76;-13,42;-9,76;4,57;5,03;4,57;5,03;0;0;
5982;-18;-27,34;-18;-27,34;3,89;6,17;3,89;6,17;0;0;
6000;-15,4;3,43;-15,4;3,43;3,7;6,32;3,7;6,32;0;0;
6018;-16,06;-3,03;-16,06;-3,03;3,55;6,74;3,55;6,74;0;0;
6039;-20,6;-5,29;-20,6;-5,29;3,35;7,25;3,35;7,25;0;0;
6058;-10,24;15,95;-10,24;15,95;3,56;9,24;3,56;9,24;0;0;
6077;-13,1;9,84;-13,1;9,84;3,43;13,3;3,43;13,3;0;0;
6097;-16,3;-10,34;-16,3;-10,34;3,5;12,09;3,5;12,09;0;0;
6114;-15,11;-4,66;-15,11;-4,66;3,54;11,91;3,54;11,91;0;0;
6135;-6,08;-41;-6,08;-41;4,42;19,21;4,42;19,21;0;0;
6153;-9,68;45,17;-9,68;45,17;5,22;24,67;5,22;24,67;0;0;
6171;-16,26;-4,23;-16,26;-4,23;5,44;20,51;5,44;20,51;0;0;
6188;-16,26;-4,23;-16,26;-4,23;5,78;20,21;5,78;20,21;0;0;
6207;-11,94;-12,02;-11,94;-12,02;5,39;20,41;5,39;20,41;0;0;
6224;-20,15;-15,25;-20,15;-15,25;5,74;19,2;5,74;19,2;0;0;
6242;-13,46;11,75;-13,46;11,75;5,4;13,54;5,4;13,54;0;0;
6258;-14,77;-25,71;-14,77;-25,71;4,8;11,96;4,8;11,96;0;0;
6275;-19,27;-37,37;-19,27;-37,37;4,64;13,32;4,64;13,32;0;0;
6297;-12,62;-15,67;-12,62;-15,67;4,34;13,41;4,34;13,41;0;0;
6314;-15,74;-2,68;-15,74;-2,68;4,52;13,88;4,52;13,88;0;0;
6332;-21,2;-10,27;-21,2;-10,27;3,72;13,15;3,72;13,15;0;0;
6351;-18,59;-4,33;-18,59;-4,33;3,71;11,26;3,71;11,26;0;0;
6367;-18,59;-4,33;-18,59;-4,33;3,68;9,41;3,68;9,41;0;0;
6386;-11,26;-1,99;-11,26;-1,99;3,37;9,26;3,37;9,26;0;0;
6404;-21,23;0,94;-21,23;0,94;3,65;9,41;3,65;9,41;0;0;
6421;-16,28;-3,23;-16,28;-3,23;4,42;10,31;4,42;10,31;0;0;
6438;-13,35;-15,99;-13,35;-15,99;4,4;9,41;4,4;9,41;0;0;
6457;-16,1;-13,67;-16,1;-13,67;4,46;9,59;4,46;9,59;0;0;
6475;-5,48;-9,48;-5,48;-9,48;4,89;9,19;4,89;9,19;0;0;
6496;-22,23;-5,25;-22,23;-5,25;4,94;8,96;4,94;8,96;0;0;
6513;-16,21;-11,99;-16,21;-11,99;4,37;8,35;4,37;8,35;0;0;
6532;-10,57;-5,56;-10,57;-5,56;4,3;8,57;4,3;8,57;0;0;
6548;-10,57;-5,56;-10,57;-5,56;3,88;8,42;3,88;8,42;0;0;
6565;-13,69;-32,01;-13,69;-32,01;3,45;9,7;3,45;9,7;0;0;
6583;-11,36;-1,25;-11,36;-1,25;3,5;10,75;3,5;10,75;0;0;
6602;-16,51;-10,96;-16,51;-10,96;3,8;10,45;3,8;10,45;0;0;
6626;-18,97;-34,57;-18,97;-34,57;4,04;11,82;4,04;11,82;0;0;
6643;-17,9;-2,47;-17,9;-2,47;3,74;11,32;3,74;11,32;0;0;
6660;-15,16;-22,18;-15,16;-22,18;4,25;10,34;4,25;10,34;0;0;
6677;-15,92;-8,53;-15,92;-8,53;3,94;9,38;3,94;9,38;0;0;
6695;-15,21;3,17;-15,21;3,17;3,98;9,37;3,98;9,37;0;0;
6711;-16,48;-6,38;-16,48;-6,38;4,01;10,19;4,01;10,19;0;0;
6729;-16,48;-6,38;-16,48;-6,38;4,12;9,48;4,12;9,48;0;0;
6746;-19,25;-3,14;-19,25;-3,14;4,18;9,52;4,18;9,52;0;0;
6764;-17,12;4,66;-17,12;4,66;3,79;7,87;3,79;7,87;0;0;
6786;-10,39;-5,28;-10,39;-5,28;3,73;7,56;3,73;7,56;0;0;
6806;-15,34;-13,02;-15,34;-13,02;3,79;7,67;3,79;7,67;0;0;
6823;-18,06;-12,09;-18,06;-12,09;3,71;6,48;3,71;6,48;0;0;
6843;-12,8;9,18;-12,8;9,18;3,29;6,47;3,29;6,47;0;0;
6863;-17,24;-11,06;-17,24;-11,06;3,77;6,45;3,77;6,45;0;0;
6881;-17,15;-4,37;-17,15;-4,37;3,94;6,16;3,94;6,16;0;0;
6900;-17,39;32,41;-17,39;32,41;3,53;7,92;3,53;7,92;0;0;
6917;-24,81;-21,66;-24,81;-21,66;3,58;8,85;3,58;8,85;0;0;
6941;-12,14;-3,02;-12,14;-3,02;3,63;8,44;3,63;8,44;0;0;
6958;-17,62;-8,87;-17,62;-8,87;3,48;7,81;3,48;7,81;0;0;
6975;-19,02;-21,19;-19,02;-21,19;3,46;8,51;3,46;8,51;0;0;
6994;-15,41;8,76;-15,41;8,76;3,09;9,22;3,09;9,22;0;0;
7011;-19,47;-3,9;-19,47;-3,9;3,16;7,48;3,16;7,48;0;0;
7028;-19,47;-3,9;-19,47;-3,9;3,19;8,61;3,19;8,61;0;0;
7048;-18,26;5,13;-18,26;5,13;3,19;10,02;3,19;10,02;0;0;
7064;-10,29;12,96;-10,29;12,96;3,49;11,75;3,49;11,75;0;0;
7085;-23,79;-4,18;-23,79;-4,18;3,52;12,69;3,52;12,69;0;0;
7106;-13,17;-15,57;-13,17;-15,57;4;12,64;4;12,64;0;0;
7123;-17,42;-12,16;-17,42;-12,16;3,94;11,83;3,94;11,83;0;0;
7142;-18,94;-7,94;-18,94;-7,94;3,7;10,64;3,7;10,64;0;0;
7159;-16,54;-1,36;-16,54;-1,36;3,75;8,27;3,75;8,27;0;0;
7178;-15,99;-6,4;-15,99;-6,4;3,48;9,69;3,48;9,69;0;0;
7195;-10,61;12,52;-10,61;12,52;3,29;10,66;3,29;10,66;0;0;
7213;-11,82;-12,04;-11,82;-12,04;2,69;9,74;2,69;9,74;0;0;
7234;-14,94;-6,44;-14,94;-6,44;2,77;9,97;2,77;9,97;0;0;
7252;-19,57;-22,85;-19,57;-22,85;2,96;12,02;2,96;12,02;0;0;
7273;-12,38;8,76;-12,38;8,76;3,43;11,55;3,43;11,55;0;0;
7291;-17,93;-4,6;-17,93;-4,6;3,33;8,58;3,33;8,58;0;0;
7309;-17,93;-4,6;-17,93;-4,6;3,31;6,99;3,31;6,99;0;0;
7325;-4,53;-5,32;-4,53;-5,32;4,21;7,05;4,21;7,05;0;0;
7343;-19,55;-16,54;-19,55;-16,54;4,08;7,38;4,08;7,38;0;0;
7360;-21,23;-16,51;-21,23;-16,51;3,7;9,44;3,7;9,44;0;0;
7378;-17,61;-11,75;-17,61;-11,75;3,79;9,42;3,79;9,42;0;0;
7396;-15,52;-10,08;-15,52;-10,08;3,75;9,36;3,75;9,36;0;0;
7417;-13,96;-6,83;-13,96;-6,83;3,43;10,87;3,43;10,87;0;0;
7439;-11,15;-2,65;-11,15;-2,65;3,85;15,25;3,85;15,25;0;0;
7457;-22,96;-5,71;-22,96;-5,71;4,8;13,91;4,8;13,91;0;0;
7474;-13,12;-8,62;-13,12;-8,62;4,64;12,03;4,64;12,03;0;0;
7492;-22,49;-7,7;-22,49;-7,7;4,77;12,56;4,77;12,56;0;0;
7509;-22,49;-7,7;-22,49;-7,7;5,04;12,54;5,04;12,54;0;0;
7526;-17,01;-5,52;-17,01;-5,52;4,7;8,8;4,7;8,8;0;0;
7544;-21,28;-25,24;-21,28;-25,24;4,46;8,98;4,46;8,98;0;0;
7562;-21,28;-25,24;-21,28;-25,24;4,33;10,63;4,33;10,63;0;0;
7581;-24,14;-4,09;-24,14;-4,09;4,39;10,6;4,39;10,6;0;0;
7600;-9,25;-14,15;-9,25;-14,15;4,47;11,45;4,47;11,45;0;0;
7621;-23,38;-7,94;-23,38;-7,94;4,54;11,2;4,54;11,2;0;0;
7638;-15,4;-28,13;-15,4;-28,13;3,86;10,96;3,86;10,96;0;0;
7657;-9,29;6,77;-9,29;6,77;4,03;9,68;4,03;9,68;0;0;
7673;-15,37;-9,35;-15,37;-9,35;4,22;8,46;4,22;8,46;0;0;
7692;-20,37;-16,71;-20,37;-16,71;4,06;8,37;4,06;8,37;0;0;
7709;-20,37;-16,71;-20,37;-16,71;4,02;8,88;4,02;8,88;0;0;
7725;-16,38;-5,08;-16,38;-5,08;3,77;8,26;3,77;8,26;0;0;
7743;-14,19;-7,05;-14,19;-7,05;3,92;7,48;3,92;7,48;0;0;
7765;-20,46;-5,23;-20,46;-5,23;3,15;8,36;3,15;8,36;0;0;
7782;-13,67;-6,19;-13,67;-6,19;3,78;8,69;3,78;8,69;0;1;
7800;-17,32;-13,51;-17,32;-13,51;3,77;8,23;3,77;8,23;0;1;
7818;-15,89;-5,91;-15,89;-5,91;4,07;7,78;4,07;7,78;0;1;
7835;-8,01;18,51;-8,01;18,51;4,06;10,2;4,06;10,2;0;1;
7852;-16,31;-32,21;-16,31;-32,21;4,89;13,33;4,89;13,33;0;1;
7869;-16,31;-32,21;-16,31;-32,21;5,43;15,91;5,43;15,91;0;1;
7887;-10,46;-7,28;-10,46;-7,28;5,65;15,58;5,65;15,58;0;1;
7907;-17,97;-4,66;-17,97;-4,66;5,31;13,96;5,31;13,96;0;1;
7928;-15,38;-7,76;-15,38;-7,76;5,36;12,6;5,36;12,6;0;1;
7946;-19,08;-9,12;-19,08;-9,12;4,94;8,76;4,94;8,76;0;1;
7964;-9,47;-11,74;-9,47;-11,74;4,24;4,8;4,24;4,8;0;1;
7983;-16,3;-5,49;-16,3;-5,49;3,62;4,98;3,62;4,98;0;1;
8000;-21,74;9,78;-21,74;9,78;3,29;6,44;3,29;6,44;0;1;
8021;-17,58;0,89;-17,58;0,89;2,97;6,66;2,97;6,66;0;1;
8039;-11,61;10,01;-11,61;10,01;2,92;7,61;2,92;7,61;0;1;
8058;-16,04;9,2;-16,04;9,2;3,34;9,93;3,34;9,93;0;1;
8081;-12,81;-18,17;-12,81;-18,17;3,14;9,89;3,14;9,89;0;1;
8099;-13,86;17,7;-13,86;17,7;3,44;9,17;3,44;9,17;0;1;
8116;-14,54;-7,06;-14,54;-7,06;3,75;8,94;3,75;8,94;0;0;
8133;-21,98;-9,03;-21,98;-9,03;3,92;8,26;3,92;8,26;0;0;
8152;-14,74;-6,58;-14,74;-6,58;3,23;6,27;3,23;6,27;0;0;
8169;-14,74;-6,58;-14,74;-6,58;3,13;4,85;3,13;4,85;0;0;
8188;-19,53;4,75;-19,53;4,75;3,01;7,1;3,01;7,1;0;0;
8204;-20,06;-15,47;-20,06;-15,47;2,76;6,77;2,76;6,77;0;0;
8229;-16,62;-9;-16,62;-9;2,65;6,18;2,65;6,18;0;0;
8252;-24,31;-5,37;-24,31;-5,37;2,79;6,06;2,79;6,06;0;0;
8272;-4,69;-6,83;-4,69;-6,83;3,23;5,99;3,23;5,99;0;0;
8289;-4,69;-6,83;-4,69;-6,83;3,64;4,76;3,64;4,76;0;0;
8309;-10,32;-5,71;-10,32;-5,71;3,89;2,3;3,89;2,3;0;0;
8328;-21,78;-4,83;-21,78;-4,83;4,07;2,23;4,07;2,23;0;0;
8345;-5,38;-3,51;-5,38;-3,51;5,93;2,57;5,93;2,57;0;0;
8363;-30,3;-5,02;-30,3;-5,02;7,17;4,01;7,17;4,01;0;0;
8382;-18,09;-4,93;-18,09;-4,93;7,41;5,81;7,41;5,81;0;0;
8403;-5,06;36,64;-5,06;36,64;7,85;10,34;7,85;10,34;0;0;
8425;-7,52;-40,66;-7,52;-40,66;7,82;14,05;7,82;14,05;0;0;
8443;-19,22;-22,15;-19,22;-22,15;6,91;15,59;6,91;15,59;0;0;
8459;-17,57;-23,74;-17,57;-23,74;6,85;19,65;6,85;19,65;0;0;
8476;-14,35;-7,24;-14,35;-7,24;5,71;19,4;5,71;19,4;0;0;
8494;-14,35;-7,24;-14,35;-7,24;6,34;20,41;6,34;20,41;0;0;
8512;-24,59;-34,37;-24,59;-34,37;6,31;16,24;6,31;16,24;1;0;
8530;-11,63;-27,05;-11,63;-27,05;6,03;16,23;6,03;16,23;1;0;
8552;-12,21;15,37;-12,21;15,37;5,92;15,08;5,92;15,08;1;0;
8576;-18,67;-7,61;-18,67;-7,61;5,12;12,8;5,12;12,8;1;0;
8592;-10,71;0,75;-10,71;0,75;5,47;14,91;5,47;14,91;1;0;
8612;-17,88;7,71;-17,88;7,71;5,06;15,54;5,06;15,54;1;0;
8630;-17,88;7,71;-17,88;7,71;5,03;16,58;5,03;16,58;1;0;
8647;-8,32;18,79;-8,32;18,79;4,8;15,6;4,8;15,6;1;0;
8664;-19,29;4,23;-19,29;4,23;4,96;18,58;4,96;18,58;1;0;
8683;-16,91;-10,6;-16,91;-10,6;4,32;16,14;4,32;16,14;1;0;
8703;-18,93;-1,41;-18,93;-1,41;3,61;14,33;3,61;14,33;1;0;
8719;-19,53;11;-19,53;11;3,39;13,77;3,39;13,77;1;0;
8741;-3,38;21,22;-3,38;21,22;3,76;13,51;3,76;13,51;1;0;
8758;-18,35;-7,86;-18,35;-7,86;4,7;14,33;4,7;14,33;1;0;
8775;-4,45;15,52;-4,45;15,52;4,93;13,32;4,93;13,32;1;0;
8794;-8,87;-36,48;-8,87;-36,48;5,4;14,43;5,4;14,43;1;0;
8816;-14,42;-10,66;-14,42;-10,66;5,39;14,2;5,39;14,2;1;0;
8834;-12,98;3,65;-12,98;3,65;5,37;13,97;5,37;13,97;1;0;
8853;-18,46;1,93;-18,46;1,93;4,52;11,77;4,52;11,77;0;0;
8869;-18,46;1,93;-18,46;1,93;3,86;9,94;3,86;9,94;0;0;
8887;-4,54;-6,7;-4,54;-6,7;3,42;10,04;3,42;10,04;0;0;
8909;-27,15;1,77;-27,15;1,77;3,41;9,86;3,41;9,86;0;0;
8928;-8;13,51;-8;13,51;3,61;9,99;3,61;9,99;0;0;
8948;-21,69;9,95;-21,69;9,95;3,59;9,29;3,59;9,29;0;0;
8971;-21,06;-11,82;-21,06;-11,82;3,3;8,98;3,3;8,98;0;0;
8987;-21,06;-11,82;-21,06;-11,82;3,13;7,67;3,13;7,67;0;0;
9004;-18,89;22,39;-18,89;22,39;3,02;8,44;3,02;8,44;0;0;
9020;-12,04;-3,36;-12,04;-3,36;2,9;9,7;2,9;9,7;0;0;
9038;-19,23;-3,37;-19,23;-3,37;3,4;9,48;3,4;9,48;0;0;
9063;-22,25;1,21;-22,25;1,21;3,33;10,46;3,33;10,46;0;0;
9082;-10,37;-27,04;-10,37;-27,04;3,71;12,59;3,71;12,59;0;0;
9101;-5,6;-14,58;-5,6;-14,58;4,43;12,74;4,43;12,74;0;0;
9118;-11,67;6,71;-11,67;6,71;4,72;9,64;4,72;9,64;0;0;
9136;-23,09;4,82;-23,09;4,82;4,66;9,07;4,66;9,07;0;0;
9153;-20,97;4,5;-20,97;4,5;4,54;9,03;4,54;9,03;0;0;
9171;-20,97;4,5;-20,97;4,5;4,65;7,68;4,65;7,68;0;0;
9190;-20,97;4,5;-20,97;4,5;4,08;6,36;4,08;6,36;0;0;
9210;-20,38;6,95;-20,38;6,95;3,72;6,56;3,72;6,56;0;0;
9229;-13,2;18,96;-13,2;18,96;3,77;6,93;3,77;6,93;0;0;
9245;-10;-15,44;-10;-15,44;3,82;7,94;3,82;7,94;0;0;
9265;-16,65;-4,93;-16,65;-4,93;3,56;7,23;3,56;7,23;0;0;
9284;-17,2;-6,43;-17,2;-6,43;3,42;6,26;3,42;6,26;0;0;
9303;-20,12;-8,85;-20,12;-8,85;3,42;5,35;3,42;5,35;0;0;
9324;-22,69;-4,78;-22,69;-4,78;3,14;5,1;3,14;5,1;0;0;
9345;-21,04;-3,67;-21,04;-3,67;3,2;4,48;3,2;4,48;0;0;
9371;-20,93;-22,54;-20,93;-22,54;3,07;5,38;3,07;5,38;0;0;
9389;-20,93;-22,54;-20,93;-22,54;3,35;7,16;3,35;7,16;0;0;
9407;-22,74;-10,59;-22,74;-10,59;3,37;10,37;3,37;10,37;0;0;
9426;-20,8;-15,37;-20,8;-15,37;3,89;13,95;3,89;13,95;0;0;
9443;-16,14;-35,8;-16,14;-35,8;4,09;17,5;4,09;17,5;0;0;
9462;-20,14;-17,06;-20,14;-17,06;4,35;21,76;4,35;21,76;0;0;
9479;-25,34;-5,76;-25,34;-5,76;5;20,45;5;20,45;0;0;
9498;-14,66;-9,56;-14,66;-9,56;4,94;17,58;4,94;17,58;0;0;
9517;-15,8;-3,51;-15,8;-3,51;4,64;17,61;4,64;17,61;0;0;
9534;-15,91;19,24;-15,91;19,24;4,36;15,8;4,36;15,8;0;0;
9552;-12,18;-3,5;-12,18;-3,5;3,91;11,4;3,91;11,4;0;0;
9571;-17,4;0,27;-17,4;0,27;3,45;10,12;3,45;10,12;0;0;
9588;-17,4;0,27;-17,4;0,27;2,96;10,45;2,96;10,45;0;0;
9605;-28,52;-13,87;-28,52;-13,87;3,23;9,5;3,23;9,5;0;0;
9623;-17,74;-9,37;-17,74;-9,37;3,46;8,96;3,46;8,96;0;0;
9641;-28,11;-7,63;-28,11;-7,63;3,99;8,55;3,99;8,55;0;0;
9658;-15,49;-8,41;-15,49;-8,41;3,94;7,51;3,94;7,51;0;0;
9679;-14,7;-8,51;-14,7;-8,51;3,87;6,84;3,87;6,84;0;0;
9696;-12,18;-6,08;-12,18;-6,08;3,6;6,53;3,6;6,53;1;0;
9715;-10,64;-9,63;-10,64;-9,63;3,61;5,95;3,61;5,95;1;0;
9734;-22,73;-44,06;-22,73;-44,06;3,65;6,42;3,65;6,42;1;0;
9753;-9,11;-39,24;-9,11;-39,24;3,56;9,69;3,56;9,69;1;0;
9771;-18,09;-10,09;-18,09;-10,09;3,8;11,35;3,8;11,35;1;0;
9787;-18,09;-10,09;-18,09;-10,09;3,71;12,77;3,71;12,77;1;0;
9802;-17,8;-2,37;-17,8;-2,37;3,52;12,96;3,52;12,96;1;0;
9819;-15,16;-14,01;-15,16;-14,01;3,63;12,7;3,63;12,7;1;0;
9839;-17,54;5,42;-17,54;5,42;3,32;9,93;3,32;9,93;1;0;
9858;-19,56;1,67;-19,56;1,67;3,27;7,64;3,27;7,64;1;0;
9876;-6,46;-8,41;-6,46;-8,41;3,23;6,53;3,23;6,53;1;0;
9894;-18,71;-2,64;-18,71;-2,64;4;5,78;4;5,78;1;0;
9912;-9,41;-12,49;-9,41;-12,49;4,11;5,77;4,11;5,77;1;0;
9929;-9,41;-12,49;-9,41;-12,49;4,01;5,8;4,01;5,8;1;0;
9947;-12,01;-10,87;-12,01;-10,87;3,84;5,52;3,84;5,52;1;0;
9965;-14,27;-6,18;-14,27;-6,18;3,95;4,95;3,95;4,95;1;0;
9984;-17,25;-4,77;-17,25;-4,77;3,52;4,49;3,52;4,49;1;0;
10005;-18,83;-13,09;-18,83;-13,09;3,42;4,02;3,42;4,02;1;0;
10023;-12,96;-22,62;-12,96;-22,62;3,56;3,84;3,56;3,84;1;0;
10042;-23,48;-21,71;-23,48;-21,71;3,43;4,81;3,43;4,81;0;0;
10059;-25,4;-5,89;-25,4;-5,89;3,5;4,72;3,5;4,72;0;0;
10077;-11,29;-4,49;-11,29;-4,49;3,83;4,53;3,83;4,53;0;0;
10097;-18,74;-1,37;-18,74;-1,37;3,92;4,64;3,92;4,64;0;0;
10114;-8,72;-18,1;-8,72;-18,1;3,97;4,91;3,97;4,91;0;0;
10135;-19,37;-7,6;-19,37;-7,6;3,72;3,95;3,72;3,95;0;0;
10158;-19,41;-3,37;-19,41;-3,37;3,99;3,41;3,99;3,41;0;0;
10179;-15,28;-7,66;-15,28;-7,66;3,47;3,79;3,47;3,79;0;0;
10195;-15,2;7,38;-15,2;7,38;3,21;5,36;3,21;5,36;0;0;
10214;-16,94;-6,66;-16,94;-6,66;2,91;6,36;2,91;6,36;0;0;
10235;-16,51;-0,3;-16,51;-0,3;2,77;5,86;2,77;5,86;0;0;
10253;-12,28;7,42;-12,28;7,42;2,81;6,26;2,81;6,26;0;0;
10270;-15,35;-24,06;-15,35;-24,06;2,86;7,79;2,86;7,79;0;0;
10287;-15,35;-24,06;-15,35;-24,06;3,18;9,28;3,18;9,28;0;0;
10311;-20,23;-3,35;-20,23;-3,35;3,3;7,31;3,3;7,31;0;0;
10327;-20,23;-3,35;-20,23;-3,35;3,23;6,81;3,23;6,81;0;0;
10343;-13,14;-2,65;-13,14;-2,65;3,5;6,6;3,5;6,6;0;0;
10361;-20,53;-4,35;-20,53;-4,35;3,23;5,09;3,23;5,09;0;0;
10385;-34,46;-10,11;-34,46;-10,11;3,71;2,92;3,71;2,92;0;0;
10401;-32,78;-6,93;-32,78;-6,93;6,66;1,68;6,66;1,68;0;0;
10418;-2,77;-3,72;-2,77;-3,72;9,55;1,56;9,55;1,56;0;0;
10437;-15,99;-6,72;-15,99;-6,72;9,59;1,65;9,59;1,65;0;0;
10453;-29,08;-7,43;-29,08;-7,43;9,54;1,6;9,54;1,6;0;0;
10473;-14,36;-5,43;-14,36;-5,43;9,35;1,76;9,35;1,76;0;0;
10488;-14,36;-5,43;-14,36;-5,43;7,07;1,88;7,07;1,88;0;0;
10505;-21,06;-3,61;-21,06;-3,61;5,17;1,94;5,17;1,94;0;0;
10522;-11,52;-9,88;-11,52;-9,88;11,48;2,08;11,48;2,08;0;0;
10539;29,59;-1,15;29,59;-1,15;15,03;2,3;15,03;2,3;0;0;
10555;-47,29;-2,24;-47,29;-2,24;16,76;2,4;16,76;2,4;0;0;
10574;-49,04;0,54;-49,04;0,54;18,38;2,45;18,38;2,45;0;0;
10591;-12,08;-8,99;-12,08;-8,99;28,11;2,73;28,11;2,73;0;0;
10608;-12,08;-8,99;-12,08;-8,99;33,93;2,95;33,93;2,95;0;0;
10629;-11,56;-9,74;-11,56;-9,74;32,73;3,18;32,73;3,18;0;0;
10647;-174,62;5,65;-174,62;5,65;41,19;3,7;41,19;3,7;0;0;
10663;-2,89;-5,11;-2,89;-5,11;47,08;3,95;47,08;3,95;0;0;
10682;89,78;-9,35;89,78;-9,35;53,18;3,76;53,18;3,76;0;0;
10702;-7,67;-8,99;-7,67;-8,99;50,64;3,55;50,64;3,55;0;0;
10718;15,15;-11,33;15,15;-11,33;50,09;3,7;50,09;3,7;0;0;
10737;-5,48;-4,97;-5,48;-4,97;48,76;3,36;48,76;3,36;0;0;
10756;-76,66;-4,56;-76,66;-4,56;40,75;2,77;40,75;2,77;0;0;
10777;-60,65;-13,99;-60,65;-13,99;44;2,79;44;2,79;0;0;
10797;21,83;-6,06;21,83;-6,06;42,68;2,88;42,68;2,88;0;0;
10814;21,83;-6,06;21,83;-6,06;48,31;2,79;48,31;2,79;0;0;
10831;-75,26;-9,79;-75,26;-9,79;45,48;2,42;45,48;2,42;0;0;
10851;-112,36;-10,95;-112,36;-10,95;53,87;2,51;53,87;2,51;0;0;
10867;-112,36;-10,95;-112,36;-10,95;58,48;2,69;58,48;2,69;0;0;
10884;100,36;-10,95;100,36;-10,95;54,34;3,03;54,34;3,03;0;0;
10901;56,48;-9,77;56,48;-9,77;56,42;3,07;56,42;3,07;0;0;
10918;-76,87;-2,03;-76,87;-2,03;58,79;2,99;58,79;2,99;0;0;
10935;-15,82;-8,59;-15,82;-8,59;54,8;3,07;54,8;3,07;0;0;
10954;-29,01;-6,8;-29,01;-6,8;47,21;3,09;47,21;3,09;0;0;
10971;15,97;-5,2;15,97;-5,2;45,74;3,21;45,74;3,21;0;0;
10988;15,97;-5,2;15,97;-5,2;35,4;2,91;35,4;2,91;0;0;
11006;-43,53;-4,18;-43,53;-4,18;32,81;2,82;32,81;2,82;0;0;
11023;-110,69;-9,33;-110,69;-9,33;33,14;2,78;33,14;2,78;0;0;
11039;24,54;-8,23;24,54;-8,23;33,51;2,77;33,51;2,77;0;0;
11057;-26,25;-6,38;-26,25;-6,38;34,17;2,47;34,17;2,47;0;0;
11078;3,32;-3,39;3,32;-3,39;32,88;2,06;32,88;2,06;0;0;
11098;-24,58;-13,45;-24,58;-13,45;29,92;1,94;29,92;1,94;0;0;
11118;-19,73;-7,16;-19,73;-7,16;29,9;2,2;29,9;2,2;0;0;
11135;-5,64;-7,64;-5,64;-7,64;22,37;1,89;22,37;1,89;0;0;
11154;-1,93;-5,64;-1,93;-5,64;20,52;1,82;20,52;1,82;0;0;
11173;-46,73;-5,51;-46,73;-5,51;23,68;1,98;23,68;1,98;0;0;
11189;-46,73;-5,51;-46,73;-5,51;26,16;2,06;26,16;2,06;0;0;
11207;9,86;-7,22;9,86;-7,22;28,32;1,63;28,32;1,63;0;0;
11225;-105,88;-9,75;-105,88;-9,75;34,16;1,82;34,16;1,82;0;0;
11242;-0,13;-3,1;-0,13;-3,1;39,06;2;39,06;2;0;0;
11261;5,86;-9,24;5,86;-9,24;37,86;2,19;37,86;2,19;0;0;
11281;-3,15;-4,85;-3,15;-4,85;39,09;2,58;39,09;2,58;0;0;
11297;-37,69;0,29;-37,69;0,29;42,49;2,65;42,49;2,65;0;0;
11313;37,96;-6,25;37,96;-6,25;39,91;2,62;39,91;2,62;0;0;
11330;-10,67;-1,06;-10,67;-1,06;34,99;2,4;34,99;2,4;0;0;
11349;-10,67;-1,06;-10,67;-1,06;29,49;2,51;29,49;2,51;0;0;
11368;-6,57;-7,42;-6,57;-7,42;27,93;2,06;27,93;2,06;0;0;
11386;-8,54;-6,4;-8,54;-6,4;22,1;1,69;22,1;1,69;0;0;
11402;6,94;-8,4;6,94;-8,4;24,3;1,49;24,3;1,49;0;0;
11419;4,21;-5,72;4,21;-5,72;23,16;1,44;23,16;1,44;0;0;
11440;-42,85;-5,69;-42,85;-5,69;22,07;1,41;22,07;1,41;0;0;
11459;-24,91;-5,54;-24,91;-5,54;23,57;1,52;23,57;1,52;0;0;
11476;-12,25;-10,42;-12,25;-10,42;24,85;1,77;24,85;1,77;0;0;
11495;-10,34;-9,87;-10,34;-9,87;19,97;1,91;19,97;1,91;0;0;
11512;-44,71;-6,33;-44,71;-6,33;17,46;2,27;17,46;2,27;0;0;
11528;-44,71;-6,33;-44,71;-6,33;16,94;2,5;16,94;2,5;0;0;
11545;6,05;-6,92;6,05;-6,92;19,78;2,44;19,78;2,44;0;0;
11563;-36,48;-7,29;-36,48;-7,29;16,39;2,36;16,39;2,36;1;0;
11580;88;-5,41;88;-5,41;21,29;2,11;21,29;2,11;1;0;
11599;-35,88;-3,01;-35,88;-3,01;25,97;2,16;25,97;2,16;1;0;
11618;2,12;-7,86;2,12;-7,86;31,99;1,92;31,99;1,92;1;0;
11635;-6,19;1,69;-6,19;1,69;35,62;1,77;35,62;1,77;1;0;
11652;-95,42;-8,38;-95,42;-8,38;43,09;2,03;43,09;2,03;1;0;
11669;-95,42;-8,38;-95,42;-8,38;51,14;2,13;51,14;2,13;1;0;
11688;-6,87;-3,98;-6,87;-3,98;44,43;1,91;44,43;1,91;1;0;
11706;-47,78;-3,75;-47,78;-3,75;43,56;1,83;43,56;1,83;1;0;
11724;-17,07;-3,51;-17,07;-3,51;39,78;1,92;39,78;1,92;1;0;
11740;-18,85;-9,62;-18,85;-9,62;36,71;1,7;36,71;1,7;1;0;
11762;-13,23;-5,92;-13,23;-5,92;26,13;1,63;26,13;1,63;1;0;
11780;-8,17;-5,07;-8,17;-5,07;16,53;1,62;16,53;1,62;1;0;
11796;-12,08;-2,21;-12,08;-2,21;14,41;1,59;14,41;1,59;1;0;
11814;-15,19;-3,89;-15,19;-3,89;6,9;1,62;6,9;1,62;1;0;
11833;-29,15;-7,43;-29,15;-7,43;5,99;1,58;5,99;1,58;1;0;
11850;-20,47;-6,57;-20,47;-6,57;4,16;1,57;4,16;1,57;1;0;
11867;-20,47;-6,57;-20,47;-6,57;4,29;1,46;4,29;1,46;1;0;
11885;60,02;-3,74;60,02;-3,74;7,78;1,69;7,78;1,69;1;0;
11904;6,29;-5,77;6,29;-5,77;10,86;1,63;10,86;1,63;1;0;
11931;-9,78;-8,28;-9,78;-8,28;11,67;1,53;11,67;1,53;0;0;
11947;-9,78;-8,28;-9,78;-8,28;11,96;1,47;11,96;1,47;0;0;
11965;6,54;-7,41;6,54;-7,41;14,68;1,57;14,68;1,57;0;0;
11982;-54,09;-5,08;-54,09;-5,08;15,71;1,67;15,71;1,67;0;0;
12000;-17,6;-3,18;-17,6;-3,18;12,79;1,73;12,79;1,73;0;0;
12020;-8,78;-6,19;-8,78;-6,19;10,71;1,79;10,71;1,79;0;0;
12039;-13,49;-4,57;-13,49;-4,57;15,17;1,85;15,17;1,85;0;0;
12058;-13,54;-7,2;-13,54;-7,2;13,26;1,84;13,26;1,84;0;0;
12084;-19,06;-6,44;-19,06;-6,44;12,09;1,74;12,09;1,74;0;0;
12103;-29,89;-8,59;-29,89;-8,59;13,15;1,67;13,15;1,67;0;0;
12119;38,18;-3,73;38,18;-3,73;16,3;1,6;16,3;1,6;0;0;
12135;3,61;-9,24;3,61;-9,24;19,77;1,77;19,77;1,77;0;0;
12154;35,88;-6,17;35,88;-6,17;21,04;1,93;21,04;1,93;0;0;
12173;-32,61;-8,59;-32,61;-8,59;25;2,08;25;2,08;0;0;
12192;2,26;-8,54;2,26;-8,54;27,06;2,17;27,06;2,17;0;0;
12209;2,26;-8,54;2,26;-8,54;25,14;2,23;25,14;2,23;0;0;
12230;-4,17;-8,39;-4,17;-8,39;21,72;2,04;21,72;2,04;0;0;
12248;7,61;-5,08;7,61;-5,08;23,23;1,77;23,23;1,77;0;0;
12265;-38,36;-6,09;-38,36;-6,09;17,73;1,62;17,73;1,62;0;0;
12283;-45,17;-7,68;-45,17;-7,68;18,13;1,43;18,13;1,43;0;0;
12302;15,57;-4,45;15,57;-4,45;18,88;1,35;18,88;1,35;0;0;
12318;-56,05;-5,19;-56,05;-5,19;18,45;1,34;18,45;1,34;0;0;
12335;-21,64;-7,41;-21,64;-7,41;17,58;1,47;17,58;1,47;0;0;
12353;-13,69;-3,95;-13,69;-3,95;14,45;1,54;14,45;1,54;0;0;
12372;-19,56;-8,62;-19,56;-8,62;12,72;1,47;12,72;1,47;0;0;
12392;-21,12;-6,87;-21,12;-6,87;9,18;1,48;9,18;1,48;0;0;
12407;-21,12;-6,87;-21,12;-6,87;7,07;1,56;7,07;1,56;0;0;
12424;-18,62;-3,82;-18,62;-3,82;4,75;1,71;4,75;1,71;0;0;
12441;-19,78;-6,61;-19,78;-6,61;3,1;1,54;3,1;1,54;0;0;
12459;-15,5;-7,41;-15,5;-7,41;3,16;1,53;3,16;1,53;0;0;
12475;-10,17;-4,07;-10,17;-4,07;3,07;1,65;3,07;1,65;0;0;
12494;-18,13;-7,93;-18,13;-7,93;3,09;1,52;3,09;1,52;0;0;
12514;-17,66;-8,08;-17,66;-8,08;3,02;1,53;3,02;1,53;0;0;
12532;-12,05;-6,16;-12,05;-6,16;3,16;1,73;3,16;1,73;0;0;
12552;-18,69;-5,7;-18,69;-5,7;3,53;1,87;3,53;1,87;0;0;
12569;-18,69;-5,7;-18,69;-5,7;3,93;2,03;3,93;2,03;0;0;
12588;-16,79;-9,02;-16,79;-9,02;3,46;1,96;3,46;1,96;0;0;
12604;-11,5;-7,23;-11,5;-7,23;3,56;1,96;3,56;1,96;0;0;
12622;-14,23;-6,88;-14,23;-6,88;3,59;1,79;3,59;1,79;0;0;
12641;-19,28;-6,36;-19,28;-6,36;3,18;1,79;3,18;1,79;0;0;
12658;-18,58;-4,54;-18,58;-4,54;2,87;1,65;2,87;1,65;0;0;
12678;-14,54;-5,59;-14,54;-5,59;2,99;1,61;2,99;1,61;0;0;
12699;-13,71;-7,65;-13,71;-7,65;3,15;1,54;3,15;1,54;0;0;
12720;-20,55;-4,61;-20,55;-4,61;3,5;1,57;3,5;1,57;0;0;
12737;-22,47;-5,74;-22,47;-5,74;3,45;1,53;3,45;1,53;0;0;
12759;-15,21;-9,75;-15,21;-9,75;3,39;1,59;3,39;1,59;0;0;
12779;-26,36;-8,07;-26,36;-8,07;3,65;1,74;3,65;1,74;0;0;
12797;-6,64;-10,02;-6,64;-10,02;10,65;1,88;10,65;1,88;0;0;
12815;-45,66;-4,64;-45,66;-4,64;14,72;2;14,72;2;0;0;
12832;-16,96;-8,41;-16,96;-8,41;18,57;2,18;18,57;2,18;0;0;
12852;-0,16;-5,97;-0,16;-5,97;19,6;2,27;19,6;2,27;0;0;
12874;-16,95;-4,72;-16,95;-4,72;21,27;2,11;21,27;2,11;0;0;
12893;1,15;-6,51;1,15;-6,51;19,54;2,25;19,54;2,25;0;0;
12913;4,04;-8,65;4,04;-8,65;24,58;2,37;24,58;2,37;0;0;
12929;4,04;-8,65;4,04;-8,65;28,94;2,36;28,94;2,36;0;0;
12945;-31,24;-7,52;-31,24;-7,52;29,8;2,06;29,8;2,06;0;0;
12964;3,14;-2,21;3,14;-2,21;32,32;2,12;32,32;2,12;0;0;
12983;-41,47;-12,12;-41,47;-12,12;35,53;2,08;35,53;2,08;0;0;
13001;-40,32;-3,76;-40,32;-3,76;34,87;2,26;34,87;2,26;0;0;
13020;62,18;-2,31;62,18;-2,31;31,61;2,33;31,61;2,33;0;0;
13039;19,58;-9,11;19,58;-9,11;30,42;2,35;30,42;2,35;0;0;
13055;-2;-5,85;-2;-5,85;29,62;2,53;29,62;2,53;0;0;
13074;22,42;-4,18;22,42;-4,18;26,77;2,46;26,77;2,46;0;0;
13095;10,73;-11,09;10,73;-11,09;30,51;2,26;30,51;2,26;0;0;
13112;-22,25;-5,5;-22,25;-5,5;33,24;2,4;33,24;2,4;0;0;
13131;-13,69;-7,03;-13,69;-7,03;26,19;2,14;26,19;2,14;0;0;
13147;-13,69;-7,03;-13,69;-7,03;22,28;2,04;22,28;2,04;0;0;
13166;93,56;-7,07;93,56;-7,07;25,34;2,44;25,34;2,44;0;0;
13185;-23,1;-6,43;-23,1;-6,43;25,19;2,74;25,19;2,74;0;0;
13206;-23,32;-1,64;-23,32;-1,64;27,46;2,63;27,46;2,63;0;0;
13224;24,18;-5,15;24,18;-5,15;27,12;2,63;27,12;2,63;0;0;
13242;132,27;-6,87;132,27;-6,87;31,23;2,61;31,23;2,61;0;0;
13260;-16,1;-9,88;-16,1;-9,88;42,39;2,41;42,39;2,41;0;0;
13279;-52,91;-7,34;-52,91;-7,34;43,32;2,27;43,32;2,27;0;0;
13298;-24,16;-5,96;-24,16;-5,96;39,73;1,92;39,73;1,92;0;0;
13317;68,21;-4,71;68,21;-4,71;37,69;1,81;37,69;1,81;0;0;
13334;5,5;-2,89;5,5;-2,89;41,66;2,01;41,66;2,01;0;0;
13351;-6,55;-6,06;-6,55;-6,06;39,48;2,08;39,48;2,08;0;0;
13375;-21,71;-7,01;-21,71;-7,01;28,53;1,86;28,53;1,86;0;0;
13393;-33,41;-11,11;-33,41;-11,11;27,91;2;27,91;2;0;0;
13410;-33,41;-11,11;-33,41;-11,11;29,43;1,99;29,43;1,99;0;0;
13428;-62,18;-10,6;-62,18;-10,6;27,11;2,01;27,11;2,01;0;0;
13445;-43,39;-3,91;-43,39;-3,91;25,62;1,86;25,62;1,86;0;0;
13464;2,44;-7,07;2,44;-7,07;25,56;1,82;25,56;1,82;1;0;
13483;-61,67;-1,68;-61,67;-1,68;30,15;1,91;30,15;1,91;1;0;
13503;3,97;-9,38;3,97;-9,38;28,54;1,74;28,54;1,74;1;0;
13529;-125,16;-8,66;-125,16;-8,66;30,18;1,68;30,18;1,68;1;0;
13545;-26,92;-1,69;-26,92;-1,69;32,18;1,87;32,18;1,87;1;0;
13564;21,27;-6,89;21,27;-6,89;37,03;1,86;37,03;1,86;1;0;
13584;64,66;-7,37;64,66;-7,37;40,42;1,84;40,42;1,84;1;0;
13601;64,66;-7,37;64,66;-7,37;45,76;1,79;45,76;1,79;1;0;
13618;11,03;-3,43;11,03;-3,43;46,66;1,93;46,66;1,93;1;0;
13635;-8,43;-7,87;-8,43;-7,87;41,12;1,89;41,12;1,89;1;0;
13653;18,47;-5,89;18,47;-5,89;31,85;1,86;31,85;1,86;1;0;
13674;-5,34;-7,06;-5,34;-7,06;36,04;1,76;36,04;1,76;1;0;
13692;-5,66;-1,85;-5,66;-1,85;32,76;1,82;32,76;1,82;1;0;
13708;-5,66;-1,85;-5,66;-1,85;31,16;1,89;31,16;1,89;1;0;
13725;-30,01;-4,74;-30,01;-4,74;30,08;1,88;30,08;1,88;1;0;
13741;-18,66;-6,69;-18,66;-6,69;29,61;1,71;29,61;1,71;1;0;
13757;-21,37;-5,9;-21,37;-5,9;28,55;1,72;28,55;1,72;1;0;
13775;-73,09;-3,58;-73,09;-3,58;23,84;1,76;23,84;1,76;1;0;
13795;-14,21;-9,14;-14,21;-9,14;25,27;1,81;25,27;1,81;1;0;
13820;-16,26;-10,23;-16,26;-10,23;20,55;1,63;20,55;1,63;0;0;
13845;-3,56;-4,04;-3,56;-4,04;19,86;1,48;19,86;1,48;0;0;
13869;-21,85;-6,88;-21,85;-6,88;20,08;1,49;20,08;1,49;0;0;
13895;43,84;-1,54;43,84;-1,54;21,4;1,64;21,4;1,64;0;0;
13921;-17,53;-8,73;-17,53;-8,73;13,53;1,57;13,53;1,57;0;0;
13944;-3,37;-6,68;-3,37;-6,68;12,63;1,56;12,63;1,56;0;0;
13965;-7,19;-7,89;-7,19;-7,89;20,48;1,52;20,48;1,52;0;0;
13987;-3,38;-9,87;-3,38;-9,87;22,54;1,48;22,54;1,48;0;0;
14010;-11,91;-6,26;-11,91;-6,26;20,32;1,39;20,32;1,39;0;0;
14030;-22,23;-7,53;-22,23;-7,53;17,12;1,33;17,12;1,33;0;0;
14049;-26,34;-9,6;-26,34;-9,6;17,18;1,27;17,18;1,27;0;0;
14065;-43,38;-6,33;-43,38;-6,33;16;1,44;16;1,44;0;0;
14086;0,55;-6,04;0,55;-6,04;14,73;1,47;14,73;1,47;0;0;
14103;-24,45;-8,56;-24,45;-8,56;13,56;1,6;13,56;1,6;0;0;
14120;-7,46;-6,95;-7,46;-6,95;13,56;1,65;13,56;1,65;0;0;
14140;-17,18;-8,36;-17,18;-8,36;14,12;2,03;14,12;2,03;0;0;
14164;-4,89;-7,49;-4,89;-7,49;13,53;1,96;13,53;1,96;0;0;
14182;-47,59;-8,22;-47,59;-8,22;14,14;2,1;14,14;2,1;0;0;
14200;-21,85;-6,67;-21,85;-6,67;11,88;2,34;11,88;2,34;0;0;
14217;-21,69;-6;-21,69;-6;10,71;2,2;10,71;2,2;0;0;
14234;-12,24;-3,36;-12,24;-3,36;10,06;2,28;10,06;2,28;0;0;
14251;-20,43;-7,88;-20,43;-7,88;9,6;2,07;9,6;2,07;0;0;
14267;-20,43;-7,88;-20,43;-7,88;8,12;2,05;8,12;2,05;0;0;
14285;-27,02;-6,14;-27,02;-6,14;5,05;1,92;5,05;1,92;0;0;
14302;-12,52;-7,79;-12,52;-7,79;4;1,72;4;1,72;0;0;
14325;-15,95;-11,08;-15,95;-11,08;3,5;1,84;3,5;1,84;0;0;
14341;-13,41;-3,38;-13,41;-3,38;3,59;1,96;3,59;1,96;0;0;
14360;-21,37;-4,73;-21,37;-4,73;3,68;2,08;3,68;2,08;0;0;
14377;-13,05;-7,06;-13,05;-7,06;3,69;1,96;3,69;1,96;0;0;
14395;-13,21;-6,68;-13,21;-6,68;3,26;1,93;3,26;1,93;1;0;
14412;-18,44;-5,51;-18,44;-5,51;3,27;1,93;3,27;1,93;1;0;
14429;-18,44;-5,51;-18,44;-5,51;3,18;1,8;3,18;1,8;1;0;
14447;-18,51;-4,71;-18,51;-4,71;2,81;1,67;2,81;1,67;1;0;
14465;-12,72;-3,37;-12,72;-3,37;2,77;1,58;2,77;1,58;1;0;
14486;-17,66;-7,51;-17,66;-7,51;2,74;1,71;2,74;1,71;1;0;
14504;-14,32;-9,91;-14,32;-9,91;2,26;1,82;2,26;1,82;1;0;
14521;-13,47;-2,63;-13,47;-2,63;2,26;1,69;2,26;1,69;1;0;
14539;-16,1;-6,63;-16,1;-6,63;2,91;1,79;2,91;1,79;1;0;
14558;-13,42;-4,34;-13,42;-4,34;2,92;1,75;2,92;1,75;1;0;
14576;67,46;-5,71;67,46;-5,71;5,53;1,73;5,53;1,73;1;0;
14592;-9,43;-3,92;-9,43;-3,92;9,61;1,81;9,61;1,81;1;0;
14608;-9,43;-3,92;-9,43;-3,92;13,74;1,71;13,74;1,71;1;0;
14626;16,55;-7,67;16,55;-7,67;19,03;1,81;19,03;1,81;1;0;
14649;-7,63;-6,69;-7,63;-6,69;24,37;1,7;24,37;1,7;1;0;
14664;-46,47;-4,72;-46,47;-4,72;27,23;1,68;27,23;1,68;1;0;
14682;6,07;-9,99;6,07;-9,99;28,4;1,8;28,4;1,8;1;0;
14700;-21,69;-8,48;-21,69;-8,48;34,26;2,01;34,26;2,01;1;0;
14758;2,88;-9,28;2,88;-9,28;37,03;2,29;37,03;2,29;0;0;
14827;-59,12;-7,06;-59,12;-7,06;35,03;2,44;35,03;2,44;0;0;
14875;-65,38;-6,44;-65,38;-6,44;34,38;2,62;34,38;2,62;0;0;
14926;-100,58;-3,39;-100,58;-3,39;33,96;2,65;33,96;2,65;0;0;
14961;-4,66;-5,46;-4,66;-5,46;31,94;2,38;31,94;2,38;0;0;
15005;25,49;-7,47;25,49;-7,47;27,52;2,53;27,52;2,53;0;0;
15049;36,29;-8,63;36,29;-8,63;32,39;2,15;32,39;2,15;0;0;
15088;-10,09;-12,41;-10,09;-12,41;32,23;2,36;32,23;2,36;0;0;
15119;-10,53;-4,7;-10,53;-4,7;34,34;2,38;34,34;2,38;0;0;
15153;14,19;-8,03;14,19;-8,03;37,41;2,36;37,41;2,36;0;0;
15188;-21,46;-8,4;-21,46;-8,4;41,47;2,36;41,47;2,36;0;0;
15218;15,77;-4;15,77;-4;40,89;2,21;40,89;2,21;0;0;
15244;0,06;-5,03;0,06;-5,03;35,87;2,24;35,87;2,24;0;0;
15280;-26,01;-10,53;-26,01;-10,53;37,36;1,99;37,36;1,99;0;0;
15306;-66,93;-3,19;-66,93;-3,19;36,75;2,08;36,75;2,08;0;0;
15340;-31,81;-4,08;-31,81;-4,08;32,04;1,99;32,04;1,99;0;0;
15381;-17,49;-7,02;-17,49;-7,02;25,26;2,02;25,26;2,02;0;0;
15415;-23,93;-7,06;-23,93;-7,06;19,09;1,82;19,09;1,82;1;0;
15469;129,2;-2,28;129,2;-2,28;20,01;2,1;20,01;2,1;1;0;
15503;-32,39;-2,57;-32,39;-2,57;18,38;2,1;18,38;2,1;1;0;
15536;-18,09;-10,02;-18,09;-10,02;15,65;2,1;15,65;2,1;1;0;
15572;-36,19;-8,13;-36,19;-8,13;15,77;1,73;15,77;1,73;1;0;
15589;-36,19;-8,13;-36,19;-8,13;16,29;1,69;16,29;1,69;1;0;
15620;-30,73;-4,96;-30,73;-4,96;16,35;1,58;16,35;1,58;1;0;
15652;-15,99;-7,31;-15,99;-7,31;9,55;1,38;9,55;1,38;1;0;
15682;-24;-2,78;-24;-2,78;6,16;1,26;6,16;1,26;1;0;
15724;-18,8;-10,09;-18,8;-10,09;5,66;1,43;5,66;1,43;1;0;
15778;-13,68;-7,05;-13,68;-7,05;4,91;1,57;4,91;1,57;0;0;
15799;-20,69;-5,72;-20,69;-5,72;4,42;1,6;4,42;1,6;0;0;
15833;-5,27;-8,04;-5,27;-8,04;3,8;1,9;3,8;1,9;0;0;
15864;-42,42;-9,62;-42,42;-9,62;4,1;2,07;4,1;2,07;0;0;
15882;-19,53;-6,72;-19,53;-6,72;6,18;2,22;6,18;2,22;0;0;
15912;72,01;-4,36;72,01;-4,36;12,43;2,05;12,43;2,05;0;0;
15929;72,01;-4,36;72,01;-4,36;19,13;2,27;19,13;2,27;0;0;
15945;-75,83;-13,66;-75,83;-13,66;23,29;2,31;23,29;2,31;0;0;
15962;-70;-5,75;-70;-5,75;31,24;2,43;31,24;2,43;0;0;
15981;-35,68;-3,9;-35,68;-3,9;33,4;2,37;33,4;2,37;0;0;
16002;-9,64;-2,54;-9,64;-2,54;39,35;2,41;39,35;2,41;0;0;
16025;-17,54;-4,04;-17,54;-4,04;41,87;2,26;41,87;2,26;0;0;
16043;-84,04;-4,36;-84,04;-4,36;37,84;2,1;37,84;2,1;0;0;
16061;7,6;-5,98;7,6;-5,98;39,35;1,83;39,35;1,83;0;0;
16081;-27,41;-3,46;-27,41;-3,46;34,03;2;34,03;2;0;0;
16101;-86,81;-8,28;-86,81;-8,28;33,76;1,95;33,76;1,95;0;0;
16120;-14,96;-5,57;-14,96;-5,57;30,83;1,96;30,83;1,96;0;0;
16140;-39,25;-7,83;-39,25;-7,83;29,1;2,08;29,1;2,08;0;0;
16158;-27,99;-5,33;-27,99;-5,33;28,32;2,34;28,32;2,34;0;0;
16178;-24,09;-3,36;-24,09;-3,36;27,91;2,17;27,91;2,17;0;0;
16196;78,44;-6,4;78,44;-6,4;30,12;1,95;30,12;1,95;0;0;
16214;6,78;-6,18;6,78;-6,18;32,71;1,77;32,71;1,77;0;0;
16230;6,78;-6,18;6,78;-6,18;40,56;1,73;40,56;1,73;0;0;
16248;-90,45;-7,41;-90,45;-7,41;40,4;1,6;40,4;1,6;0;0;
16264;-17,64;-3,88;-17,64;-3,88;40,74;1,65;40,74;1,65;0;0;
16286;-62,89;-10,85;-62,89;-10,85;46,52;1,77;46,52;1,77;0;0;
16304;-15,93;-7,83;-15,93;-7,83;40,38;1,93;40,38;1,93;0;0;
16323;-82,77;-7,57;-82,77;-7,57;40,29;2,07;40,29;2,07;0;0;
16343;-19,31;-8,01;-19,31;-8,01;35,09;2,26;35,09;2,26;0;0;
16364;47,9;-3,56;47,9;-3,56;36,09;2,32;36,09;2,32;0;0;
16380;-97,08;-5,39;-97,08;-5,39;31,25;2,31;31,25;2,31;0;0;
16398;-14,59;-4,22;-14,59;-4,22;28,18;2,09;28,18;2,09;0;0;
16416;103,19;-8,96;103,19;-8,96;34,25;2,1;34,25;2,1;0;0;
16434;57,39;-2,03;57,39;-2,03;33,19;2,15;33,19;2,15;0;0;
16452;-15,5;-6,92;-15,5;-6,92;39,31;2,19;39,31;2,19;0;0;
16472;-23,98;-7,69;-23,98;-7,69;34,82;2,06;34,82;2,06;0;0;
16489;-23,98;-7,69;-23,98;-7,69;29,79;2,06;29,79;2,06;0;0;
16511;-25;-7,49;-25;-7,49;28,52;2,12;28,52;2,12;0;0;
16526;-25;-7,49;-25;-7,49;22,81;2,02;22,81;2,02;0;0;
16542;-16,29;-8,78;-16,29;-8,78;18,33;1,87;18,33;1,87;0;0;
16560;-14,95;-5,22;-14,95;-5,22;17,15;1,53;17,15;1,53;0;0;
16577;-25,59;-3,4;-25,59;-3,4;18;1,79;18;1,79;0;0;
16595;-4,21;-7,36;-4,21;-7,36;16,15;1,88;16,15;1,88;0;0;
16616;-10,59;-7,75;-10,59;-7,75;15,38;1,83;15,38;1,83;0;0;
16633;-11,36;-5,09;-11,36;-5,09;15,27;2,11;15,27;2,11;0;0;
16651;8,32;-6,46;8,32;-6,46;12,92;2,07;12,92;2,07;0;0;
16671;-16,72;-6,65;-16,72;-6,65;13,26;1,96;13,26;1,96;0;0;
16689;-16,72;-6,65;-16,72;-6,65;11,98;1,67;11,98;1,67;0;0;
16707;-2,25;-7,54;-2,25;-7,54;11,51;1,68;11,51;1,68;0;0;
16724;24,23;-4,24;24,23;-4,24;12,46;1,55;12,46;1,55;0;0;
16739;24,23;-4,24;24,23;-4,24;15,37;1,75;15,37;1,75;0;0;
16757;-16,83;-7,27;-16,83;-7,27;14,48;2,03;14,48;2,03;0;0;
16776;4,69;-5,88;4,69;-5,88;14,81;2,47;14,81;2,47;0;0;
16794;-5,25;-6,35;-5,25;-6,35;15,66;2,56;15,66;2,56;0;0;
16811;-24,39;-2,27;-24,39;-2,27;14,11;2,56;14,11;2,56;0;0;
16832;-38,94;-10,23;-38,94;-10,23;11,35;2,51;11,35;2,51;0;0;
16849;-38,94;-10,23;-38,94;-10,23;10,03;2,56;10,03;2,56;0;0;
16864;-13,57;-3,75;-13,57;-3,75;14,42;2,13;14,42;2,13;0;0;
16883;-16,01;-6,39;-16,01;-6,39;16,04;2,03;16,04;2,03;0;0;
16900;-16,49;-7,47;-16,49;-7,47;12,95;1,94;12,95;1,94;0;0;
16919;-18,53;-3,13;-18,53;-3,13;13,01;1,98;13,01;1,98;0;0;
16936;-21,85;-4,24;-21,85;-4,24;12,4;1,93;12,4;1,93;0;0;
16954;-22,76;-5,43;-22,76;-5,43;10,61;1,93;10,61;1,93;0;0;
16973;-14,68;-3,2;-14,68;-3,2;5,72;2,09;5,72;2,09;0;0;
16993;-64,53;-10,34;-64,53;-10,34;6,9;1,91;6,9;1,91;0;0;
17011;-12,76;-6,69;-12,76;-6,69;9,02;2,03;9,02;2,03;0;0;
17029;-12,76;-6,69;-12,76;-6,69;10,23;2,21;10,23;2,21;0;0;
17048;3;-6,47;3;-6,47;10,26;2,06;10,26;2,06;0;0;
17066;-10,71;-5,67;-10,71;-5,67;10,07;1,92;10,07;1,92;0;0;
17085;-27,14;-6,75;-27,14;-6,75;10,17;1,82;10,17;1,82;0;0;
17103;-14,43;-8,67;-14,43;-8,67;7,01;1,61;7,01;1,61;0;0;
17120;-16,65;-6,06;-16,65;-6,06;5,54;1,34;5,54;1,34;0;0;
17138;-8,79;-6,43;-8,79;-6,43;5,53;1,38;5,53;1,38;0;0;
17161;-15,71;-2,83;-15,71;-2,83;4,92;1,54;4,92;1,54;0;0;
17177;-18,66;-4,73;-18,66;-4,73;5,39;1,66;5,39;1,66;0;0;
17200;-13,22;-7,75;-13,22;-7,75;4,92;1,77;4,92;1,77;0;0;
17217;-15,44;-10,65;-15,44;-10,65;4,13;1,85;4,13;1,85;0;0;
17235;-12,31;-6,32;-12,31;-6,32;4,23;1,93;4,23;1,93;0;0;
17255;-15,56;-8,04;-15,56;-8,04;4,05;1,94;4,05;1,94;0;0;
17271;-10,8;-6,67;-10,8;-6,67;4,34;1,82;4,34;1,82;1;0;
17288;-10,8;-6,67;-10,8;-6,67;4,03;1,62;4,03;1,62;1;0;
17307;-20,29;-4,75;-20,29;-4,75;5,12;1,72;5,12;1,72;1;0;
17328;-8,19;-8,37;-8,19;-8,37;6,92;1,77;6,92;1,77;1;0;
17344;23,26;-5,28;23,26;-5,28;9,48;1,8;9,48;1,8;1;0;
17361;23,26;-5,28;23,26;-5,28;12,28;1,73;12,28;1,73;1;0;
17379;-35,64;-4,97;-35,64;-4,97;17,31;1,85;17,31;1,85;1;0;
17397;-23,19;-6,93;-23,19;-6,93;18,77;1,78;18,77;1,78;1;0;
17415;-24,38;-8,05;-24,38;-8,05;18,05;1,72;18,05;1,72;1;0;
17434;-37,29;-6,4;-37,29;-6,4;19,95;1,63;19,95;1,63;1;0;
17453;-11,12;-3,41;-11,12;-3,41;18,47;1,64;18,47;1,64;1;0;
17470;-19,96;-8,98;-19,96;-8,98;13,16;1,72;13,16;1,72;1;0;
17492;-16,64;-4,73;-16,64;-4,73;10,32;1,69;10,32;1,69;1;0;
17508;-16,64;-4,73;-16,64;-4,73;8,84;1,74;8,84;1,74;1;0;
17525;-12,31;-4,62;-12,31;-4,62;7,21;1,71;7,21;1,71;1;0;
17542;-20,9;-8,17;-20,9;-8,17;4,32;1,86;4,32;1,86;1;0;
17559;-12,51;-7,42;-12,51;-7,42;3,55;1,89;3,55;1,89;1;0;
17577;-13,6;-3,12;-13,6;-3,12;3,36;1,77;3,36;1,77;1;0;
17595;-13,62;-7,05;-13,62;-7,05;3,4;1,76;3,4;1,76;1;0;
17611;-22,05;-4,36;-22,05;-4,36;3,54;1,76;3,54;1,76;1;0;
17629;-22,05;-4,36;-22,05;-4,36;3,88;1,65;3,88;1,65;1;0;
17650;-15,4;-5,49;-15,4;-5,49;3,83;1,64;3,83;1,64;0;0;
17666;-17,6;-3;-17,6;-3;3,72;1,6;3,72;1,6;0;0;
17684;-20,68;-6,37;-20,68;-6,37;3,87;1,79;3,87;1,79;0;0;
17701;-20,68;-6,37;-20,68;-6,37;3,52;2,08;3,52;2,08;0;0;
17720;-13,13;-3,07;-13,13;-3,07;3,21;2,04;3,21;2,04;0;0;
17738;-18,41;-6,19;-18,41;-6,19;3,11;1,8;3,11;1,8;0;0;
17754;-11,04;-11,26;-11,04;-11,26;3,32;1,83;3,32;1,83;0;0;
17774;-24,02;-7,11;-24,02;-7,11;3,24;1,8;3,24;1,8;0;0;
17793;-15,46;-9,25;-15,46;-9,25;2,97;1,8;2,97;1,8;0;0;
17817;-12,11;-8,78;-12,11;-8,78;3,19;1,95;3,19;1,95;0;0;
17839;-10,6;-6,32;-10,6;-6,32;3,04;1,82;3,04;1,82;0;0;
17857;-17,33;-7,55;-17,33;-7,55;3,19;1,82;3,19;1,82;0;0;
17874;-17,55;-5,47;-17,55;-5,47;3,29;1,74;3,29;1,74;0;0;
17893;-29,95;-8,41;-29,95;-8,41;3,32;1,75;3,32;1,75;0;0;
17911;-10,36;-6,74;-10,36;-6,74;3,84;1,51;3,84;1,51;0;0;
17928;-10,36;-6,74;-10,36;-6,74;4,19;1,44;4,19;1,44;0;0;
17945;-17,83;-3,88;-17,83;-3,88;4,27;1,56;4,27;1,56;0;0;
17965;-28,44;-6,37;-28,44;-6,37;4,1;1,63;4,1;1,63;0;0;
17982;-20,09;-7,51;-20,09;-7,51;4,65;1,54;4,65;1,54;0;0;
17999;-65,87;-6,62;-65,87;-6,62;11,14;1,55;11,14;1,55;0;0;
18018;-0,13;-8,04;-0,13;-8,04;15,74;1,66;15,74;1,66;0;0;
18037;-54,91;-4,84;-54,91;-4,84;23,84;1,85;23,84;1,85;0;0;
18056;16,19;-6,46;16,19;-6,46;28,02;1,75;28,02;1,75;0;0;
18074;19,81;-6,87;19,81;-6,87;36,22;1,8;36,22;1,8;0;0;
18093;-27,2;-3,25;-27,2;-3,25;39,99;1,8;39,99;1,8;0;0;
18113;-19,82;-9,49;-19,82;-9,49;36,34;2,16;36,34;2,16;0;0;
18135;-41,48;-6,42;-41,48;-6,42;31,96;2,16;31,96;2,16;0;0;
18152;75,74;-4,98;75,74;-4,98;32,55;2,22;32,55;2,22;0;0;
18170;75,74;-4,98;75,74;-4,98;31,64;2,41;31,64;2,41;0;0;
18187;3,84;-7,66;3,84;-7,66;27,67;2,54;27,67;2,54;0;0;
18205;-24,74;3,01;-24,74;3,01;32,42;2,56;32,42;2,56;0;0;
18224;-29,75;-6,43;-29,75;-6,43;37,14;2,42;37,14;2,42;0;0;
18242;-2,61;-4,88;-2,61;-4,88;38,36;2,34;38,36;2,34;0;0;
18260;76,45;-9,57;76,45;-9,57;37,5;2,46;37,5;2,46;0;0;
18277;-20,03;-4,02;-20,03;-4,02;35,13;2,36;35,13;2,36;0;0;
18300;2,91;-2,24;2,91;-2,24;31,45;2,36;31,45;2,36;0;0;
18318;43,59;-8,57;43,59;-8,57;26,42;2,36;26,42;2,36;0;0;
18335;64,64;-4,31;64,64;-4,31;27,38;2,38;27,38;2,38;0;0;
18353;35,3;-6,33;35,3;-6,33;30,31;2,45;30,31;2,45;0;0;
18371;3,53;-8,85;3,53;-8,85;32,18;2,57;32,18;2,57;0;0;
18389;3,53;-8,85;3,53;-8,85;37,96;2,9;37,96;2,9;0;0;
18406;9,13;-10,84;9,13;-10,84;42,33;2,9;42,33;2,9;0;0;
18425;0,76;-4,42;0,76;-4,42;38,15;3,02;38,15;3,02;0;0;
18443;-29,63;-4,85;-29,63;-4,85;35,92;3,22;35,92;3,22;0;0;
18465;-30,77;-7,28;-30,77;-7,28;31,54;2,78;31,54;2,78;0;0;
18482;-31,48;-6,67;-31,48;-6,67;29,78;2,42;29,78;2,42;0;0;
18501;8,83;-3,27;8,83;-3,27;24,77;2,62;24,77;2,62;0;0;
18517;-5,17;-13,58;-5,17;-13,58;31,26;2,56;31,26;2,56;0;0;
18534;-73,05;-4,45;-73,05;-4,45;32,85;2,32;32,85;2,32;0;0;
18551;-40,82;-4,34;-40,82;-4,34;34,69;2,29;34,69;2,29;0;0;
18568;-40,82;-4,34;-40,82;-4,34;34;2,4;34;2,4;0;0;
18584;-5,47;-7,35;-5,47;-7,35;32,06;2,53;32,06;2,53;0;0;
18602;-37,85;-7,9;-37,85;-7,9;27,51;2,18;27,51;2,18;0;0;
18624;7,25;-5,51;7,25;-5,51;24,32;2,02;24,32;2,02;0;0;
18641;-25,59;-5,21;-25,59;-5,21;22,32;2,08;22,32;2,08;0;0;
18658;-28,08;-9,41;-28,08;-9,41;22,27;1,95;22,27;1,95;0;0;
18675;-111,15;-8,42;-111,15;-8,42;23,69;2,13;23,69;2,13;0;0;
18694;123,21;-9,4;123,21;-9,4;27,33;2,05;27,33;2,05;0;0;
18713;86,45;-9,35;86,45;-9,35;31,24;2,01;31,24;2,01;0;0;
18732;-25,09;-4,59;-25,09;-4,59;30,64;1,96;30,64;1,96;0;0;
18756;17,56;-9,01;17,56;-9,01;30,91;2,05;30,91;2,05;0;0;
18776;-20,64;-3,77;-20,64;-3,77;30,44;1,81;30,44;1,81;0;0;
18797;-14,15;-4,34;-14,15;-4,34;27,99;1,98;27,99;1,98;0;0;
18814;14,55;-5,87;14,55;-5,87;27,66;1,96;27,66;1,96;0;0;
18833;-25,69;-8,39;-25,69;-8,39;25,43;1,77;25,43;1,77;0;0;
18852;35,42;-6,66;35,42;-6,66;23,06;1,73;23,06;1,73;0;0;
18871;5,8;-4,72;5,8;-4,72;22,17;1,62;22,17;1,62;0;0;
18887;5,8;-4,72;5,8;-4,72;23,59;1,42;23,59;1,42;0;0;
18903;-32,28;-8,28;-32,28;-8,28;22,29;1,32;22,29;1,32;0;0;
18921;-19,66;-7,42;-19,66;-7,42;18,24;1,35;18,24;1,35;0;0;
18938;-5,85;-8,57;-5,85;-8,57;16,27;1,26;16,27;1,26;0;0;
18957;-52,8;-9,26;-52,8;-9,26;16,05;1,41;16,05;1,41;0;0;
18974;-61,14;-5,45;-61,14;-5,45;17,13;1,42;17,13;1,42;0;0;
18991;-10,19;-2,04;-10,19;-2,04;17,15;1,44;17,15;1,44;0;0;
19007;-10,19;-2,04;-10,19;-2,04;15,65;1,47;15,65;1,47;0;0;
19023;-49,84;-9,12;-49,84;-9,12;15,66;1,48;15,66;1,48;0;0;
19042;7,56;-4,48;7,56;-4,48;17,83;1,56;17,83;1,56;0;0;
19061;-71,49;-10,91;-71,49;-10,91;21,38;1,62;21,38;1,62;0;0;
19079;-55,05;-9,25;-55,05;-9,25;20,15;1,61;20,15;1,61;0;0;
19098;-20,49;-9,57;-20,49;-9,57;21,12;1,64;21,12;1,64;0;0;
19119;8,52;-5,11;8,52;-5,11;22,67;1,73;22,67;1,73;0;0;
19138;-3,03;-9,48;-3,03;-9,48;27,23;1,91;27,23;1,91;0;0;
19157;-36,49;-3,04;-36,49;-3,04;26,68;2,11;26,68;2,11;0;0;
19173;-17,72;-7,17;-17,72;-7,17;21,28;2,03;21,28;2,03;0;1;
19189;-17,72;-7,17;-17,72;-7,17;19,39;1,89;19,39;1,89;0;1;
19206;-15,49;-4,2;-15,49;-4,2;23,84;1,73;23,84;1,73;0;1;
19225;-12,1;-8,05;-12,1;-8,05;19,44;1,74;19,44;1,74;0;1;
19242;-27,26;-3,57;-27,26;-3,57;16,37;1,66;16,37;1,66;0;1;
19259;-11,52;-6,44;-11,52;-6,44;15,15;1,57;15,15;1,57;0;1;
19281;-17,27;-1;-17,27;-1;13,17;1,87;13,17;1,87;0;1;
19299;-17,84;-6,78;-17,84;-6,78;7,46;1,93;7,46;1,93;0;1;
19317;-15,02;-6,71;-15,02;-6,71;4,56;2,06;4,56;2,06;0;1;
19335;-132,37;-9,69;-132,37;-9,69;12,17;2,37;12,17;2,37;0;1;
19353;291,85;-2,25;291,85;-2,25;26,78;2,88;26,78;2,88;0;1;
19371;-78,54;-11,56;-78,54;-11,56;51,71;3,18;51,71;3,18;0;1;
19388;-78,54;-11,56;-78,54;-11,56;76,82;3,38;76,82;3,38;0;1;
19405;-113,6;-11,9;-113,6;-11,9;90,91;3,51;90,91;3,51;0;1;
19426;-0,18;-4,33;-0,18;-4,33;98,57;3,43;98,57;3,43;0;1;
19447;-165,42;-8,49;-165,42;-8,49;104,24;2,76;104,24;2,76;0;1;
19463;-13,25;3,83;-13,25;3,83;91,59;3;91,59;3;0;1;
19479;-15,61;-40,09;-15,61;-40,09;67,08;5,49;67,08;5,49;0;1;
19498;-25,38;91,82;-25,38;91,82;46,96;9,29;46,96;9,29;0;1;
19513;-5,93;-15,51;-5,93;-15,51;37;14,43;37;14,43;0;0;
19530;-15,17;-10,9;-15,17;-10,9;22,99;21,48;22,99;21,48;0;0;
19545;-15,17;-10,9;-15,17;-10,9;9,7;28,5;9,7;28,5;0;0;
19562;-14,86;-36,97;-14,86;-36,97;7,74;35,1;7,74;35,1;0;0;
19581;-14,55;-1,21;-14,55;-1,21;6,62;36,52;6,62;36,52;0;0;
19604;-8,6;47,16;-8,6;47,16;5,05;33,11;5,05;33,11;0;0;
19623;-6,93;8,73;-6,93;8,73;5,13;34,24;5,13;34,24;0;0;
19641;-12,82;4,19;-12,82;4,19;5,38;30,3;5,38;30,3;0;0;
19661;-20,57;4,14;-20,57;4,14;5,39;22,64;5,39;22,64;0;0;
19680;-26,59;24,55;-26,59;24,55;5,89;22,38;5,89;22,38;0;0;
19696;-13,21;-24,45;-13,21;-24,45;5,49;20,86;5,49;20,86;0;0;
19714;-17,31;2,7;-17,31;2,7;5,72;17,12;5,72;17,12;0;0;
19734;-12,55;14,44;-12,55;14,44;5;17,13;5;17,13;0;0;
19756;-7,97;13,78;-7,97;13,78;4,82;18,17;4,82;18,17;0;0;
19775;-19,25;-38,91;-19,25;-38,91;4,86;20,33;4,86;20,33;0;0;
19792;-17,21;-27,49;-17,21;-27,49;3,87;18,01;3,87;18,01;0;0;
19809;-17,21;-27,49;-17,21;-27,49;3,85;17,97;3,85;17,97;0;0;
19826;-19,32;-1,39;-19,32;-1,39;3,7;17,04;3,7;17,04;0;0;
19844;-19,34;6,81;-19,34;6,81;3,85;13,23;3,85;13,23;0;0;
19862;-7,64;-21,54;-7,64;-21,54;3,87;14,34;3,87;14,34;0;0;
19878;-9,72;16,2;-9,72;16,2;3,81;16,6;3,81;16,6;0;0;
19896;-13,76;-22,51;-13,76;-22,51;3,81;16,26;3,81;16,26;1;0;
19916;-18,66;13,23;-18,66;13,23;4,06;17,03;4,06;17,03;1;0;
19932;-21,18;-5,74;-21,18;-5,74;3,66;17,81;3,66;17,81;1;0;
19949;-21,18;-5,74;-21,18;-5,74;3,84;16,63;3,84;16,63;1;0;
19966;-11,38;-27,27;-11,38;-27,27;4,01;12,87;4,01;12,87;1;0;
19983;-15,23;-6,4;-15,23;-6,4;4,01;11,97;4,01;11,97;1;0;
20000;-18,13;-14,58;-18,13;-14,58;4,43;10,81;4,43;10,81;1;0;
20018;-18,97;-14,99;-18,97;-14,99;3,94;8,74;3,94;8,74;1;0;
20035;-10,93;12,67;-10,93;12,67;3,96;8,11;3,96;8,11;1;0;
20054;-17,09;-8,84;-17,09;-8,84;3,8;9,77;3,8;9,77;1;0;
20076;-15,62;12,99;-15,62;12,99;3,72;10,78;3,72;10,78;1;0;
20096;-16,52;-26,93;-16,52;-26,93;3,97;12,82;3,97;12,82;1;0;
20112;-19,13;-20,65;-19,13;-20,65;3,92;12,97;3,92;12,97;1;0;
20132;-22,61;7,4;-22,61;7,4;4,41;15,41;4,41;15,41;1;0;
20151;-12,28;3,68;-12,28;3,68;4,94;15,57;4,94;15,57;1;0;
20167;-12,28;3,68;-12,28;3,68;5,6;14,49;5,6;14,49;1;0;
20182;-20,21;-15,02;-20,21;-15,02;5,72;13,37;5,72;13,37;1;0;
20200;-11,62;-13,09;-11,62;-13,09;5,19;11,81;5,19;11,81;1;0;
20218;-24,49;-4,87;-24,49;-4,87;5,12;11,55;5,12;11,55;1;0;
20239;-15,61;-7,56;-15,61;-7,56;5,06;9,07;5,06;9,07;0;0;
20257;-15,42;-3,87;-15,42;-3,87;4,27;7,09;4,27;7,09;0;0;
20274;-17,71;-18,66;-17,71;-18,66;3,63;6;3,63;6;0;0;
20296;-15,39;-10,91;-15,39;-10,91;3,3;6,2;3,3;6,2;0;0;
20312;-15,62;-3,87;-15,62;-3,87;3,35;5,28;3,35;5,28;0;0;
20332;-12,3;-10,66;-12,3;-10,66;3,12;7,14;3,12;7,14;0;0;
20351;-19,95;-22,81;-19,95;-22,81;3,09;8,2;3,09;8,2;0;0;
20367;-19,95;-22,81;-19,95;-22,81;2,94;9,59;2,94;9,59;0;0;
20385;-17,46;-13,77;-17,46;-13,77;3,23;9,23;3,23;9,23;0;0;
20407;-17,45;2,56;-17,45;2,56;3,29;9,93;3,29;9,93;0;0;
20427;-0,02;-8,94;-0,02;-8,94;3,54;9,33;3,54;9,33;0;0;
20445;-88,49;-5,92;-88,49;-5,92;7,23;6,9;7,23;6,9;0;0;
20464;3,76;-11,82;3,76;-11,82;11,25;5,43;11,25;5,43;0;0;
20481;10,9;-12,16;10,9;-12,16;15,84;4,48;15,84;4,48;0;0;
20501;-46,61;-3,11;-46,61;-3,11;20,55;4,02;20,55;4,02;0;0;
20519;-60,89;-1,42;-60,89;-1,42;31,37;3,05;31,37;3,05;0;0;
20538;99,74;-0,14;99,74;-0,14;44,34;3,22;44,34;3,22;0;0;
20558;57,81;-2,29;57,81;-2,29;53,18;3,52;53,18;3,52;0;0;
20575;-37,03;-3,86;-37,03;-3,86;62,77;3,39;62,77;3,39;0;0;
20591;-55,66;-4,62;-55,66;-4,62;66,65;3,09;66,65;3,09;0;0;
20608;-55,66;-4,62;-55,66;-4,62;66,1;2,91;66,1;2,91;0;0;
20624;-98,75;-5,95;-98,75;-5,95;69,15;2,68;69,15;2,68;0;0;
20640;57,48;-6,26;57,48;-6,26;61,28;2,24;61,28;2,24;0;0;
20657;40,2;-13,19;40,2;-13,19;61,92;2,9;61,92;2,9;0;0;
20674;-12,17;-9,13;-12,17;-9,13;61,81;3,02;61,81;3,02;0;0;
20691;5,51;-6,14;5,51;-6,14;58,06;3,11;58,06;3,11;0;0;
20709;5,51;-6,14;5,51;-6,14;50,22;3,05;50,22;3,05;0;0;
20727;-74,26;-7,68;-74,26;-7,68;46,75;3,09;46,75;3,09;0;0;
20744;2,7;-9,58;2,7;-9,58;43,31;2,85;43,31;2,85;0;0;
20762;-36,11;-5,18;-36,11;-5,18;28,27;2,14;28,27;2,14;0;0;
20780;22,93;-8,86;22,93;-8,86;27,95;2,04;27,95;2,04;0;0;
20796;-29,49;-9,02;-29,49;-9,02;26,67;2,05;26,67;2,05;0;0;
20812;36,78;-4,15;36,78;-4,15;25,11;2,01;25,11;2,01;0;0;
20831;3,33;-7,63;3,33;-7,63;26,72;2,24;26,72;2,24;0;0;
20848;3,33;-7,63;3,33;-7,63;31,33;2,29;31,33;2,29;0;0;
20869;-46,63;-8,78;-46,63;-8,78;35,3;2,29;35,3;2,29;0;0;
20888;-8,23;-10,33;-8,23;-10,33;39,08;2,49;39,08;2,49;0;0;
20906;-16,98;-5,51;-16,98;-5,51;37,84;2,54;37,84;2,54;0;0;
20922;-89,06;-6,44;-89,06;-6,44;35,89;2,48;35,89;2,48;0;0;
20941;-9,88;-5,17;-9,88;-5,17;29,52;2,34;29,52;2,34;0;0;
20957;-8,82;-5,56;-8,82;-5,56;23,55;2,19;23,55;2,19;0;0;
20976;-19;-8,86;-19;-8,86;15,41;2,19;15,41;2,19;0;0;
20992;-46,72;-3,96;-46,72;-3,96;12,81;2,01;12,81;2,01;0;0;
21011;-10,38;-6,21;-10,38;-6,21;14,95;1,89;14,95;1,89;0;0;
21033;-31,27;-10,83;-31,27;-10,83;14,58;1,8;14,58;1,8;0;0;
21050;-49,1;-6,4;-49,1;-6,4;18,18;2,14;18,18;2,14;0;0;
21068;-49,1;-6,4;-49,1;-6,4;22,23;2,36;22,23;2,36;0;0;
21088;-20,53;-6,74;-20,53;-6,74;22,37;2,2;22,37;2,2;1;0;
21106;-11,92;-9,73;-11,92;-9,73;19,36;2,36;19,36;2,36;1;0;
21122;-50,99;-5,62;-50,99;-5,62;17,32;2,31;17,32;2,31;1;0;
21140;-55,11;-5,97;-55,11;-5,97;19,3;2,06;19,3;2,06;1;0;
21159;-18,99;-5,32;-18,99;-5,32;15,26;1,75;15,26;1,75;1;0;
21176;-7,79;-6,97;-7,79;-6,97;12,37;1,81;12,37;1,81;1;0;
21196;-52,84;-4,73;-52,84;-4,73;13,93;1,93;13,93;1,93;1;0;
21212;-22,32;-8,04;-22,32;-8,04;15,37;2;15,37;2;1;0;
21231;31,72;-1,23;31,72;-1,23;17,56;1,99;17,56;1,99;1;0;
21248;31,72;-1,23;31,72;-1,23;19,16;1,86;19,16;1,86;1;0;
21267;-35,14;-8,74;-35,14;-8,74;20,75;1,96;20,75;1,96;1;0;
21285;-13,01;-5,6;-13,01;-5,6;23,7;1,77;23,7;1,77;1;0;
21302;-18,9;-6,7;-18,9;-6,7;21,41;1,65;21,41;1,65;1;0;
21318;-39,03;-4,81;-39,03;-4,81;22,25;1,49;22,25;1,49;1;0;
21336;-23,77;-4,55;-23,77;-4,55;18,4;1,6;18,4;1,6;1;0;
21358;-24,39;-6,18;-24,39;-6,18;21,36;1,65;21,36;1,65;1;0;
21375;-47,44;-5,09;-47,44;-5,09;25,48;1,72;25,48;1,72;1;0;
21391;4,17;-0,85;4,17;-0,85;27,91;1,97;27,91;1,97;1;0;
21407;4,17;-0,85;4,17;-0,85;29,59;2,19;29,59;2,19;1;0;
21423;55,86;1,38;55,86;1,38;42,45;2,36;42,45;2,36;0;0;
21439;-3,03;-7,25;-3,03;-7,25;40,45;2,28;40,45;2,28;0;0;
21458;-27,7;-6,3;-27,7;-6,3;35,75;2,12;35,75;2,12;0;0;
21475;-6,19;-4,02;-6,19;-4,02;37,13;1,95;37,13;1,95;0;0;
21494;2,8;-9,38;2,8;-9,38;38,69;1,94;38,69;1,94;0;0;
21520;-57,89;-6,68;-57,89;-6,68;34,06;1,94;34,06;1,94;0;0;
21539;-9,24;-5,95;-9,24;-5,95;31,59;1,67;31,59;1,67;0;0;
21558;-35,9;-8,39;-35,9;-8,39;34,78;1,84;34,78;1,84;0;0;
21576;-66,93;-5,7;-66,93;-5,7;37,82;1,92;37,82;1,92;0;0;
21593;-59,34;-6,43;-59,34;-6,43;34,79;1,78;34,79;1,78;0;0;
21610;-59,34;-6,43;-59,34;-6,43;33,64;1,59;33,64;1,59;0;0;
21628;-16,64;-2,49;-16,64;-2,49;27,41;1,63;27,41;1,63;0;0;
21646;-2,48;-11,08;-2,48;-11,08;34,17;1,72;34,17;1,72;0;0;
21669;-20,38;-3,58;-20,38;-3,58;33,37;1,61;33,37;1,61;0;0;
21688;-20,38;-3,58;-20,38;-3,58;32,62;1,79;32,62;1,79;0;0;
21707;-17,4;-5,53;-17,4;-5,53;25,02;1,89;25,02;1,89;0;0;
21723;-11,89;-26,03;-11,89;-26,03;19,33;2,34;19,33;2,34;0;0;
21741;-18,75;-19,86;-18,75;-19,86;10,86;4,5;10,86;4,5;0;0;
21758;-16,25;7,55;-16,25;7,55;6,58;6,17;6,58;6,17;0;0;
21776;-21,85;-18,47;-21,85;-18,47;4,95;6,59;4,95;6,59;0;0;
21794;-14,4;0,67;-14,4;0,67;4,01;6,78;4,01;6,78;0;0;
21812;-14,6;-4,81;-14,6;-4,81;6,25;6,86;6,25;6,86;0;0;
21838;-28,56;-5,82;-28,56;-5,82;6,96;5,27;6,96;5,27;0;0;
21857;-25,69;-6,15;-25,69;-6,15;10,38;3,66;10,38;3,66;0;0;
21874;-6,47;-2,04;-6,47;-2,04;11,81;2,44;11,81;2,44;0;0;
21891;-21,98;-7,3;-21,98;-7,3;13,14;2,28;13,14;2,28;0;0;
21907;-21,98;-7,3;-21,98;-7,3;12,15;2,3;12,15;2,3;0;0;
21925;-12,2;-12,23;-12,2;-12,23;13,56;2,93;13,56;2,93;0;0;
21944;-47,5;-7,79;-47,5;-7,79;11,84;3,3;11,84;3,3;0;0;
21962;-39,19;-6,14;-39,19;-6,14;12,84;3,14;12,84;3,14;0;0;
21981;-9,33;-7,9;-9,33;-7,9;12,16;3,12;12,16;3,12;0;0;
22001;-27,85;-2,05;-27,85;-2,05;11,49;3,14;11,49;3,14;0;0;
22017;-18,25;-5,35;-18,25;-5,35;9,73;2,96;9,73;2,96;0;0;
22035;-17,86;-11,21;-17,86;-11,21;8,15;2,7;8,15;2,7;0;0;
22050;-16,96;-2,64;-16,96;-2,64;4,44;3,67;4,44;3,67;0;0;
22068;-16,96;-2,64;-16,96;-2,64;3,6;4,54;3,6;4,54;0;0;
22085;-15,92;16,53;-15,92;16,53;2,75;6,23;2,75;6,23;0;0;
22102;-19,83;-36,2;-19,83;-36,2;2,94;7,94;2,94;7,94;0;0;
22118;-13,77;1,33;-13,77;1,33;3,67;8,71;3,67;8,71;0;0;
22134;-19,28;-10,17;-19,28;-10,17;3,7;8,94;3,7;8,94;0;0;
22156;-20,28;-16,78;-20,28;-16,78;3,92;9,46;3,92;9,46;0;0;
22173;-14,51;0,78;-14,51;0,78;4,45;9,24;4,45;9,24;0;0;
22191;-18,28;-15,45;-18,28;-15,45;4,54;7,91;4,54;7,91;0;0;
22207;-18,28;-15,45;-18,28;-15,45;4;7,61;4;7,61;0;0;
22226;-30,15;-12,88;-30,15;-12,88;4,14;8,18;4,14;8,18;0;0;
22243;-12,94;-6,43;-12,94;-6,43;4,09;9,23;4,09;9,23;0;0;
22262;-21,31;-1,31;-21,31;-1,31;3,82;10,67;3,82;10,67;0;0;
22281;-16,3;3,82;-16,3;3,82;3,79;11,2;3,79;11,2;0;0;
22300;-18,96;-21,53;-18,96;-21,53;3,68;11,67;3,68;11,67;0;0;
22321;-20,25;-2,14;-20,25;-2,14;3,57;11,75;3,57;11,75;0;0;
22339;-21,55;-6,71;-21,55;-6,71;3,64;13,2;3,64;13,2;0;0;
22356;-23,03;-9,83;-23,03;-9,83;3,78;12,21;3,78;12,21;0;0;
22373;-10,43;38,49;-10,43;38,49;4,17;13,33;4,17;13,33;0;0;
22391;-19,81;-13,79;-19,81;-13,79;4;13,33;4;13,33;0;0;
22406;-19,81;-13,79;-19,81;-13,79;4,29;13,41;4,29;13,41;0;0;
22422;-21,29;5,02;-21,29;5,02;3,86;12,88;3,86;12,88;0;0;
22440;-12,09;0,7;-12,09;0,7;3,78;11,44;3,78;11,44;0;0;
22480;-19,17;-1,59;-19,17;-1,59;4;10,6;4;10,6;0;0;
22500;-22,34;-1,98;-22,34;-1,98;3,88;6,45;3,88;6,45;0;0;
22517;-13,29;-10,87;-13,29;-10,87;4,17;6,91;4,17;6,91;0;0;
22534;-19,01;-31,99;-19,01;-31,99;3,89;7,37;3,89;7,37;0;0;
22549;-19,01;-31,99;-19,01;-31,99;3,6;7,8;3,6;7,8;0;0;
22566;-14,78;4,77;-14,78;4,77;3,49;7,88;3,49;7,88;0;0;
22582;-15,9;-4,91;-15,9;-4,91;3,48;8,87;3,48;8,87;0;0;
22601;-15,34;-1,22;-15,34;-1,22;3,59;9,34;3,59;9,34;0;0;
22619;-15,16;-11,26;-15,16;-11,26;3,28;8,54;3,28;8,54;0;0;
22635;-17,58;3,29;-17,58;3,29;3,44;9,26;3,44;9,26;0;0;
22657;-7,13;-1,21;-7,13;-1,21;3,56;10,15;3,56;10,15;0;0;
22674;-18,03;-5;-18,03;-5;3,4;10,65;3,4;10,65;0;0;
22692;-16,21;-12,41;-16,21;-12,41;3,34;11,13;3,34;11,13;0;0;
22708;-16,21;-12,41;-16,21;-12,41;3,57;11,62;3,57;11,62;0;0;
22723;-21,57;-3,92;-21,57;-3,92;3,82;10,53;3,82;10,53;0;0;
22739;-8,01;-1,31;-8,01;-1,31;4,04;10,93;4,04;10,93;0;0;
22757;-18,32;-12,96;-18,32;-12,96;3,9;9,35;3,9;9,35;0;0;
22775;-21,62;-5,54;-21,62;-5,54;3,75;8,68;3,75;8,68;0;0;
22793;-9,3;22,49;-9,3;22,49;3,88;9,69;3,88;9,69;0;0;
22814;-11,24;-4,92;-11,24;-4,92;4,27;9,83;4,27;9,83;0;0;
22831;-19,14;-5,36;-19,14;-5,36;4,39;9,32;4,39;9,32;0;0;
22847;-19,14;-5,36;-19,14;-5,36;4,38;10,05;4,38;10,05;0;0;
22863;-24,21;39,52;-24,21;39,52;4,44;12,58;4,44;12,58;0;0;
22879;-14,91;-3,67;-14,91;-3,67;4,83;13,46;4,83;13,46;0;0;
22897;-17,98;7,97;-17,98;7,97;4,42;12,56;4,42;12,56;0;0;
22914;-10,67;17,65;-10,67;17,65;4,16;17,47;4,16;17,47;0;0;
22931;-19,47;25,68;-19,47;25,68;4,22;22,35;4,22;22,35;0;0;
22947;-19,47;25,68;-19,47;25,68;4,33;27,28;4,33;27,28;0;0;
22970;-18,69;-33,36;-18,69;-33,36;4,31;25,73;4,31;25,73;0;0;
22989;-6,93;-10,55;-6,93;-10,55;5,19;29,49;5,19;29,49;0;1;
23006;-10,98;-0,14;-10,98;-0,14;5,75;27,76;5,75;27,76;0;1;
23023;-24,03;-4,77;-24,03;-4,77;5,47;22,43;5,47;22,43;0;1;
23040;-8,94;22,05;-8,94;22,05;5,62;20,26;5,62;20,26;0;1;
23058;-13,51;1,76;-13,51;1,76;5,57;19,22;5,57;19,22;0;1;
23077;-16,85;-3,73;-16,85;-3,73;5;16,7;5;16,7;0;1;
23094;-13,37;13,59;-13,37;13,59;4,58;17;4,58;17;0;1;
23110;-19,71;-19,88;-19,71;-19,88;4,45;17,85;4,45;17,85;0;1;
23133;-9,19;-4,35;-9,19;-4,35;4,37;17,17;4,37;17,17;0;1;
23150;-22,52;-16,17;-22,52;-16,17;4,24;14,23;4,24;14,23;0;1;
23169;-22,52;-16,17;-22,52;-16,17;4,2;11,72;4,2;11,72;0;1;
23186;-15,47;-17,63;-15,47;-17,63;4,32;9,72;4,32;9,72;0;1;
23206;-26,82;-23,49;-26,82;-23,49;4,77;9,58;4,77;9,58;0;1;
23224;-16,29;-3,35;-16,29;-3,35;5,19;9,71;5,19;9,71;0;1;
23240;-24,81;-15,33;-24,81;-15,33;4,94;9,56;4,94;9,56;0;1;
23258;-8,93;-3,18;-8,93;-3,18;4,94;10,67;4,94;10,67;0;1;
23276;-24,93;-15,14;-24,93;-15,14;4,94;10,91;4,94;10,91;0;1;
23299;-12,35;-12,6;-12,35;-12,6;4,68;10,6;4,68;10,6;0;1;
23317;-15,03;-5,44;-15,03;-5,44;4,02;8,74;4,02;8,74;0;0;
23335;-18,43;3,1;-18,43;3,1;4,21;8,49;4,21;8,49;0;0;
23350;-18,43;3,1;-18,43;3,1;4,4;8,82;4,4;8,82;0;0;
23367;-13,62;27,37;-13,62;27,37;4,15;10,25;4,15;10,25;0;0;
23384;-17,51;-11,14;-17,51;-11,14;3,96;11,4;3,96;11,4;0;0;
23406;-6,72;15,71;-6,72;15,71;3,91;11,59;3,91;11,59;0;0;
23427;-15,84;4,61;-15,84;4,61;4,25;13,5;4,25;13,5;0;0;
23451;-11,97;3,55;-11,97;3,55;4,02;13,57;4,02;13,57;0;0;
23471;-25,25;7,25;-25,25;7,25;4,01;12,32;4,01;12,32;0;0;
23489;-25,25;7,25;-25,25;7,25;4,1;10,56;4,1;10,56;0;0;
23507;-20,39;25,8;-20,39;25,8;4,3;11,62;4,3;11,62;0;0;
23523;-16,26;-15,33;-16,26;-15,33;4,24;11,71;4,24;11,71;0;0;
23541;-15;-12,09;-15;-12,09;4,14;10,54;4,14;10,54;0;0;
23559;-13,29;-37,01;-13,29;-37,01;3,79;10,94;3,79;10,94;0;0;
23575;-12,25;-13,94;-12,25;-13,94;3,41;13,15;3,41;13,15;0;0;
23592;-18,32;-6,97;-18,32;-6,97;3,19;12,2;3,19;12,2;0;0;
23612;-21,34;-3,56;-21,34;-3,56;2,88;10,15;2,88;10,15;0;0;
23631;-16,08;-16,12;-16,08;-16,12;2,83;10,72;2,83;10,72;0;0;
23648;-16,08;-16,12;-16,08;-16,12;2,82;11,7;2,82;11,7;0;0;
23664;-15,28;-6,22;-15,28;-6,22;2,98;9,44;2,98;9,44;0;0;
23680;-10,84;-5,6;-10,84;-5,6;3,38;7,22;3,38;7,22;0;0;
23698;-12,24;-7,27;-12,24;-7,27;3,72;6,46;3,72;6,46;1;0;
23715;-21,32;-2;-21,32;-2;3,91;7,09;3,91;7,09;1;0;
23732;-47,42;-6,19;-47,42;-6,19;6,97;5,27;6,97;5,27;1;0;
23751;18,89;-4,73;18,89;-4,73;12,73;3,75;12,73;3,75;1;0;
23774;-24,46;-6,61;-24,46;-6,61;16,17;3,79;16,17;3,79;1;0;
23793;-46,32;-9,19;-46,32;-9,19;18,61;3,72;18,61;3,72;1;0;
23809;-46,32;-9,19;-46,32;-9,19;21,35;3,19;21,35;3,19;1;0;
23825;-68,73;-6,95;-68,73;-6,95;27,82;1,98;27,82;1,98;1;0;
23841;-39,16;0,66;-39,16;0,66;29,58;2,51;29,58;2,51;1;0;
23860;-39,16;0,66;-39,16;0,66;29,89;3,2;29,89;3,2;0;0;
23883;31,39;-7,28;31,39;-7,28;34,96;3,58;34,96;3,58;0;0;
23935;-45,36;-4,36;-45,36;-4,36;43,22;3,74;43,22;3,74;0;0;
23956;-11,82;-7,37;-11,82;-7,37;46,18;4;46,18;4;0;0;
24020;-42,52;-4,25;-42,52;-4,25;50,21;3,76;50,21;3,76;0;0;
24040;-29,61;-8,03;-29,61;-8,03;50,19;3,28;50,19;3,28;0;0;
24065;55,89;-7,42;55,89;-7,42;48,44;3,05;48,44;3,05;0;0;
24101;-48,56;-9,88;-48,56;-9,88;44,12;2,52;44,12;2,52;0;0;
24151;-65,49;-4,02;-65,49;-4,02;38,72;2,18;38,72;2,18;0;0;
24188;-77,74;-8,63;-77,74;-8,63;31,78;1,82;31,78;1,82;0;0;
24204;-69,23;-1,18;-69,23;-1,18;30;2,12;30;2,12;0;0;
24232;-0,48;-7,66;-0,48;-7,66;28,89;1,79;28,89;1,79;0;0;
24281;58,53;-9,55;58,53;-9,55;27,95;1,78;27,95;1,78;0;0;
24305;-6,69;-6,18;-6,69;-6,18;25,07;1,7;25,07;1,7;0;0;
24337;-64,94;-9,57;-64,94;-9,57;29,77;1,9;29,77;1,9;0;0;
24363;-52,39;-6,41;-52,39;-6,41;37;2,17;37;2,17;0;0;
24390;-44,43;-3,75;-44,43;-3,75;38,98;2,08;38,98;2,08;0;0;
24407;-117,1;-3,72;-117,1;-3,72;43,58;2,41;43,58;2,41;0;0;
24425;-51,58;-6,39;-51,58;-6,39;46,31;2,89;46,31;2,89;0;0;
24442;-36,36;-8,21;-36,36;-8,21;44,82;2,94;44,82;2,94;0;0;
24463;64,75;-4,34;64,75;-4,34;41,2;2,67;41,2;2,67;0;0;
24481;67,63;-10,52;67,63;-10,52;43,89;3;43,89;3;0;0;
24508;-25,59;-5,18;-25,59;-5,18;42,91;2,88;42,91;2,88;0;0;
24525;-14,14;-6,89;-14,14;-6,89;32,58;2,7;32,58;2,7;0;0;
24562;-49,4;-2,08;-49,4;-2,08;31,77;2,3;31,77;2,3;0;0;
24578;-13,28;-6,69;-13,28;-6,69;28,49;2,23;28,49;2,23;0;0;
24596;10;-8,66;10;-8,66;17,13;2,03;17,13;2,03;0;0;
24624;-24,57;-8,47;-24,57;-8,47;12,57;1,82;12,57;1,82;0;0;
24641;-29,26;-3,69;-29,26;-3,69;12,25;1,73;12,25;1,73;0;0;
24659;-6,94;-6,56;-6,94;-6,56;15,82;1,8;15,82;1,8;0;0;
24691;-16,95;-12,41;-16,95;-12,41;13,57;1,99;13,57;1,99;0;0;
24707;-16,95;-12,41;-16,95;-12,41;12,54;1,95;12,54;1,95;0;0;
24724;-35,02;-9,11;-35,02;-9,11;12,44;2,13;12,44;2,13;0;0;
24742;105,77;-11,3;105,77;-11,3;19,49;2,72;19,49;2,72;0;0;
24759;-7,83;-11,62;-7,83;-11,62;20,47;3,79;20,47;3,79;0;0;
24779;-6,08;-5,73;-6,08;-5,73;22,81;4,02;22,81;4,02;0;0;
24796;-21,9;-6,54;-21,9;-6,54;21,6;3,83;21,6;3,83;0;0;
24813;-6,78;-4,52;-6,78;-4,52;26,72;3,61;26,72;3,61;0;0;
24830;-6,78;-4,52;-6,78;-4,52;32,24;3,32;32,24;3,32;0;0;
24845;24,02;-9,36;24,02;-9,36;30,51;2,36;30,51;2,36;0;0;
24862;91,51;-4,28;91,51;-4,28;32,61;2,16;32,61;2,16;0;0;
24879;1,5;-6,43;1,5;-6,43;32,72;1,98;32,72;1,98;1;0;
24897;-90,75;-4,35;-90,75;-4,35;38,49;2;38,49;2;1;0;
24915;-75,5;-8,15;-75,5;-8,15;40,8;2,16;40,8;2,16;1;0;
24934;-16,21;-5,01;-16,21;-5,01;37,86;2,26;37,86;2,26;1;0;
24951;-70;-6,47;-70;-6,47;44,25;2,1;44,25;2,1;1;0;
24967;-70;-6,47;-70;-6,47;47,53;2,08;47,53;2,08;1;0;
24986;1,1;-4,98;1,1;-4,98;51,59;2,28;51,59;2,28;1;0;
25009;-103,94;-11,06;-103,94;-11,06;46,92;2,53;46,92;2,53;1;0;
25027;-78,22;-5,87;-78,22;-5,87;47,89;2,6;47,89;2,6;1;0;
25044;-62,31;-3,36;-62,31;-3,36;52,93;2,42;52,93;2,42;1;0;
25059;-55,08;-7,41;-55,08;-7,41;50,78;2,37;50,78;2,37;1;0;
25079;-19,86;-5,56;-19,86;-5,56;48,08;2,27;48,08;2,27;1;0;
25102;4,57;-4,36;4,57;-4,36;46,1;2,4;46,1;2,4;1;0;
25119;-5,47;-2,06;-5,47;-2,06;49,73;2,08;49,73;2,08;1;0;
25136;-2,14;-8,03;-2,14;-8,03;46,46;2,12;46,46;2,12;1;0;
25152;23,17;-8,63;23,17;-8,63;38,35;2,08;38,35;2,08;1;0;
25168;23,17;-8,63;23,17;-8,63;28,92;2,02;28,92;2,02;1;0;
25189;-54,05;-9,88;-54,05;-9,88;38,27;1,92;38,27;1,92;1;0;
25208;-26,28;-7,43;-26,28;-7,43;35,8;1,7;35,8;1,7;1;0;
25225;-58,49;-12,01;-58,49;-12,01;27,72;1,71;27,72;1,71;0;0;
25246;-39,59;-8,41;-39,59;-8,41;29,63;2,03;29,63;2,03;0;0;
25266;-9,66;-8,5;-9,66;-8,5;31,84;2,09;31,84;2,09;0;0;
25285;-23,51;-6,04;-23,51;-6,04;27,61;1,98;27,61;1,98;0;0;
25306;-20,41;-6,33;-20,41;-6,33;19,11;1,94;19,11;1,94;0;0;
25327;-29,64;-4,21;-29,64;-4,21;17,8;2;17,8;2;0;0;
25344;-17,39;-4,84;-17,39;-4,84;15,23;1,89;15,23;1,89;0;0;
25363;-110,49;-7,66;-110,49;-7,66;15,81;1,71;15,81;1,71;0;0;
25381;-19,63;-4,54;-19,63;-4,54;18,75;1,56;18,75;1,56;0;0;
25398;-3,05;-4,84;-3,05;-4,84;17,77;1,54;17,77;1,54;0;0;
25421;-9,48;-6,71;-9,48;-6,71;17,41;1,45;17,41;1,45;0;0;
25441;-37,07;-9,92;-37,07;-9,92;23,97;1,65;23,97;1,65;0;0;
25457;-15,5;-7,86;-15,5;-7,86;25,25;1,62;25,25;1,62;0;0;
25473;-6,75;-8,48;-6,75;-8,48;17,59;1,51;17,59;1,51;0;0;
25492;-19,69;-7,51;-19,69;-7,51;15,66;1,55;15,66;1,55;0;0;
25510;-19,69;-7,51;-19,69;-7,51;15,48;1,64;15,48;1,64;0;0;
25529;-28,75;-5,33;-28,75;-5,33;9,87;1,55;9,87;1,55;0;0;
25545;-12,52;-12,89;-12,52;-12,89;6,2;2,01;6,2;2,01;0;0;
25563;-37,04;9,71;-37,04;9,71;6,61;3,55;6,61;3,55;0;0;
25584;-20,6;5,15;-20,6;5,15;7,59;5,29;7,59;5,29;0;0;
25600;53,53;6,71;53,53;6,71;10,68;6,52;10,68;6,52;0;0;
25616;-9,95;-10,49;-9,95;-10,49;13,35;7,99;13,35;7,99;0;0;
25632;-25,28;-15,98;-25,28;-15,98;16,76;9,48;16,76;9,48;0;0;
25650;-25,28;-15,98;-25,28;-15,98;19,54;10,35;19,54;10,35;0;0;
25666;-16,31;7,38;-16,31;7,38;17,85;10,47;17,85;10,47;0;0;
25684;-18,32;-20,2;-18,32;-20,2;17,24;10,38;17,24;10,38;0;0;
25704;-12,41;-1,16;-12,41;-1,16;12,28;8,93;12,28;8,93;0;0;
25722;-18,3;-0,07;-18,3;-0,07;8,76;8,63;8,76;8,63;0;0;
25744;-14,27;2,37;-14,27;2,37;4,45;7,99;4,45;7,99;0;0;
25763;-10,13;-22,12;-10,13;-22,12;3,52;7,35;3,52;7,35;0;0;
25779;-11,83;8,16;-11,83;8,16;3,69;7,98;3,69;7,98;0;0;
25796;-16,45;-20,27;-16,45;-20,27;3,77;8,19;3,77;8,19;0;0;
25814;-25,93;-6,94;-25,93;-6,94;3,91;7,75;3,91;7,75;0;0;
25833;-10,56;-0,62;-10,56;-0,62;4,46;7,67;4,46;7,67;0;0;
25849;-10,56;-0,62;-10,56;-0,62;4,97;7,93;4,97;7,93;0;0;
25865;-16,9;-17,93;-16,9;-17,93;4,76;9,33;4,76;9,33;0;0;
25883;-22,59;14,01;-22,59;14,01;4,66;10,01;4,66;10,01;0;0;
25906;-20,85;6,61;-20,85;6,61;4,81;9,82;4,81;9,82;0;0;
25923;-17,76;-12,42;-17,76;-12,42;4,29;10,76;4,29;10,76;0;0;
25943;-13,98;-18,32;-13,98;-18,32;3,68;12,26;3,68;12,26;0;0;
25961;-10,48;4,51;-10,48;4,51;3,56;10,71;3,56;10,71;0;0;
25976;-13,77;-4,65;-13,77;-4,65;3,49;10,65;3,49;10,65;0;0;
25994;-9,35;0,84;-9,35;0,84;3,39;11;3,39;11;0;0;
26013;-18,26;14,86;-18,26;14,86;3,74;11,7;3,74;11,7;0;0;
26031;-23,67;-18,84;-23,67;-18,84;3,88;9,91;3,88;9,91;0;0;
26048;-23,67;-18,84;-23,67;-18,84;4,33;9,24;4,33;9,24;0;0;
26068;-13,99;-24,34;-13,99;-24,34;4,34;9,7;4,34;9,7;0;0;
26086;-21,58;-20,6;-21,58;-20,6;4,13;10,2;4,13;10,2;0;0;
26104;-0,82;17,24;-0,82;17,24;4,18;9,35;4,18;9,35;0;0;
26122;-16,46;-30,83;-16,46;-30,83;4,18;10,12;4,18;10,12;0;0;
26138;-27,15;-2,51;-27,15;-2,51;3,88;10,82;3,88;10,82;0;0;
26157;-8,28;4,69;-8,28;4,69;3,51;10,82;3,51;10,82;0;0;
26175;-18,1;-0,26;-18,1;-0,26;3,43;10,01;3,43;10,01;0;0;
26192;-18,04;-17,44;-18,04;-17,44;3,76;10,56;3,76;10,56;0;0;
26210;-18,04;-17,44;-18,04;-17,44;3,77;10,87;3,77;10,87;0;0;
26230;-15,42;-10,22;-15,42;-10,22;4,1;9,33;4,1;9,33;0;0;
26248;-16,34;-18,45;-16,34;-18,45;3,9;10,48;3,9;10,48;0;0;
26264;-5,24;-0,84;-5,24;-0,84;4,25;11,56;4,25;11,56;0;0;
26280;-11,88;-4,23;-11,88;-4,23;4,27;12,03;4,27;12,03;0;0;
26299;-13,38;-20,34;-13,38;-20,34;4,44;10,63;4,44;10,63;0;0;
26315;-11,5;1,05;-11,5;1,05;4,11;9,11;4,11;9,11;0;0;
26333;-17,35;-7,21;-17,35;-7,21;4,16;8,04;4,16;8,04;0;0;
26352;-17,07;-3,38;-17,07;-3,38;3,75;6,86;3,75;6,86;0;0;
26371;-11,5;-8,17;-11,5;-8,17;3,77;5,38;3,77;5,38;0;0;
26391;-13,68;-9,47;-13,68;-9,47;3,85;6,49;3,85;6,49;0;0;
26408;-13,68;-9,47;-13,68;-9,47;3,46;7,46;3,46;7,46;0;0;
26426;-12,19;-4,36;-12,19;-4,36;3,58;9,24;3,58;9,24;0;0;
26445;-20,27;-0,84;-20,27;-0,84;3,78;9,54;3,78;9,54;0;0;
26465;-22,29;-15,59;-22,29;-15,59;3,47;10,49;3,47;10,49;0;0;
26481;-15,45;-15,18;-15,45;-15,18;3,04;10,76;3,04;10,76;0;0;
26498;-6,6;-1,18;-6,6;-1,18;3,12;10,66;3,12;10,66;0;0;
26514;-24,33;-11,57;-24,33;-11,57;3,48;10,65;3,48;10,65;0;0;
26531;-12,97;-13,48;-12,97;-13,48;4,11;10,66;4,11;10,66;0;0;
26550;-8,72;-4,38;-8,72;-4,38;4,56;10,09;4,56;10,09;0;0;
26567;-8,72;-4,38;-8,72;-4,38;4,82;8,3;4,82;8,3;0;0;
26584;18,78;-12,85;18,78;-12,85;8,29;5,86;8,29;5,86;0;0;
26601;14,63;-4,86;14,63;-4,86;10,69;5,01;10,69;5,01;0;0;
26619;20,97;-8,53;20,97;-8,53;14,22;4,21;14,22;4,21;0;0;
26636;-9,65;-7,36;-9,65;-7,36;23,04;3,19;23,04;3,19;0;0;
26652;-60,88;-9,36;-60,88;-9,36;31,12;2,83;31,12;2,83;0;0;
26667;-60,88;-9,36;-60,88;-9,36;37,72;2,99;37,72;2,99;0;0;
26685;18,51;-10,74;18,51;-10,74;45,75;2,3;45,75;2,3;0;0;
26709;33,51;-4,67;33,51;-4,67;46,19;2,56;46,19;2,56;0;0;
26726;-40,46;-7,04;-40,46;-7,04;48,26;2,45;48,26;2,45;0;0;
26748;-84,28;-4,01;-84,28;-4,01;47,48;2,52;47,48;2,52;0;0;
26766;-38,85;-4,9;-38,85;-4,9;51,65;2,47;51,65;2,47;0;0;
26785;21,93;-3,18;21,93;-3,18;44,46;2,49;44,46;2,49;0;0;
26802;99,36;-9,85;99,36;-9,85;50,03;2,39;50,03;2,39;1;0;
26818;-100,36;-2,81;-100,36;-2,81;53,69;2,64;53,69;2,64;1;0;
26835;21,71;-3,5;21,71;-3,5;56,98;2,47;56,98;2,47;1;0;
26856;16,96;-1,15;16,96;-1,15;47,61;2,19;47,61;2,19;1;0;
26874;-77,53;-9,61;-77,53;-9,61;44,6;2,11;44,6;2,11;1;0;
26894;-60,63;-7,92;-60,63;-7,92;41,45;2,19;41,45;2,19;1;0;
26912;14,01;-3,56;14,01;-3,56;38,79;1,97;38,79;1,97;1;0;
26931;28,83;-6,69;28,83;-6,69;38,4;1,94;38,4;1,94;1;0;
26946;28,83;-6,69;28,83;-6,69;40,95;2;40,95;2;1;0;
26963;-24,44;-1,83;-24,44;-1,83;39,85;1,96;39,85;1,96;1;0;
26981;2,65;-7,78;2,65;-7,78;42,52;2,09;42,52;2,09;1;0;
26997;46,24;-8,73;46,24;-8,73;39,8;2,02;39,8;2,02;1;0;
27019;-58,8;-5,12;-58,8;-5,12;40,52;2,11;40,52;2,11;1;0;
27035;-74,28;-9,13;-74,28;-9,13;38,45;2,08;38,45;2,08;1;0;
27052;17,38;-10,34;17,38;-10,34;44,83;2,42;44,83;2,42;1;0;
27070;17,38;-10,34;17,38;-10,34;52,52;2,53;52,52;2,53;1;0;
27087;-9,43;-7,97;-9,43;-7,97;49,32;2,39;49,32;2,39;1;0;
27106;-23,77;-7,68;-23,77;-7,68;43,66;2,58;43,66;2,58;1;0;
27122;-20,57;-5,68;-20,57;-5,68;37,24;2,37;37,24;2,37;1;0;
27140;-17,68;-1,93;-17,68;-1,93;26,84;2,16;26,84;2,16;1;0;
27158;-18,49;-6,78;-18,49;-6,78;14,07;1,99;14,07;1,99;0;0;
27179;-9,78;-7,14;-9,78;-7,14;6,17;1,77;6,17;1,77;0;0;
27195;-39,65;-5,08;-39,65;-5,08;8,75;1,95;8,75;1,95;0;0;
27215;-44,81;-9,83;-44,81;-9,83;11,99;2,11;11,99;2,11;0;0;
27234;-26,02;-6,3;-26,02;-6,3;21,45;2,22;21,45;2,22;0;0;
27252;65,7;-6,16;65,7;-6,16;25,32;2,28;25,32;2,28;0;0;
27268;65,7;-6,16;65,7;-6,16;29,13;2,37;29,13;2,37;0;0;
27286;-41,08;-10,2;-41,08;-10,2;34,72;2,54;34,72;2,54;0;0;
27304;-12,78;-1,65;-12,78;-1,65;33,02;2,75;33,02;2,75;0;0;
27322;12,33;-13,75;12,33;-13,75;34,27;2,91;34,27;2,91;0;0;
27344;-37,47;-5,07;-37,47;-5,07;28,05;2,99;28,05;2,99;0;0;
27363;4,13;-5,34;4,13;-5,34;25,71;2,78;25,71;2,78;0;0;
27382;61,03;-3,64;61,03;-3,64;28,36;2,6;28,36;2,6;0;0;
27401;-25,37;-10,59;-25,37;-10,59;31,41;2,51;31,41;2,51;0;0;
27418;-0,65;-5,73;-0,65;-5,73;35,56;2,2;35,56;2,2;0;0;
27436;-61,96;-9,23;-61,96;-9,23;35,2;1,8;35,2;1,8;0;0;
27452;9,98;-2,65;9,98;-2,65;42,17;2,07;42,17;2,07;0;0;
27467;9,98;-2,65;9,98;-2,65;47,82;2,36;47,82;2,36;0;0;
27484;30,1;-3,01;30,1;-3,01;43,69;2,37;43,69;2,37;1;0;
27504;94,39;-5,69;94,39;-5,69;61,54;2,41;61,54;2,41;1;0;
27522;16,3;-12,69;16,3;-12,69;63,8;2,9;63,8;2,9;1;0;
27541;8,62;-5,7;8,62;-5,7;59,17;2,77;59,17;2,77;1;0;
27560;-86,22;-9,13;-86,22;-9,13;61,28;2,86;61,28;2,86;1;0;
27577;-50,21;-6,87;-50,21;-6,87;62,72;3,1;62,72;3,1;1;0;
27593;-73;-2,84;-73;-2,84;60,11;3,35;60,11;3,35;1;0;
27611;-104,56;-13,1;-104,56;-13,1;48,41;3,45;48,41;3,45;1;0;
27627;-104,56;-13,1;-104,56;-13,1;51,74;3,4;51,74;3,4;1;0;
27644;-36,66;-6,7;-36,66;-6,7;49,82;3;49,82;3;1;0;
27665;57,7;-8,74;57,7;-8,74;46,1;2,78;46,1;2,78;1;0;
27681;-7,31;-5,49;-7,31;-5,49;41,19;2,49;41,19;2,49;1;0;
27699;34,03;-6,68;34,03;-6,68;39,99;2,28;39,99;2,28;1;0;
27716;6,93;-6,35;6,93;-6,35;35,48;2,12;35,48;2,12;1;0;
27732;-9,19;-7,64;-9,19;-7,64;30,62;1,81;30,62;1,81;1;0;
27748;-9,19;-7,64;-9,19;-7,64;30,44;1,72;30,44;1,72;1;0;
27765;-17,27;-6,91;-17,27;-6,91;30,79;1,64;30,79;1,64;1;0;
27782;31,59;-5,73;31,59;-5,73;30,03;1,52;30,03;1,52;1;0;
27799;-20,6;-4,22;-20,6;-4,22;29,23;1,71;29,23;1,71;1;0;
27819;-23,72;-3,76;-23,72;-3,76;31,8;1,87;31,8;1,87;1;0;
27836;1,06;-8,65;1,06;-8,65;40,94;2,05;40,94;2,05;0;0;
27854;1,46;-6,38;1,46;-6,38;41,27;2,02;41,27;2,02;0;0;
27872;-62,99;-12,28;-62,99;-12,28;42,05;2,41;42,05;2,41;0;0;
27892;6,19;-3,69;6,19;-3,69;47,17;2,68;47,17;2,68;0;0;
27913;4,13;-7,85;4,13;-7,85;47,25;2,68;47,25;2,68;0;0;
27929;4,13;-7,85;4,13;-7,85;47,49;2,51;47,49;2,51;0;0;
27945;-120,8;-9,74;-120,8;-9,74;50,57;2,74;50,57;2,74;0;0;
27964;37,12;-9,12;37,12;-9,12;50,15;2,61;50,15;2,61;0;0;
27987;-110,12;-8,57;-110,12;-8,57;55,59;2,36;55,59;2,36;0;0;
28006;-58,55;-5,11;-58,55;-5,11;56,99;2,1;56,99;2,1;0;0;
28026;-43,22;-10,36;-43,22;-10,36;54,48;2,2;54,48;2,2;0;0;
28044;20,59;-4,89;20,59;-4,89;49,85;2,53;49,85;2,53;0;0;
28060;-108,18;-8,6;-108,18;-8,6;43,61;2,5;43,61;2,5;0;0;
28079;-21,57;-9,26;-21,57;-9,26;45,16;2,49;45,16;2,49;0;0;
28096;-21,57;-9,26;-21,57;-9,26;32,64;2,36;32,64;2,36;0;0;
28116;-65,38;-8,89;-65,38;-8,89;33,61;2,45;33,61;2,45;0;0;
28137;-58,13;-4,05;-58,13;-4,05;39,73;1,96;39,73;1,96;0;0;
28154;-29,76;-10,54;-29,76;-10,54;41,21;1,99;41,21;1,99;0;0;
28172;-35,49;-7,81;-35,49;-7,81;40,59;2,07;40,59;2,07;0;0;
28190;-35,49;-7,81;-35,49;-7,81;42,65;2,31;42,65;2,31;0;0;
28208;-5,16;-9,26;-5,16;-9,26;52,13;2,19;52,13;2,19;0;0;
28225;16,41;-3,13;16,41;-3,13;50,73;2,1;50,73;2,1;0;0;
28241;-63,26;-7,22;-63,26;-7,22;54,21;2,32;54,21;2,32;0;0;
28257;-0,92;-7,17;-0,92;-7,17;51,64;2,1;51,64;2,1;0;0;
28274;122,62;-13,91;122,62;-13,91;62,68;2,13;62,68;2,13;0;0;
28301;-85,78;-1,91;-85,78;-1,91;57,15;2,14;57,15;2,14;0;0;
28318;-1,03;-8,89;-1,03;-8,89;52,92;2,28;52,92;2,28;0;0;
28333;-41,83;-5,76;-41,83;-5,76;50,26;2,32;50,26;2,32;0;0;
28350;-41,83;-5,76;-41,83;-5,76;49,44;2,19;49,44;2,19;0;0;
28365;-0,02;-8,3;-0,02;-8,3;46;2,28;46;2,28;0;0;
28383;-101,5;-9,13;-101,5;-9,13;42,59;2,25;42,59;2,25;0;0;
28399;-43,94;-2,21;-43,94;-2,21;43,09;2,01;43,09;2,01;0;0;
28417;-8,21;-8,1;-8,21;-8,1;43,09;1,98;43,09;1,98;0;0;
28438;-58,98;-13,09;-58,98;-13,09;47,63;2,53;47,63;2,53;0;0;
28458;-0,53;-8,7;-0,53;-8,7;41,75;2,85;41,75;2,85;0;0;
28475;-36,06;-7,01;-36,06;-7,01;43,71;3,2;43,71;3,2;0;0;
28492;1,44;-1,67;1,44;-1,67;44;3,18;44;3,18;0;0;
28508;1,44;-1,67;1,44;-1,67;48,25;3,3;48,25;3,3;0;0;
28525;7,3;-7,71;7,3;-7,71;46,35;3,46;46,35;3,46;0;0;
28544;-84,27;-6,57;-84,27;-6,57;45,41;2,66;45,41;2,66;0;0;
28561;42,47;-6,06;42,47;-6,06;44,72;2,98;44,72;2,98;0;0;
28580;-11,53;-6,96;-11,53;-6,96;37,49;2,67;37,49;2,67;0;0;
28598;1,97;-5,95;1,97;-5,95;29,74;2,56;29,74;2,56;0;0;
28619;97,25;-10,33;97,25;-10,33;30,41;2,79;30,41;2,79;0;0;
28638;-20,19;-6,49;-20,19;-6,49;35,65;2,7;35,65;2,7;0;0;
28656;-85,55;-8,02;-85,55;-8,02;37,43;2,33;37,43;2,33;0;0;
28673;59,88;-6,11;59,88;-6,11;44,74;2,13;44,74;2,13;0;0;
28690;59,88;-6,11;59,88;-6,11;55,67;1,98;55,67;1,98;0;0;
28709;9,04;-7,64;9,04;-7,64;52,84;1,83;52,84;1,83;0;0;
28725;-30,91;-4,81;-30,91;-4,81;46,09;1,68;46,09;1,68;1;0;
28742;-26,12;-6,32;-26,12;-6,32;39,3;1,73;39,3;1,73;1;0;
28758;-26,12;-6,32;-26,12;-6,32;32,8;1,8;32,8;1,8;1;0;
28779;6,93;-10,79;6,93;-10,79;30,34;1,92;30,34;1,92;1;0;
28795;20,97;-7,11;20,97;-7,11;29,27;1,99;29,27;1,99;1;0;
28812;-20,69;-5,7;-20,69;-5,7;34,35;1,79;34,35;1,79;1;0;
28829;-20,69;-5,7;-20,69;-5,7;38,99;1,66;38,99;1,66;1;0;
28847;90,92;-5,81;90,92;-5,81;43,46;1,67;43,46;1,67;1;0;
28865;-15,19;0,69;-15,19;0,69;40,48;1,81;40,48;1,81;1;0;
28882;24,62;-5,1;24,62;-5,1;34,47;1,97;34,47;1,97;1;0;
28899;-61,2;-9,88;-61,2;-9,88;34,34;1,94;34,34;1,94;1;0;
28918;20,52;-4,75;20,52;-4,75;28,65;2,13;28,65;2,13;1;0;
28938;-29,37;-10,52;-29,37;-10,52;27,8;2,5;27,8;2,5;1;0;
28955;-9,75;-3,37;-9,75;-3,37;21,87;2,59;21,87;2,59;1;0;
28972;-27,2;-5,69;-27,2;-5,69;22,73;2,08;22,73;2,08;1;0;
28988;-27,2;-5,69;-27,2;-5,69;18,42;1,88;18,42;1,88;1;0;
29004;-13,79;-4,38;-13,79;-4,38;19,78;1,95;19,78;1,95;1;0;
29022;4,06;-6,85;4,06;-6,85;19,35;2,13;19,35;2,13;1;0;
29042;81;-5,83;81;-5,83;21,31;1,76;21,31;1,76;1;0;
29058;15,04;-3,77;15,04;-3,77;29,17;2,02;29,17;2,02;1;0;
29078;14,4;-9,37;14,4;-9,37;28,93;2,26;28,93;2,26;0;0;
29101;14,56;0,18;14,56;0,18;33,56;2,69;33,56;2,69;0;0;
29117;-26,28;-6,62;-26,28;-6,62;33,56;2,66;33,56;2,66;0;0;
29134;-26,28;-6,62;-26,28;-6,62;32,17;2,47;32,17;2,47;0;0;
29155;-65,55;-3,81;-65,55;-3,81;30,82;2,46;30,82;2,46;0;0;
29173;-129,36;-9,49;-129,36;-9,49;39,02;3,02;39,02;3,02;0;0;
29190;-129,36;-9,49;-129,36;-9,49;45,89;3,54;45,89;3,54;0;0;
29205;-17,37;-5,89;-17,37;-5,89;40,76;3,25;40,76;3,25;0;0;
29224;-7,18;-3,63;-7,18;-3,63;38,42;3,13;38,42;3,13;0;0;
29242;-21,06;-8,21;-21,06;-8,21;36,51;3,19;36,51;3,19;0;0;
29264;-152,84;-11,46;-152,84;-11,46;33,44;2,92;33,44;2,92;0;0;
29282;-11,84;-4,36;-11,84;-4,36;28,29;2,54;28,29;2,54;0;0;
29298;-9,28;-4,14;-9,28;-4,14;20,08;1,98;20,08;1,98;0;0;
29314;-13,76;-7,61;-13,76;-7,61;20,16;2,02;20,16;2,02;0;0;
29330;-20,98;-8,81;-20,98;-8,81;20,04;2,09;20,04;2,09;0;0;
29347;-20,98;-8,81;-20,98;-8,81;17,74;2,12;17,74;2,12;0;0;
29364;-185,72;-7,88;-185,72;-7,88;18,3;2,08;18,3;2,08;0;0;
29383;-20,69;-3,88;-20,69;-3,88;17,46;2,11;17,46;2,11;0;0;
29400;-25;-10,09;-25;-10,09;17,15;2,25;17,15;2,25;0;0;
29422;-17,14;-9,04;-17,14;-9,04;16,79;2,16;16,79;2,16;0;0;
29439;-16,37;-5,47;-16,37;-5,47;16,59;2,22;16,59;2,22;0;0;
29459;-41,91;-13,62;-41,91;-13,62;24,78;2,49;24,78;2,49;0;0;
29474;-34,04;-2,52;-34,04;-2,52;22,21;2,86;22,21;2,86;0;0;
29493;-12,29;-7,42;-12,29;-7,42;22,84;2,98;22,84;2,98;0;0;
29507;-12,29;-7,42;-12,29;-7,42;24,44;3,45;24,44;3,45;0;0;
29524;24;-7,89;24;-7,89;28,84;3,76;28,84;3,76;0;0;
29541;-55,54;-4,79;-55,54;-4,79;29,19;3,47;29,19;3,47;0;0;
29558;-5,03;-10,11;-5,03;-10,11;22,34;2,73;22,34;2,73;0;0;
29580;-2,63;-4,15;-2,63;-4,15;21,49;2,44;21,49;2,44;0;0;
29597;-118,31;-8,22;-118,31;-8,22;25,28;2,05;25,28;2,05;0;0;
29615;-45,53;-11,61;-45,53;-11,61;26,92;2,08;26,92;2,08;0;0;
29634;16,59;-6,24;16,59;-6,24;26,97;1,72;26,97;1,72;0;0;
29652;-104,51;-6,85;-104,51;-6,85;28,1;1,83;28,1;1,83;0;0;
29669;-104,51;-6,85;-104,51;-6,85;29,63;1,81;29,63;1,81;0;0;
29687;-30,01;-4,46;-30,01;-4,46;29,97;1,79;29,97;1,79;0;0;
29704;-20,07;-6,93;-20,07;-6,93;25,08;1,71;25,08;1,71;0;0;
29721;53,22;-3,59;53,22;-3,59;27,6;1,83;27,6;1,83;0;0;
29741;-20,5;-4,97;-20,5;-4,97;25,92;1,75;25,92;1,75;0;0;
29759;-11,48;-2,27;-11,48;-2,27;21,34;1,87;21,34;1,87;0;0;
29776;-16,81;-20,1;-16,81;-20,1;14,28;3,64;14,28;3,64;0;0;
29792;-12,54;-20,15;-12,54;-20,15;12,84;7;12,84;7;0;0;
29812;-22,14;-2,81;-22,14;-2,81;12,02;9,91;12,02;9,91;0;0;
29831;-6,94;51,88;-6,94;51,88;4,93;15,39;4,93;15,39;0;0;
29848;-6,94;51,88;-6,94;51,88;4,64;20,9;4,64;20,9;0;0;
29867;-26,61;-2,79;-26,61;-2,79;4,69;21,67;4,69;21,67;0;0;
29884;-18,11;8,42;-18,11;8,42;5,17;19,78;5,17;19,78;0;0;
29905;-1,97;-52,6;-1,97;-52,6;5,8;24,76;5,8;24,76;0;0;
29922;-7,83;-2,25;-7,83;-2,25;6,11;26,53;6,11;26,53;0;0;
29940;-20,26;0,66;-20,26;0,66;6,35;21,54;6,35;21,54;0;0;
29957;-16,01;-4,96;-16,01;-4,96;5,91;17,99;5,91;17,99;0;0;
29975;-16,95;-10,52;-16,95;-10,52;5,27;16,61;5,27;16,61;0;0;
29991;-11,31;-12,67;-11,31;-12,67;4,9;13,1;4,9;13,1;0;0;
30006;-11,31;-12,67;-11,31;-12,67;3,86;6,39;3,86;6,39;0;0;
30024;-19,89;-10,16;-19,89;-10,16;3,3;6,66;3,3;6,66;0;0;
30041;-9,69;-10,94;-9,69;-10,94;2,9;8,15;2,9;8,15;0;0;
30062;-17,94;-5,08;-17,94;-5,08;3,31;8,31;3,31;8,31;0;0;
30084;-17,78;-9,85;-17,78;-9,85;3,29;7,65;3,29;7,65;0;0;
30102;-17,1;-7,41;-17,1;-7,41;3,29;6,59;3,29;6,59;0;0;
30118;-23,43;-14,27;-23,43;-14,27;3,24;5,96;3,24;5,96;0;0;
30136;-12,74;-4,41;-12,74;-4,41;3,15;5,79;3,15;5,79;0;0;
30152;-16,36;-6,44;-16,36;-6,44;2,93;4,98;2,93;4,98;0;0;
30171;-23,95;-11,28;-23,95;-11,28;3,14;5,13;3,14;5,13;0;0;
30188;-23,95;-11,28;-23,95;-11,28;3,43;5,31;3,43;5,31;0;0;
30203;-14,64;5,8;-14,64;5,8;3,35;5,06;3,35;5,06;0;0;
30226;-15,31;3,3;-15,31;3,3;3,42;6,78;3,42;6,78;0;0;
30243;-22,19;-6,54;-22,19;-6,54;3,43;6,55;3,43;6,55;0;0;
30259;-17,56;-11,28;-17,56;-11,28;3,65;6,59;3,65;6,59;0;0;
30275;-13,54;-3,92;-13,54;-3,92;3,23;6,75;3,23;6,75;0;0;
30293;-13,6;-1,62;-13,6;-1,62;3;7,48;3;7,48;0;0;
30308;-13,6;-1,62;-13,6;-1,62;2,79;7,4;2,79;7,4;0;0;
30324;-14,84;-48,9;-14,84;-48,9;3,16;11,36;3,16;11,36;0;0;
30340;-17,77;-0,45;-17,77;-0,45;3,01;12,33;3,01;12,33;0;0;
30359;-16,61;-7,17;-16,61;-7,17;2,81;14,45;2,81;14,45;0;0;
30381;-6,51;22,55;-6,51;22,55;4,06;19,45;4,06;19,45;0;0;
30398;-22,99;5,16;-22,99;5,16;4,49;20,99;4,49;20,99;0;0;
30417;-17,08;-3,57;-17,08;-3,57;4,34;22,82;4,34;22,82;0;0;
30433;-11,95;-9,64;-11,95;-9,64;4,6;23,25;4,6;23,25;0;0;
30449;-11,95;-9,64;-11,95;-9,64;5,32;25,71;5,32;25,71;0;0;
30465;-19,84;-34,25;-19,84;-34,25;5,72;24,19;5,72;24,19;0;0;
30483;-11,16;-29,04;-11,16;-29,04;5,03;22,71;5,03;22,71;0;0;
30500;-28,85;5,17;-28,85;5,17;5,72;25,44;5,72;25,44;0;0;
30518;-16,05;-0,52;-16,05;-0,52;6,22;18,55;6,22;18,55;0;0;
30538;-15,07;-67,09;-15,07;-67,09;6,55;17,13;6,55;17,13;0;0;
30554;-9,73;-69,82;-9,73;-69,82;6,25;21,72;6,25;21,72;0;0;
30572;-10,44;-5,18;-10,44;-5,18;7,1;23,34;7,1;23,34;0;0;
30588;-10,44;-5,18;-10,44;-5,18;7,81;23,08;7,81;23,08;0;0;
30604;-13,34;5,43;-13,34;5,43;6,99;20,87;6,99;20,87;0;1;
30619;-11,12;-1,62;-11,12;-1,62;7,16;21,01;7,16;21,01;0;1;
30638;-14,57;12,65;-14,57;12,65;7,29;18,95;7,29;18,95;0;1;
30655;-11,42;38,67;-11,42;38,67;7,1;18,05;7,1;18,05;0;1;
30671;-25,76;-35,36;-25,76;-35,36;6,03;17,72;6,03;17,72;0;1;
30691;-23,23;-56,04;-23,23;-56,04;5,28;17,44;5,28;17,44;0;1;
30705;-23,23;-56,04;-23,23;-56,04;5,18;18,37;5,18;18,37;0;1;
30722;-25,98;9,49;-25,98;9,49;4,83;21,14;4,83;21,14;0;1;
30739;-11,44;-2,56;-11,44;-2,56;6,01;20,5;6,01;20,5;0;1;
30756;-11,44;-2,56;-11,44;-2,56;6,79;19,71;6,79;19,71;0;1;
30775;14,62;10,1;14,62;10,1;8,07;18,22;8,07;18,22;0;1;
30790;-17,21;0,97;-17,21;0,97;9,44;18,97;9,44;18,97;0;1;
30808;-17,21;0,97;-17,21;0,97;10,87;18,13;10,87;18,13;0;1;
30826;-5,93;29,15;-5,93;29,15;10;16,29;10;16,29;0;1;
30847;-3,35;6,95;-3,35;6,95;10,23;15,54;10,23;15,54;0;1;
30864;-18,66;-17,09;-18,66;-17,09;9,58;14,84;9,58;14,84;0;1;
30880;-20,89;-1,43;-20,89;-1,43;7,74;14,31;7,74;14,31;0;1;
30898;-23,28;0,77;-23,28;0,77;6,36;12,68;6,36;12,68;0;1;
30916;-18,4;-46,82;-18,4;-46,82;6,02;13,62;6,02;13,62;0;1;
30934;-19,22;12,92;-19,22;12,92;5,76;11,86;5,76;11,86;0;0;
30951;-7,42;-2,04;-7,42;-2,04;5,44;12,57;5,44;12,57;0;0;
30968;-7,42;-2,04;-7,42;-2,04;5,62;13,57;5,62;13,57;0;0;
30985;-13,61;-17;-13,61;-17;5,61;14,74;5,61;14,74;0;0;
31006;-8,1;-22,01;-8,1;-22,01;5,66;16,57;5,66;16,57;0;0;
31023;-7,85;-1,71;-7,85;-1,71;5,19;15,98;5,19;15,98;0;0;
31043;-5,64;1,46;-5,64;1,46;5,46;14,23;5,46;14,23;0;0;
31060;-12,76;-5,66;-12,76;-5,66;5,67;12,1;5,67;12,1;0;0;
31082;-10,99;4,49;-10,99;4,49;5,78;11,57;5,78;11,57;0;0;
31098;-33,88;-32,78;-33,88;-32,78;5,81;12,52;5,81;12,52;0;0;
31116;-17,37;-7,51;-17,37;-7,51;6,05;10,97;6,05;10,97;0;0;
31132;-6,33;-0,93;-6,33;-0,93;6;10,44;6;10,44;0;0;
31151;-19,82;-2,36;-19,82;-2,36;5,93;10,95;5,93;10,95;0;0;
31174;-7,16;-2,42;-7,16;-2,42;5,39;10,69;5,39;10,69;0;0;
31194;-16,06;29,09;-16,06;29,09;5,34;11,51;5,34;11,51;0;0;
31213;-20,7;-6,87;-20,7;-6,87;4,61;9,65;4,61;9,65;0;0;
31232;-16,07;-50,64;-16,07;-50,64;4,72;9,54;4,72;9,54;0;0;
31248;-16,07;-50,64;-16,07;-50,64;5,04;10,03;5,04;10,03;0;0;
31264;-16,15;-5,85;-16,15;-5,85;4,98;8,92;4,98;8,92;0;0;
31281;-23,64;-42,84;-23,64;-42,84;4,86;9,28;4,86;9,28;0;0;
31298;-16,31;12,12;-16,31;12,12;4,7;12,33;4,7;12,33;0;0;
31315;-10,33;-2,08;-10,33;-2,08;4,68;13,53;4,68;13,53;0;0;
31340;-11,88;1,05;-11,88;1,05;4,48;13,01;4,48;13,01;0;0;
31359;-16,8;-0,57;-16,8;-0,57;4,34;13,19;4,34;13,19;0;0;
31377;-16,67;14,27;-16,67;14,27;3,99;16,25;3,99;16,25;0;0;
31394;1,87;-0,87;1,87;-0,87;4,53;13,65;4,53;13,65;0;0;
31412;-20,95;-13,79;-20,95;-13,79;5,2;13,08;5,2;13,08;0;0;
31430;-8,97;-11,36;-8,97;-11,36;5,24;14,01;5,24;14,01;0;0;
31447;-8,97;-11,36;-8,97;-11,36;5,21;15,01;5,21;15,01;0;0;
31465;-14,01;-14,75;-14,01;-14,75;5,33;19,19;5,33;19,19;0;0;
31489;-24,08;-27,41;-24,08;-27,41;5,43;17,69;5,43;17,69;0;0;
31506;-18,41;15,74;-18,41;15,74;4,82;18,54;4,82;18,54;0;0;
31522;-14,05;-41,88;-14,05;-41,88;4,4;17,74;4,4;17,74;0;0;
31538;-20,05;13,68;-20,05;13,68;4,9;17,89;4,9;17,89;0;0;
31555;-14,18;-34,47;-14,18;-34,47;4,71;17,05;4,71;17,05;0;0;
31573;-8,98;0,37;-8,98;0,37;4,81;16,69;4,81;16,69;0;0;
31591;-11,37;14,71;-11,37;14,71;4,83;17,53;4,83;17,53;0;0;
31606;-11,37;14,71;-11,37;14,71;5,03;17,43;5,03;17,43;0;0;
31623;-18,52;-10,56;-18,52;-10,56;4,64;16,88;4,64;16,88;0;0;
31643;-26,67;-20,7;-26,67;-20,7;4,25;16,37;4,25;16,37;0;0;
31660;-17,32;8,73;-17,32;8,73;4,13;17,21;4,13;17,21;0;0;
31677;-27,35;38,04;-27,35;38,04;4,98;19,12;4,98;19,12;0;0;
31695;-15,01;-10,55;-15,01;-10,55;5,22;17,67;5,22;17,67;0;0;
31711;-50,29;-0,6;-50,29;-0,6;5,67;15,56;5,67;15,56;0;0;
31729;-50,29;-0,6;-50,29;-0,6;6,55;14,59;6,55;14,59;0;0;
31745;-20,79;-8,04;-20,79;-8,04;8,87;12,58;8,87;12,58;0;0;
31761;-26,14;-25,14;-26,14;-25,14;9,76;10,29;9,76;10,29;0;0;
31778;-19,25;-3,35;-19,25;-3,35;8,85;6,24;8,85;6,24;0;0;
31799;-21,12;12,39;-21,12;12,39;9,02;8,74;9,02;8,74;0;0;
31815;-18,11;-9,44;-18,11;-9,44;8,65;9,95;8,65;9,95;0;0;
31832;-13,94;-21,67;-13,94;-21,67;6,48;10,93;6,48;10,93;0;0;
31848;-13,94;-21,67;-13,94;-21,67;5,03;11,76;5,03;11,76;0;0;
31864;-11,94;-7,22;-11,94;-7,22;4,41;10,55;4,41;10,55;0;0;
31881;-8,3;-5,95;-8,3;-5,95;7,16;9,66;7,16;9,66;0;0;
31899;63,16;-7,84;63,16;-7,84;11,12;6,27;11,12;6,27;0;0;
31916;63,16;-7,84;63,16;-7,84;14,54;5,64;14,54;5,64;0;0;
31933;-160,21;-11,07;-160,21;-11,07;26,55;4,64;26,55;4,64;0;0;
31954;-41,58;-5,86;-41,58;-5,86;34,74;3,42;34,74;3,42;0;0;
31973;-12,58;-7,74;-12,58;-7,74;39,64;3,02;39,64;3,02;0;0;
31992;-19,7;-6,13;-19,7;-6,13;36,19;2,67;36,19;2,67;0;0;
32007;-19,7;-6,13;-19,7;-6,13;32,57;2,23;32,57;2,23;0;0;
32023;-27,17;-5,44;-27,17;-5,44;24,96;2,04;24,96;2,04;0;0;
32040;14,73;-13,05;14,73;-13,05;18,44;2,29;18,44;2,29;0;0;
32057;-76,8;-9,75;-76,8;-9,75;15,9;2,78;15,9;2,78;0;0;
32075;-9,18;-7,47;-9,18;-7,47;17,17;2,99;17,17;2,99;0;0;
32095;-28,14;-11,1;-28,14;-11,1;20,48;3,01;20,48;3,01;0;0;
32115;-49,91;-9,72;-49,91;-9,72;22,99;3,14;22,99;3,14;0;0;
32131;1,69;-4,43;1,69;-4,43;27,66;2,95;27,66;2,95;0;0;
32151;41,51;-11,77;41,51;-11,77;28,42;2,45;28,42;2,45;0;0;
32170;93,7;-7,73;93,7;-7,73;26,89;2,06;26,89;2,06;0;0;
32186;93,7;-7,73;93,7;-7,73;26,13;2,04;26,13;2,04;0;0;
32202;-7,59;-7,78;-7,59;-7,78;39,01;2,23;39,01;2,23;0;0;
32219;105,98;-10,09;105,98;-10,09;52,37;2,14;52,37;2,14;0;0;
32235;-61,1;-8,54;-61,1;-8,54;64,16;2,4;64,16;2,4;0;0;
32255;-145,88;-13,77;-145,88;-13,77;73;2,57;73;2,57;0;0;
32275;-42,07;-3,72;-42,07;-3,72;86,17;2,75;86,17;2,75;0;0;
32292;2,74;-8,75;2,74;-8,75;88,06;2,63;88,06;2,63;0;0;
32307;2,74;-8,75;2,74;-8,75;86,73;2,49;86,73;2,49;0;0;
32323;20,57;-8,58;20,57;-8,58;77,93;2,62;77,93;2,62;0;0;
32339;104,74;-4,21;104,74;-4,21;75,66;2,62;75,66;2,62;0;0;
32358;-78,65;-3,8;-78,65;-3,8;74,97;2,22;74,97;2,22;0;0;
32374;76,33;-8,77;76,33;-8,77;72,88;2,5;72,88;2,5;0;0;
32392;-136,17;-5,66;-136,17;-5,66;76,32;2,59;76,32;2,59;0;0;
32409;-136,17;-5,66;-136,17;-5,66;79,35;2,63;79,35;2,63;0;0;
32429;215,3;-6,24;215,3;-6,24;88,48;3,1;88,48;3,1;0;0;
32444;56,33;-11;56,33;-11;82,9;3,39;82,9;3,39;0;0;
32462;64,35;-10;64,35;-10;79,25;3,34;79,25;3,34;0;0;
32478;-32,08;-4,01;-32,08;-4,01;80,68;3,37;80,68;3,37;1;0;
32497;-4,58;-5,35;-4,58;-5,35;77,52;3,67;77,52;3,67;1;0;
32515;30,7;-5,99;30,7;-5,99;75,49;3,03;75,49;3,03;1;0;
32532;17,84;-8,1;17,84;-8,1;71,33;2,85;71,33;2,85;1;0;
32548;17,84;-8,1;17,84;-8,1;79,49;2,76;79,49;2,76;1;0;
32565;-7,7;0,48;-7,7;0,48;69,77;2,96;69,77;2,96;1;0;
32584;30,01;-0,64;30,01;-0,64;57,17;2,6;57,17;2,6;1;0;
32601;-77,98;-10,53;-77,98;-10,53;67,1;2,94;67,1;2,94;1;0;
32618;-62,97;-14,94;-62,97;-14,94;66,89;3,41;66,89;3,41;1;0;
32633;-74,93;-3,02;-74,93;-3,02;58,26;3,7;58,26;3,7;1;0;
32650;67,1;1,83;67,1;1,83;62,82;3,83;62,82;3,83;1;0;
32666;67,1;1,83;67,1;1,83;74,22;4;74,22;4;1;0;
32682;-6,86;-9,6;-6,86;-9,6;68,75;3,55;68,75;3,55;1;0;
32698;-14,27;-7,38;-14,27;-7,38;71,14;3,91;71,14;3,91;1;0;
32714;-127,41;-6,94;-127,41;-6,94;67,57;3,27;67,57;3,27;1;0;
32730;-66,74;-2,64;-66,74;-2,64;66,47;3,02;66,47;3,02;1;0;
32751;-37,19;-5,22;-37,19;-5,22;67,36;2,52;67,36;2,52;1;0;
32768;-37,19;-5,22;-37,19;-5,22;70,88;2,16;70,88;2,16;1;0;
32786;-64,05;-7,09;-64,05;-7,09;71,97;1,99;71,97;1,99;1;0;
32802;-100,41;-6,52;-100,41;-6,52;69,95;1,75;69,95;1,75;1;0;
32820;1,83;-10,13;1,83;-10,13;66,2;1,75;66,2;1,75;0;0;
32837;100,96;-11,94;100,96;-11,94;58,85;1,83;58,85;1,83;0;0;
32859;-26,62;-5,09;-26,62;-5,09;50,88;2,14;50,88;2,14;0;0;
32876;10,03;-2,64;10,03;-2,64;42;2,3;42;2,3;0;0;
32895;-63,9;-8,39;-63,9;-8,39;41,33;2,5;41,33;2,5;0;0;
32918;79,64;-7,04;79,64;-7,04;41,89;2,42;41,89;2,42;0;0;
32937;69,68;-4,45;69,68;-4,45;41,25;2,26;41,25;2,26;0;0;
32953;3,07;-7,6;3,07;-7,6;39;2,08;39;2,08;0;0;
32971;-95,68;-4,37;-95,68;-4,37;40,63;2,05;40,63;2,05;0;0;
32986;-95,68;-4,37;-95,68;-4,37;42,7;1,94;42,7;1,94;0;0;
33003;-32,43;-2,27;-32,43;-2,27;39,61;1,88;39,61;1,88;0;0;
33020;-5,18;-2,52;-5,18;-2,52;37,41;2,05;37,41;2,05;0;0;
33036;-25,28;-9,77;-25,28;-9,77;29,31;2,07;29,31;2,07;0;0;
33053;-34,98;-9,13;-34,98;-9,13;24,91;2,3;24,91;2,3;0;0;
33074;6,83;-8,63;6,83;-8,63;27,43;2,28;27,43;2,28;0;0;
33092;-21,99;-5,22;-21,99;-5,22;24,6;2,26;24,6;2,26;0;0;
33108;-21,99;-5,22;-21,99;-5,22;25,45;2,27;25,45;2,27;0;0;
33125;0,11;-5,35;0,11;-5,35;25,35;2,06;25,35;2,06;0;0;
33141;-58,04;-6,56;-58,04;-6,56;27,28;1,87;27,28;1,87;0;0;
33161;-20,47;-6,92;-20,47;-6,92;27,06;1,88;27,06;1,88;0;0;
33178;-23,48;-4,84;-23,48;-4,84;20,73;1,68;20,73;1,68;0;0;
33193;-9,93;-6,24;-9,93;-6,24;17,75;1,5;17,75;1,5;0;0;
33210;-20,29;-5,69;-20,29;-5,69;13,62;1,46;13,62;1,46;0;0;
33231;-91,01;-8,78;-91,01;-8,78;15,07;1,49;15,07;1,49;0;0;
33247;-91,01;-8,78;-91,01;-8,78;16,1;1,55;16,1;1,55;0;0;
33265;28,97;-11,88;28,97;-11,88;17,83;2,04;17,83;2,04;0;0;
33281;-17,59;8,73;-17,59;8,73;24,51;3,25;24,51;3,25;0;0;
33298;-25,55;-4,84;-25,55;-4,84;24,29;4,16;24,29;4,16;0;0;
33315;14,74;-8,04;14,74;-8,04;30,09;4,15;30,09;4,15;0;0;
33330;-43,08;-9,82;-43,08;-9,82;27,55;4,28;27,55;4,28;0;0;
33346;-43,08;-9,82;-43,08;-9,82;24,32;4,05;24,32;4,05;0;0;
33365;-22,93;-10,38;-22,93;-10,38;21,48;3,9;21,48;3,9;0;0;
33386;-13,62;-4,28;-13,62;-4,28;25,67;2,42;25,67;2,42;0;0;
33403;-32,06;-8,82;-32,06;-8,82;22,92;2,13;22,92;2,13;0;0;
33419;3,01;-6,44;3,01;-6,44;21,41;2,23;21,41;2,23;0;0;
33435;5,93;-7,16;5,93;-7,16;26,48;2,27;26,48;2,27;0;0;
33454;-36,87;-1,22;-36,87;-1,22;23,15;2,25;23,15;2,25;0;0;
33474;-11;-5,78;-11;-5,78;19,92;2,33;19,92;2,33;0;0;
33492;-56,05;-1,58;-56,05;-1,58;20,74;3,01;20,74;3,01;0;0;
33507;-56,05;-1,58;-56,05;-1,58;20,67;3,65;20,67;3,65;0;0;
33523;-32,58;-6,27;-32,58;-6,27;21,31;3,66;21,31;3,66;0;0;
33544;-0,55;-7,6;-0,55;-7,6;18,81;3,6;18,81;3,6;0;0;
33559;-16;-2,66;-16;-2,66;17,57;3,38;17,57;3,38;0;0;
33578;-19,4;-5,71;-19,4;-5,71;15,13;3,02;15,13;3,02;0;0;
33596;-22,1;-4,09;-22,1;-4,09;13,95;2,27;13,95;2,27;0;0;
33612;58,46;-5,72;58,46;-5,72;12,38;1,82;12,38;1,82;0;0;
33631;-165,21;-2,29;-165,21;-2,29;17,01;1,87;17,01;1,87;0;0;
33647;-165,21;-2,29;-165,21;-2,29;22,25;2,01;22,25;2,01;0;0;
33663;-31,66;-6,08;-31,66;-6,08;22,2;2;22,2;2;0;0;
33680;-10,45;-9,34;-10,45;-9,34;22,4;2,12;22,4;2,12;0;0;
33729;-12,49;-13,86;-12,49;-13,86;22,73;3,69;22,73;3,69;0;0;
33745;-19,27;14,98;-19,27;14,98;19,28;6,46;19,28;6,46;0;0;
33763;-7,37;-11,23;-7,37;-11,23;11,42;9,34;11,42;9,34;0;0;
33781;-49,29;-5,86;-49,29;-5,86;6,15;11,32;6,15;11,32;0;0;
33798;-9,4;27,75;-9,4;27,75;5,64;17,22;5,64;17,22;0;0;
33814;-22,27;-29,59;-22,27;-29,59;5,71;20,08;5,71;20,08;0;0;
33832;-20,8;-45,41;-20,8;-45,41;5,69;21,48;5,69;21,48;0;0;
33852;-22,87;23,76;-22,87;23,76;5,22;20,75;5,22;20,75;0;0;
33867;-22,87;23,76;-22,87;23,76;5,15;21,78;5,15;21,78;0;0;
33884;-7,71;13,08;-7,71;13,08;4,5;21,64;4,5;21,64;0;0;
33900;-7,71;13,08;-7,71;13,08;4,07;20,86;4,07;20,86;0;0;
33917;-15,48;6,8;-15,48;6,8;4,14;18,31;4,14;18,31;0;0;
33934;-30,62;4,25;-30,62;4,25;4,72;19,64;4,72;19,64;0;0;
33949;-30,62;4,25;-30,62;4,25;5,32;20,18;5,32;20,18;0;0;
33965;-13,19;5,59;-13,19;5,59;6,18;19,28;6,18;19,28;0;0;
33984;-10,05;-18,86;-10,05;-18,86;6,24;18,58;6,24;18,58;0;0;
34003;-3,33;-60,1;-3,33;-60,1;6,5;21,44;6,5;21,44;0;0;
34020;-19,68;-42,98;-19,68;-42,98;6,94;22,84;6,94;22,84;0;0;
34039;-13,41;7,48;-13,41;7,48;6,33;23,52;6,33;23,52;0;0;
34058;-21,94;-5,97;-21,94;-5,97;5,42;21,3;5,42;21,3;0;0;
34077;-26,12;-39,82;-26,12;-39,82;5,28;20,35;5,28;20,35;0;0;
34097;-19,76;-15,5;-19,76;-15,5;4,75;20,02;4,75;20,02;0;0;
34114;-22,21;45,88;-22,21;45,88;4,17;19,45;4,17;19,45;0;0;
34130;-17,98;-7,74;-17,98;-7,74;3,76;15,98;3,76;15,98;0;0;
34147;-17,98;-7,74;-17,98;-7,74;3,8;14,88;3,8;14,88;0;0;
34166;-14,28;-10,73;-14,28;-10,73;3,65;15,74;3,65;15,74;0;0;
34185;-11,2;-11,69;-11,2;-11,69;3,55;13,59;3,55;13,59;0;0;
34202;-16,13;-30,46;-16,13;-30,46;3,69;12,28;3,69;12,28;0;0;
34220;-12,35;-26,02;-12,35;-26,02;3,99;9,72;3,99;9,72;0;0;
34236;-23,23;15,38;-23,23;15,38;4,07;10,86;4,07;10,86;0;0;
34253;0,56;18,35;0,56;18,35;4,18;14,38;4,18;14,38;0;0;
34269;0,56;18,35;0,56;18,35;4,47;17,02;4,47;17,02;0;0;
34287;-14,82;12,66;-14,82;12,66;4,71;17,03;4,71;17,03;0;0;
34304;-24,69;26,56;-24,69;26,56;4,56;18,15;4,56;18,15;0;0;
34325;-13,62;-13,86;-13,62;-13,86;4,82;18,82;4,82;18,82;0;0;
34344;-21,42;-13,39;-21,42;-13,39;4,62;17,43;4,62;17,43;0;0;
34362;-17,17;-27,17;-17,17;-27,17;4,15;15,39;4,15;15,39;0;0;
34377;-17,85;12,68;-17,85;12,68;3,47;14,75;3,47;14,75;0;0;
34398;-17,07;10,15;-17,07;10,15;3,74;15,35;3,74;15,35;0;1;
34416;-19,02;34,12;-19,02;34,12;3,76;15,6;3,76;15,6;0;1;
34434;-8,4;-30,94;-8,4;-30,94;3,23;15,19;3,23;15,19;0;1;
34450;-11,84;25,19;-11,84;25,19;3,89;15,71;3,89;15,71;0;1;
34466;-11,84;25,19;-11,84;25,19;4,78;15,09;4,78;15,09;0;1;
34488;-15,85;-5,92;-15,85;-5,92;4,89;15,51;4,89;15,51;0;1;
34506;6,51;23,28;6,51;23,28;5,71;17,68;5,71;17,68;0;1;
34521;6,51;23,28;6,51;23,28;6,99;18,19;6,99;18,19;0;1;
34537;-6,82;15,11;-6,82;15,11;7,14;20,28;7,14;20,28;0;1;
34553;-8,19;-7,46;-8,19;-7,46;7,12;20,85;7,12;20,85;0;1;
34569;-8,19;-7,46;-8,19;-7,46;7,44;20,48;7,44;20,48;0;1;
34584;-25,17;-8,06;-25,17;-8,06;7,81;20,41;7,81;20,41;0;1;
34600;-26,3;0,92;-26,3;0,92;7,43;17,99;7,43;17,99;0;1;
34617;-19,11;-7,02;-19,11;-7,02;7,31;17,74;7,31;17,74;0;1;
34640;-21,81;-2,34;-21,81;-2,34;7,36;15,6;7,36;15,6;0;1;
34659;-10,68;1,83;-10,68;1,83;7,18;14,78;7,18;14,78;0;1;
34676;-13,77;-17,3;-13,77;-17,3;6,91;13,29;6,91;13,29;0;1;
34694;-17,39;8,65;-17,39;8,65;6,99;14,09;6,99;14,09;0;1;
34710;-5,85;46,6;-5,85;46,6;6,4;15,86;6,4;15,86;0;1;
34725;-5,85;46,6;-5,85;46,6;6,16;17,22;6,16;17,22;0;1;
34740;-21,99;-31,16;-21,99;-31,16;6,03;16,8;6,03;16,8;0;1;
34757;-18,37;10,49;-18,37;10,49;5,34;16,84;5,34;16,84;0;0;
34774;-5,77;-17,21;-5,77;-17,21;5,44;16,1;5,44;16,1;0;0;
34796;-29,13;77,85;-29,13;77,85;5,47;16,82;5,47;16,82;0;0;
34817;-17,31;-7,13;-17,31;-7,13;6,53;15,04;6,53;15,04;0;0;
34837;-18,4;5,67;-18,4;5,67;5,79;16,19;5,79;16,19;0;0;
34855;-11;-32,19;-11;-32,19;5,67;17,19;5,67;17,19;0;0;
34871;-13,18;-5,21;-13,18;-5,21;5,42;19,07;5,42;19,07;0;0;
34891;-21,28;-14,02;-21,28;-14,02;5,18;20,52;5,18;20,52;0;0;
34907;-21,28;-14,02;-21,28;-14,02;4,83;17,26;4,83;17,26;0;0;
34923;-22,01;-7,61;-22,01;-7,61;4,01;17;4,01;17;0;0;
34939;6,04;-18,57;6,04;-18,57;6,22;15,07;6,22;15,07;0;0;
34960;-19,28;-21,63;-19,28;-21,63;6,35;13,96;6,35;13,96;0;0;
34979;-13,45;-39,08;-13,45;-39,08;6,21;14,25;6,21;14,25;0;0;
34998;-18,42;-35,8;-18,42;-35,8;5,8;19,51;5,8;19,51;0;0;
35015;-13,48;-12,5;-13,48;-12,5;5,27;19,59;5,27;19,59;0;0;
35030;-15,69;-14,56;-15,69;-14,56;5,04;18,99;5,04;18,99;0;0;
35047;-15,69;-14,56;-15,69;-14,56;2,89;18,18;2,89;18,18;0;0;
35063;13,64;-10,37;13,64;-10,37;4,16;17,04;4,16;17,04;0;0;
35082;-22,98;-8,18;-22,98;-8,18;6,41;12,49;6,41;12,49;0;0;
35100;-13,14;-12,06;-13,14;-12,06;6,9;7,95;6,9;7,95;0;0;
35120;-2,21;-6,63;-2,21;-6,63;8,63;6,39;8,63;6,39;1;0;
35139;1,65;-6,74;1,65;-6,74;13,68;5,24;13,68;5,24;1;0;
35155;-18,79;-17,41;-18,79;-17,41;23,66;4,78;23,66;4,78;1;0;
35172;-78,73;-12,33;-78,73;-12,33;38,69;4,54;38,69;4,54;1;0;
35190;-54,11;2,36;-54,11;2,36;45,69;4,02;45,69;4,02;0;0;
35210;-73,7;-6,91;-73,7;-6,91;60,48;3,93;60,48;3,93;0;0;
35228;-73,7;-6,91;-73,7;-6,91;72,02;4,18;72,02;4,18;0;0;
35244;-30,53;-2,86;-30,53;-2,86;76,49;4,53;76,49;4,53;0;0;
35261;-16,7;-3,33;-16,7;-3,33;66,5;3,93;66,5;3,93;0;0;
35284;-57,03;-7,79;-57,03;-7,79;70,05;3,71;70,05;3,71;0;0;
35304;58,97;1,05;58,97;1,05;75,48;3,46;75,48;3,46;0;0;
35321;-12,64;-5,41;-12,64;-5,41;71,49;3,3;71,49;3,3;0;0;
35339;-64,53;6,55;-64,53;6,55;75,39;3,43;75,39;3,43;0;0;
35355;-46,32;-2,02;-46,32;-2,02;74,58;3,9;74,58;3,9;0;0;
35374;-24,98;-8,34;-24,98;-8,34;68,62;3,69;68,62;3,69;0;0;
35389;-24,98;-8,34;-24,98;-8,34;58,42;3,74;58,42;3,74;0;0;
35405;-22,17;-13,07;-22,17;-13,07;51,46;4,01;51,46;4,01;0;0;
35422;-34,74;-8,56;-34,74;-8,56;54,3;4,27;54,3;4,27;0;0;
35444;33,7;-6,57;33,7;-6,57;43,79;3,48;43,79;3,48;0;0;
35461;-47,81;-6,44;-47,81;-6,44;44,55;3,2;44,55;3,2;0;0;
35477;-17,46;-5,45;-17,46;-5,45;39,52;2,91;39,52;2,91;0;0;
35494;-11,09;-5,64;-11,09;-5,64;32,67;2,48;32,67;2,48;0;0;
35514;-24,97;-6,01;-24,97;-6,01;23,03;2,1;23,03;2,1;0;0;
35529;-24,97;-6,01;-24,97;-6,01;15,84;1,89;15,84;1,89;0;0;
35544;9,21;-14,18;9,21;-14,18;10,32;4,92;10,32;4,92;0;0;
35562;-4,61;39,89;-4,61;39,89;6,37;8,52;6,37;8,52;0;0;
35579;-16,1;-32,77;-16,1;-32,77;6,34;11,78;6,34;11,78;0;0;
35603;-10,2;-20,77;-10,2;-20,77;7,19;14,15;7,19;14,15;0;0;
35620;3,57;-23,45;3,57;-23,45;10,97;17,18;10,97;17,18;0;0;
35637;-21,09;18,47;-21,09;18,47;11,5;19,77;11,5;19,77;0;0;
35653;-77,23;-24,25;-77,23;-24,25;15,33;22,04;15,33;22,04;0;0;
35668;-77,23;-24,25;-77,23;-24,25;18,89;23,68;18,89;23,68;0;0;
35685;-10,2;3,2;-10,2;3,2;24,87;23,16;24,87;23,16;0;0;
35702;-23,78;-18,53;-23,78;-18,53;29,04;22,61;29,04;22,61;0;0;
35719;68,95;14,89;68,95;14,89;30,7;21,76;30,7;21,76;0;0;
35735;-23,42;-7,58;-23,42;-7,58;35,4;22,05;35,4;22,05;0;0;
35756;-6,06;-25,6;-6,06;-25,6;30,3;18,89;30,3;18,89;0;0;
35775;-18,3;-11,3;-18,3;-11,3;21,86;17,04;21,86;17,04;0;0;
35791;-17,52;29,3;-17,52;29,3;17,08;22,97;17,08;22,97;0;0;
35806;-17,52;29,3;-17,52;29,3;14,02;27,34;14,02;27,34;0;0;
35822;-16,71;-23,29;-16,71;-23,29;5;27,04;5;27,04;0;0;
35837;-13,03;0,61;-13,03;0,61;3,73;25,41;3,73;25,41;0;0;
35854;-12,67;-20,07;-12,67;-20,07;3,29;24,06;3,29;24,06;0;0;
35870;-12,67;-20,07;-12,67;-20,07;3,42;22,48;3,42;22,48;0;0;
35888;-12,67;-20,07;-12,67;-20,07;3,59;16,83;3,59;16,83;0;0;
35913;-36,16;36,24;-36,16;36,24;4,89;13,62;4,89;13,62;0;0;
35930;-36,16;36,24;-36,16;36,24;6,02;14,18;6,02;14,18;0;0;
35945;-16,72;-25,91;-16,72;-25,91;6,18;15,94;6,18;15,94;0;0;
35963;-15,29;-42,84;-15,29;-42,84;6,48;18,37;6,48;18,37;0;0;
35980;-14,26;-46,48;-14,26;-46,48;6,69;22,23;6,69;22,23;0;0;
35998;-12,8;21,04;-12,8;21,04;6,83;23,06;6,83;23,06;0;0;
36014;-9,02;0,19;-9,02;0,19;5,84;24,32;5,84;24,32;0;0;
36031;-7,36;22,56;-7,36;22,56;5,69;24,67;5,69;24,67;0;0;
36046;-7,36;22,56;-7,36;22,56;5,99;22,47;5,99;22,47;0;0;
36065;-23,28;-43,34;-23,28;-43,34;5,91;21,34;5,91;21,34;0;0;
36084;-12,8;-44,93;-12,8;-44,93;5,71;20,76;5,71;20,76;0;0;
36101;-16,18;41,36;-16,18;41,36;6;21,82;6;21,82;0;0;
36119;-12,72;-20,47;-12,72;-20,47;6,06;20,43;6,06;20,43;0;0;
36136;-26,78;-93,41;-26,78;-93,41;5,79;20,69;5,79;20,69;0;0;
36153;-21,18;3,51;-21,18;3,51;5,55;19,91;5,55;19,91;0;0;
36171;-28,12;-2,06;-28,12;-2,06;6,17;17,44;6,17;17,44;0;0;
36187;-28,12;-2,06;-28,12;-2,06;6,21;15,56;6,21;15,56;0;0;
36207;-33,1;-24,74;-33,1;-24,74;6,92;15,67;6,92;15,67;0;0;
36230;-1,34;136,55;-1,34;136,55;7,21;18,65;7,21;18,65;0;0;
36249;-19,66;-12,89;-19,66;-12,89;7,6;19,94;7,6;19,94;0;0;
36265;-8,45;-45,28;-8,45;-45,28;7,4;20,9;7,4;20,9;0;0;
36281;1,01;-1,5;1,01;-1,5;7,3;23,91;7,3;23,91;0;0;
36298;-16,87;28,29;-16,87;28,29;6,43;21,49;6,43;21,49;0;1;
36316;-15,88;-45,75;-15,88;-45,75;6,26;23,5;6,26;23,5;0;1;
36333;-18,47;13,68;-18,47;13,68;5,93;20,49;5,93;20,49;0;1;
36349;-18,47;13,68;-18,47;13,68;6,04;21,47;6,04;21,47;0;1;
36366;-15,86;-47,76;-15,86;-47,76;5,51;20,37;5,51;20,37;0;1;
36386;-20,53;44,45;-20,53;44,45;5,01;24,43;5,01;24,43;0;1;
36403;-22,12;22,52;-22,12;22,52;5,18;26,96;5,18;26,96;0;1;
36420;-18,51;-39,88;-18,51;-39,88;4,55;23,17;4,55;23,17;0;1;
36438;-7,63;28,99;-7,63;28,99;5,05;22,11;5,05;22,11;0;1;
36455;-6,63;-22,54;-6,63;-22,54;6,31;22,44;6,31;22,44;0;1;
36471;-21,05;-14,04;-21,05;-14,04;6,85;18,65;6,85;18,65;0;1;
36488;-21,05;-14,04;-21,05;-14,04;6,92;16,36;6,92;16,36;0;1;
36505;-7,3;12,3;-7,3;12,3;7,13;13,66;7,13;13,66;0;1;
36522;-24,59;18,31;-24,59;18,31;7,03;15,24;7,03;15,24;0;1;
36542;-9,09;-25,29;-9,09;-25,29;6,91;14,72;6,91;14,72;0;1;
36559;-13,42;-31,16;-13,42;-31,16;5,6;15,29;5,6;15,29;0;1;
36577;-1,62;26,1;-1,62;26,1;5,37;19,59;5,37;19,59;0;1;
36594;-4,95;-6,68;-4,95;-6,68;6,78;22,4;6,78;22,4;0;1;
36611;-16,74;-6,81;-16,74;-6,81;6,69;20,02;6,69;20,02;0;1;
36630;-8,88;-7,06;-8,88;-7,06;6,52;17,16;6,52;17,16;0;1;
36648;-8,88;-7,06;-8,88;-7,06;5,52;14,61;5,52;14,61;0;1;
36663;-24,65;29,06;-24,65;29,06;5,54;16,11;5,54;16,11;0;0;
36679;-23,62;-11,59;-23,62;-11,59;4,96;12,53;4,96;12,53;0;0;
36703;-17,42;-4,74;-17,42;-4,74;3,88;9,81;3,88;9,81;0;0;
36720;-12,28;-13,84;-12,28;-13,84;4,12;12,81;4,12;12,81;0;0;
36739;-17,96;20,41;-17,96;20,41;4,66;15,76;4,66;15,76;0;0;
36755;-19,41;-19,84;-19,41;-19,84;5,23;15,46;5,23;15,46;0;0;
36773;-16,05;-19,3;-16,05;-19,3;4,71;15,11;4,71;15,11;0;0;
36790;-11,54;9,53;-11,54;9,53;4,76;16,8;4,76;16,8;0;0;
36805;-11,54;9,53;-11,54;9,53;4,58;17,3;4,58;17,3;0;0;
36824;-25,15;-23,81;-25,15;-23,81;4,99;14,87;4,99;14,87;0;0;
36840;-18,1;0,42;-18,1;0,42;4,4;18;4,4;18;0;0;
36863;-15,33;6,18;-15,33;6,18;4,21;17,37;4,21;17,37;0;0;
36880;-18,12;-18,86;-18,12;-18,86;4,05;16,34;4,05;16,34;0;0;
36897;-17,34;-3,27;-17,34;-3,27;3,74;14,64;3,74;14,64;0;0;
36916;-22,37;-9,98;-22,37;-9,98;3,77;13,62;3,77;13,62;0;0;
36934;-11,9;-16,57;-11,9;-16,57;3,08;11,49;3,08;11,49;0;0;
36950;-13,04;-10,1;-13,04;-10,1;4,1;7,75;4,1;7,75;0;0;
36968;-13,04;-10,1;-13,04;-10,1;5,16;6,31;5,16;6,31;0;0;
36983;-41,24;-9,02;-41,24;-9,02;6,72;5,13;6,72;5,13;0;0;
37000;40,31;-6,57;40,31;-6,57;15,66;4,52;15,66;4,52;0;0;
37021;64,22;-6,32;64,22;-6,32;21,37;4,53;21,37;4,53;0;0;
37038;6,88;-8,13;6,88;-8,13;33,16;3,49;33,16;3,49;0;0;
37058;-48,41;-7,1;-48,41;-7,1;37,82;2,32;37,82;2,32;0;0;
37075;-13,56;-3,38;-13,56;-3,38;41;1,88;41;1,88;0;0;
37092;-114,81;-12,53;-114,81;-12,53;42,36;2,08;42,36;2,08;0;0;
37108;-114,81;-12,53;-114,81;-12,53;39,06;2,1;39,06;2,1;0;0;
37126;-67,08;-11,71;-67,08;-11,71;34,98;2,27;34,98;2,27;0;0;
37142;-127,35;0,73;-127,35;0,73;40,11;2,52;40,11;2,52;0;0;
37158;44,73;-2,36;44,73;-2,36;44,76;2,54;44,76;2,54;0;0;
37178;-71,71;-7,35;-71,71;-7,35;48,1;2,72;48,1;2,72;0;0;
37196;-26,63;-4,72;-26,63;-4,72;49,88;2,69;49,88;2,69;0;0;
37213;-100,05;-6,45;-100,05;-6,45;59,67;2,51;59,67;2,51;0;0;
37228;-100,05;-6,45;-100,05;-6,45;66,56;2,26;66,56;2,26;0;0;
37245;60,67;-5,87;60,67;-5,87;68,22;1,94;68,22;1,94;0;0;
37261;-14,8;-5,79;-14,8;-5,79;63,77;2,02;63,77;2,02;0;0;
37275;-43,8;-4,73;-43,8;-4,73;71,38;2,26;71,38;2,26;0;0;
37293;88,76;-4,96;88,76;-4,96;73,54;2,41;73,54;2,41;0;0;
37310;34,04;-5,22;34,04;-5,22;71,7;2,75;71,7;2,75;0;0;
37330;37,27;-0,05;37,27;-0,05;76,92;3,28;76,92;3,28;0;0;
37345;37,27;-0,05;37,27;-0,05;77,3;3,7;77,3;3,7;0;0;
37361;-90,53;-9,28;-90,53;-9,28;81,45;3,61;81,45;3,61;0;0;
37378;-44,62;-7,43;-44,62;-7,43;80,36;3,46;80,36;3,46;0;0;
37402;-58,09;-10,01;-58,09;-10,01;82,22;3,65;82,22;3,65;0;0;
37419;112,44;-4,86;112,44;-4,86;80,84;3,6;80,84;3,6;0;0;
37436;129,41;-5,7;129,41;-5,7;79,35;3,16;79,35;3,16;0;0;
37452;39,64;-8,46;39,64;-8,46;79,72;3,49;79,72;3,49;0;0;
37471;92,96;-3,02;92,96;-3,02;89,18;3,63;89,18;3,63;0;0;
37491;86,33;-2,52;86,33;-2,52;93,84;3,43;93,84;3,43;0;0;
37508;86,33;-2,52;86,33;-2,52;101,27;3,18;101,27;3,18;0;0;
37524;-246,42;-14,05;-246,42;-14,05;106,08;3,22;106,08;3,22;0;0;
37541;27,56;-2,02;27,56;-2,02;103,22;3,18;103,22;3,18;0;0;
37557;-77,31;-4,6;-77,31;-4,6;87,99;3,03;87,99;3,03;0;0;
37573;119,56;-1,07;119,56;-1,07;87,88;2,87;87,88;2,87;0;0;
37589;119,56;-1,07;119,56;-1,07;89,84;2,9;89,84;2,9;0;0;
37605;-66,68;-5,4;-66,68;-5,4;93,12;3,6;93,12;3,6;0;0;
37623;95,03;-4,19;95,03;-4,19;80,64;3,13;80,64;3,13;0;0;
37641;-21,44;-9,03;-21,44;-9,03;84,46;2,81;84,46;2,81;0;0;
37658;18,27;-4,28;18,27;-4,28;87,24;2,76;87,24;2,76;0;0;
37678;-201,8;-6,42;-201,8;-6,42;74,61;2,79;74,61;2,79;0;0;
37696;-61,4;-3,38;-61,4;-3,38;62,56;2,81;62,56;2,81;0;0;
37713;-75,7;-3,02;-75,7;-3,02;58,89;2,56;58,89;2,56;0;0;
37733;-77,76;-7,89;-77,76;-7,89;66,92;2,69;66,92;2,69;0;0;
37748;-77,76;-7,89;-77,76;-7,89;72,69;2,81;72,69;2,81;0;0;
37766;40,26;-6,43;40,26;-6,43;79,37;2,7;79,37;2,7;0;0;
37785;24,28;-0,57;24,28;-0,57;69,38;2,69;69,38;2,69;0;0;
37807;95,81;-5,43;95,81;-5,43;68,99;2,42;68,99;2,42;0;0;
37824;-45,57;-6,18;-45,57;-6,18;67,26;2,69;67,26;2,69;0;0;
37840;-18,37;-3,39;-18,37;-3,39;56,62;2,66;56,62;2,66;0;0;
37855;-18,37;-3,39;-18,37;-3,39;49,86;2,47;49,86;2,47;0;0;
37871;-2,51;-5,06;-2,51;-5,06;41,38;2,49;41,38;2,49;0;0;
37890;2,55;-5,56;2,55;-5,56;40,35;2,33;40,35;2,33;0;0;
37907;2,55;-5,56;2,55;-5,56;32,95;2,32;32,95;2,32;0;0;
37922;-23,81;-8,4;-23,81;-8,4;19,12;2,15;19,12;2,15;0;0;
37940;-19,3;-5,83;-19,3;-5,83;15,07;2,16;15,07;2,16;0;0;
37960;14,49;-4,23;14,49;-4,23;15,55;1,98;15,55;1,98;0;0;
37977;58,83;-5,57;58,83;-5,57;19,19;1,99;19,19;1,99;0;0;
37994;21,17;-6,95;21,17;-6,95;24,52;1,99;24,52;1,99;0;0;
38012;6,55;-2,65;6,55;-2,65;29,57;2,02;29,57;2,02;0;0;
38029;6,55;-2,65;6,55;-2,65;34;2,19;34;2,19;0;0;
38045;-39,09;-5,35;-39,09;-5,35;36,99;2,33;36,99;2,33;0;0;
38061;-11,06;-5,37;-11,06;-5,37;35,38;2,3;35,38;2,3;0;0;
38079;8,9;-6,07;8,9;-6,07;30,78;2,29;30,78;2,29;0;0;
38099;6,73;-6,45;6,73;-6,45;23,9;1,9;23,9;1,9;0;0;
38124;-51,38;-6,1;-51,38;-6,1;20,99;2,08;20,99;2,08;1;0;
38141;-54,14;-4,39;-54,14;-4,39;20,75;1,97;20,75;1,97;1;0;
38157;-5,7;-7,4;-5,7;-7,4;19,59;1,99;19,59;1,99;1;0;
38175;-20,88;-5,05;-20,88;-5,05;18,91;1,97;18,91;1,97;1;0;
38191;-4,25;-4,88;-4,25;-4,88;21,03;2,05;21,03;2,05;1;0;
38208;-4,25;-4,88;-4,25;-4,88;22,49;1,97;22,49;1,97;1;0;
38223;-36,93;-2,29;-36,93;-2,29;23,75;1,8;23,75;1,8;1;0;
38239;-10,49;-4,74;-10,49;-4,74;25,9;1,81;25,9;1,81;1;0;
38256;27,27;-3,25;27,27;-3,25;30,68;1,65;30,68;1,65;1;0;
38276;-45,48;-6,67;-45,48;-6,67;32,6;1,63;32,6;1,63;1;0;
38293;40,88;-0,78;40,88;-0,78;33,73;1,82;33,73;1,82;1;0;
38310;6,47;-2,03;6,47;-2,03;35,63;2,36;35,63;2,36;1;0;
38327;6,47;-2,03;6,47;-2,03;38,09;2,69;38,09;2,69;1;0;
38344;32,27;-6,86;32,27;-6,86;36,59;2,76;36,59;2,76;1;0;
38364;-20,65;-7,4;-20,65;-7,4;31,99;2,75;31,99;2,75;1;0;
38380;-19,87;-7,6;-19,87;-7,6;27,3;2,72;27,3;2,72;1;0;
38397;-5,55;-5,72;-5,55;-5,72;19,6;2,22;19,6;2,22;1;0;
38415;-14,04;-9,37;-14,04;-9,37;15,23;1,86;15,23;1,86;1;0;
38437;-8,24;-5,44;-8,24;-5,44;12,31;1,62;12,31;1,62;1;0;
38453;-11,56;-7,21;-11,56;-7,21;11,33;1,82;11,33;1,82;1;0;
38469;-11,56;-7,21;-11,56;-7,21;13,39;2,14;13,39;2,14;1;0;
38486;-60,2;-9,01;-60,2;-9,01;17,85;2,23;17,85;2,23;0;0;
38502;-60,2;-9,01;-60,2;-9,01;18,57;2,39;18,57;2,39;0;0;
38520;-15,49;-6,33;-15,49;-6,33;22,69;2,18;22,69;2,18;0;0;
38538;-19,97;-3,27;-19,97;-3,27;25,02;2,24;25,02;2,24;0;0;
38559;-19,06;-8,25;-19,06;-8,25;22,43;2,43;22,43;2,43;0;0;
38577;-35,02;1,02;-35,02;1,02;19,19;3,14;19,19;3,14;0;0;
38597;68,88;-1,3;68,88;-1,3;24,56;3,31;24,56;3,31;0;0;
38616;-11,88;-4,79;-11,88;-4,79;27,3;3,17;27,3;3,17;0;0;
38633;-33,98;-4,23;-33,98;-4,23;25,29;3,3;25,29;3,3;0;0;
38651;-10,34;-5,32;-10,34;-5,32;23,6;3,06;23,6;3,06;0;0;
38667;-10,34;-5,32;-10,34;-5,32;24,02;2,48;24,02;2,48;0;0;
38684;9,28;-8,9;9,28;-8,9;23,88;2,14;23,88;2,14;0;0;
38702;-18,83;-4,12;-18,83;-4,12;11,38;1,9;11,38;1,9;0;0;
38720;-40,06;-5,23;-40,06;-5,23;11,26;1,92;11,26;1,92;0;0;
38736;4,64;-7,43;4,64;-7,43;12,76;1,88;12,76;1,88;0;0;
38758;-37,4;-6,78;-37,4;-6,78;13,73;1,9;13,73;1,9;0;0;
38777;-21,16;2,99;-21,16;2,99;17,68;1,82;17,68;1,82;0;0;
38794;-14,52;-8,21;-14,52;-8,21;16,77;2,14;16,77;2,14;0;0;
38812;-11,59;-8,15;-11,59;-8,15;17,45;2,2;17,45;2,2;0;0;
38829;-11,59;-8,15;-11,59;-8,15;16,65;2,25;16,65;2,25;0;0;
38849;-13;-6,14;-13;-6,14;18,13;2,55;18,13;2,55;0;0;
38864;-21;-3,37;-21;-3,37;15,7;2,56;15,7;2,56;0;0;
38882;-13,82;-2,47;-13,82;-2,47;11,83;2,27;11,83;2,27;0;0;
38899;-2,14;-5,36;-2,14;-5,36;11,38;2,31;11,38;2,31;1;0;
38925;-19,24;-3,65;-19,24;-3,65;9,6;2,75;9,6;2,75;1;0;
38941;-16,37;-8,4;-16,37;-8,4;10,52;2,77;10,52;2,77;1;0;
38960;-11,04;-9,39;-11,04;-9,39;11,48;2,61;11,48;2,61;1;0;
38977;-13,37;-5,89;-13,37;-5,89;18,55;2,67;18,55;2,67;1;0;
38993;-36,81;-5,05;-36,81;-5,05;19,45;2,54;19,45;2,54;1;0;
39009;-36,81;-5,05;-36,81;-5,05;19,94;2,46;19,94;2,46;1;0;
39026;-16,7;-7,24;-16,7;-7,24;22,26;1,78;22,26;1,78;1;0;
39042;-75,33;-3,31;-75,33;-3,31;22,74;1,85;22,74;1,85;1;0;
39058;153,61;-7,06;153,61;-7,06;35,88;2,11;35,88;2,11;1;0;
39080;-22,26;-5,97;-22,26;-5,97;40,75;2,41;40,75;2,41;1;0;
