Time;EMG1;EMG2;EMG3;EMG4;EMG1_F;EMG2_F;EMG3_F;EMG4_F;Note_R;Note_V;;Level 3;Joueur;Score;Notes hit;% Reussite R;Offset EMG1;Onset EMG1;% Reussite V;Offset EMG2;Onset EMG2
11;-17,14;-11,54;-17,14;-11,54;2,44;2,73;2,44;2,73;0;0;;;1;4900;49;45,45454;-16,45524;40,75062;4,040404;-6,41253;8,256034
29;-18,54;-4,66;-18,54;-4,66;2,58;2,57;2,58;2,57;0;0;;;2;4800;48;44,44444;-16,45524;40,75062;4,040404;-6,41253;8,256034
53;-17,31;-2,72;-17,31;-2,72;2,59;1,95;2,59;1,95;0;0;
73;-17,64;-11,06;-17,64;-11,06;2,62;2,25;2,62;2,25;0;0;
88;-22,1;-10,76;-22,1;-10,76;2,8;2,5;2,8;2,5;0;0;
107;-15,46;-5,35;-15,46;-5,35;2,46;2,37;2,46;2,37;0;0;
126;-12,88;-4,66;-12,88;-4,66;2,25;2,4;2,25;2,4;0;0;
144;-18,11;0,51;-18,11;0,51;2,31;2,85;2,31;2,85;0;0;
162;-15,05;-11,42;-15,05;-11,42;2,29;3,18;2,29;3,18;0;0;
179;-19,37;-5,08;-19,37;-5,08;2,23;2,96;2,23;2,96;0;0;
197;-19,37;-5,08;-19,37;-5,08;1,91;2,71;1,91;2,71;0;0;
220;-19,15;-4,68;-19,15;-4,68;1,91;2,6;1,91;2,6;0;0;
236;-19,15;-4,68;-19,15;-4,68;2,05;2,55;2,05;2,55;0;0;
255;-19,76;-7,67;-19,76;-7,67;1,9;2,17;1,9;2,17;0;0;
273;-11,04;-2,62;-11,04;-2,62;2,27;2;2,27;2;0;0;
292;-16,94;-4,51;-16,94;-4,51;2,38;2,04;2,38;2,04;0;0;
310;-19,05;-4,49;-19,05;-4,49;2,63;2,27;2,63;2,27;0;0;
325;-15,19;-5,3;-15,19;-5,3;2,64;2,42;2,64;2,42;0;0;
344;-15,84;-6,19;-15,84;-6,19;2,51;2,53;2,51;2,53;0;0;
363;-15,04;0,27;-15,04;0,27;2,16;2,61;2,16;2,61;0;0;
384;-18,14;-3,77;-18,14;-3,77;2,14;2,51;2,14;2,51;0;0;
401;-12,6;-5,59;-12,6;-5,59;2,21;2,31;2,21;2,31;0;0;
419;-17,62;-6,63;-17,62;-6,63;2,14;2,33;2,14;2,33;0;0;
436;-17,62;-6,63;-17,62;-6,63;2,13;2,25;2,13;2,25;0;0;
455;-15,57;-8,11;-15,57;-8,11;2,29;2,49;2,29;2,49;0;0;
472;-14,17;0,67;-14,17;0,67;2,48;2,57;2,48;2,57;0;0;
489;-13,88;-3,94;-13,88;-3,94;2,17;2,58;2,17;2,58;0;0;
506;-17,55;-5,26;-17,55;-5,26;2,24;2,62;2,24;2,62;0;0;
525;-10,69;-4,6;-10,69;-4,6;2,3;2,45;2,3;2,45;0;0;
549;-16,65;-1,64;-16,65;-1,64;2,29;2,14;2,29;2,14;0;0;
568;-16,09;-9,67;-16,09;-9,67;2,16;2,1;2,16;2,1;0;0;
584;-18;0,1;-18;0,1;2,01;2,01;2,01;2,01;0;0;
603;-16,2;-7,41;-16,2;-7,41;2,27;2,13;2,27;2,13;0;0;
620;-11,89;-0,96;-11,89;-0,96;2,5;2,31;2,5;2,31;0;0;
636;-11,89;-0,96;-11,89;-0,96;2,42;2,38;2,42;2,38;0;0;
653;-17,47;-11,05;-17,47;-11,05;2,45;2,54;2,45;2,54;0;0;
673;-16,55;-4,61;-16,55;-4,61;2,36;2,67;2,36;2,67;0;0;
693;-12,41;-6,06;-12,41;-6,06;2,49;2,5;2,49;2,5;0;0;
713;-20,56;-12,45;-20,56;-12,45;2,59;2,59;2,59;2,59;0;0;
730;-18,98;-3,85;-18,98;-3,85;2,69;2,6;2,69;2,6;0;0;
750;-15,54;-2,98;-15,54;-2,98;2,49;2,42;2,49;2,42;0;0;
768;-16,02;-7,14;-16,02;-7,14;2,58;2,39;2,58;2,39;0;0;
786;-16,38;-6,59;-16,38;-6,59;2,8;2,43;2,8;2,43;0;0;
804;-12,61;-2,76;-12,61;-2,76;2,53;2,34;2,53;2,34;0;0;
823;-16,19;-6,2;-16,19;-6,2;2,21;2,35;2,21;2,35;0;0;
838;-16,19;-6,2;-16,19;-6,2;2,09;2,16;2,09;2,16;0;0;
856;-21,76;-7,32;-21,76;-7,32;2,18;2,35;2,18;2,35;0;0;
876;-14,46;-9,12;-14,46;-9,12;2,16;2,33;2,16;2,33;0;0;
893;-13,44;-4,81;-13,44;-4,81;1,85;2,57;1,85;2,57;0;0;
909;-18,84;-4,73;-18,84;-4,73;1,73;2,57;1,73;2,57;0;0;
929;-16,51;-9,35;-16,51;-9,35;1,97;2,54;1,97;2,54;0;0;
949;-14,97;-4,76;-14,97;-4,76;2,11;2,4;2,11;2,4;0;0;
967;-15,22;-6,94;-15,22;-6,94;2,09;2,11;2,09;2,11;0;0;
986;-16,07;-5,7;-16,07;-5,7;1,95;1,93;1,95;1,93;0;0;
1008;-13,26;-6,68;-13,26;-6,68;2,11;1,86;2,11;1,86;0;0;
1029;-16,09;-7,43;-16,09;-7,43;1,97;1,77;1,97;1,77;0;0;
1047;-21,89;-1,01;-21,89;-1,01;1,93;1,74;1,93;1,74;0;0;
1068;-16,83;-5,12;-16,83;-5,12;1,96;1,73;1,96;1,73;0;0;
1087;-13,33;-10,48;-13,33;-10,48;1,97;1,59;1,97;1,59;0;0;
1105;-17,68;-6,22;-17,68;-6,22;2,17;1,62;2,17;1,62;0;0;
1122;-15,71;-6,89;-15,71;-6,89;1,91;1,71;1,91;1,71;0;0;
1143;-15,06;-10,73;-15,06;-10,73;2,09;1,94;2,09;1,94;0;0;
1161;-16,86;1,59;-16,86;1,59;1,94;2,38;1,94;2,38;0;0;
1182;-14,84;-12,27;-14,84;-12,27;2,16;2,65;2,16;2,65;0;0;
1198;-14,35;-6,3;-14,35;-6,3;1,94;2,76;1,94;2,76;0;0;
1215;-14,35;-6,3;-14,35;-6,3;1,79;2,9;1,79;2,9;0;0;
1231;-20,76;-7,07;-20,76;-7,07;1,72;2,82;1,72;2,82;0;0;
1249;-13,87;-8,05;-13,87;-8,05;1,78;2,56;1,78;2,56;0;0;
1268;-15,12;-12,49;-15,12;-12,49;1,53;2,36;1,53;2,36;0;0;
1289;-18,05;-6,83;-18,05;-6,83;1,74;2,26;1,74;2,26;0;0;
1309;-15,25;-3,77;-15,25;-3,77;2,02;2,14;2,02;2,14;0;0;
1326;-15,25;-3,77;-15,25;-3,77;2,27;2,07;2,27;2,07;0;0;
1348;-16,98;-4,15;-16,98;-4,15;2,25;2,31;2,25;2,31;0;0;
1369;-13,34;-7,02;-13,34;-7,02;2,38;2,68;2,38;2,68;0;0;
1388;-16,39;-5,24;-16,39;-5,24;2,57;2,43;2,57;2,43;0;0;
1407;-14,82;-6,06;-14,82;-6,06;2,61;2,44;2,61;2,44;0;0;
1425;-16;-8,77;-16;-8,77;2,48;2,5;2,48;2,5;0;0;
1443;-10,94;-6,96;-10,94;-6,96;2,49;2,62;2,49;2,62;0;0;
1463;-16,33;-5,58;-16,33;-5,58;2,38;2,21;2,38;2,21;0;0;
1484;-15,65;-5,09;-15,65;-5,09;2,41;2,17;2,41;2,17;0;0;
1506;-13,29;-6,67;-13,29;-6,67;2,67;2,13;2,67;2,13;0;0;
1523;-16,97;-3,49;-16,97;-3,49;3,07;2,31;3,07;2,31;0;0;
1540;-15,85;-7,19;-15,85;-7,19;3,1;2,42;3,1;2,42;0;0;
1560;-15,97;-6,72;-15,97;-6,72;3,08;2,1;3,08;2,1;0;0;
1577;-15,97;-6,72;-15,97;-6,72;3,13;1,92;3,13;1,92;0;0;
1597;-16,36;-1,58;-16,36;-1,58;3,1;2,36;3,1;2,36;0;0;
1614;-13,27;-5,75;-13,27;-5,75;2,5;2,45;2,5;2,45;0;0;
1632;-13,98;-4,75;-13,98;-4,75;2,44;2,13;2,44;2,13;0;0;
1649;-17,42;-1,17;-17,42;-1,17;2,54;2,35;2,54;2,35;0;0;
1673;-19,04;-5,82;-19,04;-5,82;2,56;2,36;2,56;2,36;0;0;
1690;-13,26;-10,07;-13,26;-10,07;2,66;2,44;2,66;2,44;0;0;
1707;-22,64;-2,98;-22,64;-2,98;2,71;2,36;2,71;2,36;0;0;
1727;-22,28;-11,64;-22,28;-11,64;2,55;2,71;2,55;2,71;0;0;
1746;-11,7;-5,8;-11,7;-5,8;2,27;2,86;2,27;2,86;0;0;
1766;-14,43;-8,39;-14,43;-8,39;2,36;3,03;2,36;3,03;0;0;
1788;-18,48;-5,96;-18,48;-5,96;2,21;3,03;2,21;3,03;0;0;
1807;-18,24;-7,41;-18,24;-7,41;2,08;2,9;2,08;2,9;0;0;
1830;-17,06;-0,93;-17,06;-0,93;1,89;2,67;1,89;2,67;0;0;
1847;-20,17;-9,61;-20,17;-9,61;2,05;2,78;2,05;2,78;0;0;
1865;-15,66;-5,16;-15,66;-5,16;2,13;2,51;2,13;2,51;0;0;
1885;-21,67;-8,07;-21,67;-8,07;2,11;2,5;2,11;2,5;0;0;
1905;-14,13;-8,07;-14,13;-8,07;2,14;2,32;2,14;2,32;0;0;
1921;-13,18;-8,75;-13,18;-8,75;2,09;2,38;2,09;2,38;0;0;
1937;-13,18;-8,75;-13,18;-8,75;2,11;2,12;2,11;2,12;0;0;
1955;-16,99;-3,22;-16,99;-3,22;1,96;1,83;1,96;1,83;0;0;
1975;-19,09;-4,98;-19,09;-4,98;2,49;1,58;2,49;1,58;0;0;
1996;-22,42;-3,01;-22,42;-3,01;2,32;1,59;2,32;1,59;0;0;
2013;-18,07;-6,44;-18,07;-6,44;2,39;1,65;2,39;1,65;0;0;
2029;-11,38;-5,98;-11,38;-5,98;2,78;1,55;2,78;1,55;0;0;
2046;-20,85;-7,47;-20,85;-7,47;3,12;1,73;3,12;1,73;0;0;
2064;-16,08;-4,73;-16,08;-4,73;3,04;1,84;3,04;1,84;0;0;
2082;-18,83;-8,14;-18,83;-8,14;2,76;2,14;2,76;2,14;0;0;
2098;-18,83;-8,14;-18,83;-8,14;2,72;2,44;2,72;2,44;0;0;
2113;-10,51;-6,7;-10,51;-6,7;2,77;2,47;2,77;2,47;0;0;
2130;-21,1;-11,24;-21,1;-11,24;2,45;2,47;2,45;2,47;0;0;
2151;-17,29;-7,75;-17,29;-7,75;2,23;2,55;2,23;2,55;0;0;
2169;-13,7;-8,75;-13,7;-8,75;2,34;2,52;2,34;2,52;0;0;
2188;-16,13;-3,76;-16,13;-3,76;2,33;2,25;2,33;2,25;0;0;
2205;-15,71;-11,03;-15,71;-11,03;2,34;2,28;2,34;2,28;0;0;
2225;-16,78;-4,59;-16,78;-4,59;2,01;2,41;2,01;2,41;0;0;
2242;-19,47;-4,25;-19,47;-4,25;1,79;2,46;1,79;2,46;0;0;
2262;-11,75;-1,5;-11,75;-1,5;1,61;2,4;1,61;2,4;0;0;
2280;-18,92;-6,63;-18,92;-6,63;1,67;2,53;1,67;2,53;0;0;
2297;-18,92;-6,63;-18,92;-6,63;1,84;2,62;1,84;2,62;0;0;
2316;-20,47;-6,18;-20,47;-6,18;2,1;2,43;2,1;2,43;0;0;
2335;-13,28;-6,88;-13,28;-6,88;2,56;2,45;2,56;2,45;0;0;
2354;-15,03;-3,12;-15,03;-3,12;2,8;2,37;2,8;2,37;0;0;
2373;-17,37;-2,65;-17,37;-2,65;2,7;2,58;2,7;2,58;0;0;
2392;-11,12;-5,22;-11,12;-5,22;2,63;2,4;2,63;2,4;0;0;
2413;-17,28;0,45;-17,28;0,45;2,68;2,5;2,68;2,5;0;0;
2429;-13,57;-10,08;-13,57;-10,08;2,57;2,79;2,57;2,79;0;0;
2449;-16,76;-8,23;-16,76;-8,23;2,35;2,98;2,35;2,98;0;0;
2470;-16,87;-5,32;-16,87;-5,32;2,51;2,79;2,51;2,79;0;0;
2489;-13,1;1,6;-13,1;1,6;2,68;2,85;2,68;2,85;0;0;
2507;-16,61;-5,1;-16,61;-5,1;2,57;2,79;2,57;2,79;0;0;
2523;-19,21;-6,28;-19,21;-6,28;2,68;2,64;2,68;2,64;0;0;
2542;-15,87;-7,93;-15,87;-7,93;2,45;2,21;2,45;2,21;0;0;
2556;-15,87;-7,93;-15,87;-7,93;2,44;2,2;2,44;2,2;0;0;
2573;-19,61;-6,2;-19,61;-6,2;2,15;2,07;2,15;2,07;0;0;
2592;-15,19;-8,48;-15,19;-8,48;2,16;2,09;2,16;2,09;0;0;
2611;-17,3;-6,05;-17,3;-6,05;1,98;2,14;1,98;2,14;0;0;
2632;-18,52;-0,91;-18,52;-0,91;2,02;2,06;2,02;2,06;0;0;
2648;-16,62;-14,1;-16,62;-14,1;2,24;2,28;2,24;2,28;0;0;
2668;-11,37;-3,36;-11,37;-3,36;2,33;2,4;2,33;2,4;0;0;
2687;-20,88;-5,43;-20,88;-5,43;2,58;2,4;2,58;2,4;0;0;
2705;-14,26;-9,87;-14,26;-9,87;2,78;2,37;2,78;2,37;0;0;
2726;-14,5;-7,24;-14,5;-7,24;2,77;2,49;2,77;2,49;0;0;
2743;-18,22;-14,45;-18,22;-14,45;2,65;2,7;2,65;2,7;0;0;
2760;-17;-2,4;-17;-2,4;2,48;2,63;2,48;2,63;0;0;
2778;-17;-2,4;-17;-2,4;2,3;2,72;2,3;2,72;0;0;
2801;-19,53;-10,02;-19,53;-10,02;2,28;2,86;2,28;2,86;0;0;
2819;-18,72;-5,36;-18,72;-5,36;2,43;2,71;2,43;2,71;0;0;
2835;-18,72;-5,36;-18,72;-5,36;2,56;2,48;2,56;2,48;0;0;
2853;-21,4;-3,98;-21,4;-3,98;2,56;2,36;2,56;2,36;0;0;
2877;-16,11;-6,17;-16,11;-6,17;2,56;2,36;2,56;2,36;0;0;
2895;-16,64;-6,78;-16,64;-6,78;2,26;2,78;2,26;2,78;0;0;
2911;-13,96;-1,36;-13,96;-1,36;1,89;2,75;1,89;2,75;0;0;
2929;-17,94;-11,16;-17,94;-11,16;1,78;3,03;1,78;3,03;0;0;
2951;-14,99;-9,16;-14,99;-9,16;1,89;3,31;1,89;3,31;0;0;
2967;-16,88;-7,03;-16,88;-7,03;1,83;3,13;1,83;3,13;0;0;
2985;-18,92;-6,57;-18,92;-6,57;2,01;2,86;2,01;2,86;0;0;
3003;-13,83;-7,6;-13,83;-7,6;1,99;2,68;1,99;2,68;0;0;
3020;-20,4;-10,39;-20,4;-10,39;2,23;2,62;2,23;2,62;0;0;
3037;-20,4;-10,39;-20,4;-10,39;2,21;2,67;2,21;2,67;0;0;
3053;-20,57;-4,99;-20,57;-4,99;2,35;2,47;2,35;2,47;0;0;
3071;-21,19;1,25;-21,19;1,25;2,36;3,03;2,36;3,03;0;0;
3092;-17,95;-3,74;-17,95;-3,74;2,36;3,17;2,36;3,17;0;0;
3113;-11,91;-6,78;-11,91;-6,78;2,49;3,07;2,49;3,07;0;0;
3133;-14,79;-0,82;-14,79;-0,82;2,32;3,19;2,32;3,19;0;0;
3150;-19,43;-8,39;-19,43;-8,39;2,38;3,01;2,38;3,01;0;0;
3167;-17,18;1,23;-17,18;1,23;2,53;2,76;2,53;2,76;0;0;
3183;-14,69;-7,76;-14,69;-7,76;2,53;2,69;2,53;2,69;0;0;
3200;-15,26;-3,9;-15,26;-3,9;2,63;2,78;2,63;2,78;0;0;
3218;-15,26;-3,9;-15,26;-3,9;2,75;2,62;2,75;2,62;0;0;
3235;-17,58;-4,37;-17,58;-4,37;2,61;2,46;2,61;2,46;0;0;
3253;-13,89;-5,33;-13,89;-5,33;2,4;2,46;2,4;2,46;0;0;
3275;-17,91;-8,93;-17,91;-8,93;2,27;2,26;2,27;2,26;0;0;
3292;-16,13;-9,16;-16,13;-9,16;2,08;1,97;2,08;1,97;0;0;
3308;-17,25;-7,34;-17,25;-7,34;1,84;2,24;1,84;2,24;0;0;
3326;-15,35;-1,97;-15,35;-1,97;1,93;2,38;1,93;2,38;0;0;
3344;-15,35;-1,97;-15,35;-1,97;2,14;2,34;2,14;2,34;0;0;
3361;-19,7;-10;-19,7;-10;2,18;2,49;2,18;2,49;0;0;
3378;-19,7;-10;-19,7;-10;2,31;2,84;2,31;2,84;0;0;
3396;-23,15;-6,3;-23,15;-6,3;2,44;2,73;2,44;2,73;0;0;
3418;-18,31;-3,86;-18,31;-3,86;2,29;2,56;2,29;2,56;0;0;
3440;-17,32;-3,39;-17,32;-3,39;2,15;2,36;2,15;2,36;0;0;
3457;-17,32;-3,39;-17,32;-3,39;2,11;2,06;2,11;2,06;0;0;
3475;-10,59;-6,7;-10,59;-6,7;2,09;1,71;2,09;1,71;0;0;
3494;-15,48;-7,37;-15,48;-7,37;2,21;1,86;2,21;1,86;0;0;
3513;-13,5;-7,28;-13,5;-7,28;2,17;1,68;2,17;1,68;0;0;
3529;-18;-8,61;-18;-8,61;2,06;1,81;2,06;1,81;0;0;
3547;-17,28;-6,95;-17,28;-6,95;2,09;2,11;2,09;2,11;0;0;
3563;-21,2;-9,37;-21,2;-9,37;2,1;2,46;2,1;2,46;0;0;
3581;-12,49;-8,39;-12,49;-8,39;2,11;2,64;2,11;2,64;0;0;
3603;-16,88;-11,52;-16,88;-11,52;2,2;2,56;2,2;2,56;0;0;
3621;-15,11;-8;-15,11;-8;2,04;2,65;2,04;2,65;0;0;
3637;-15,11;-8;-15,11;-8;2,08;2,43;2,08;2,43;0;0;
3652;-14,86;-8,4;-14,86;-8,4;2,22;2,15;2,22;2,15;0;0;
3669;-16,4;-3,83;-16,4;-3,83;2,25;2,12;2,25;2,12;0;0;
3689;-17,13;-5,48;-17,13;-5,48;2,09;2,16;2,09;2,16;0;0;
3707;-12,73;-2,1;-12,73;-2,1;2,08;2,16;2,08;2,16;0;0;
3725;-14,19;-1,78;-14,19;-1,78;2,06;2,15;2,06;2,15;0;0;
3746;-19,31;-6,45;-19,31;-6,45;2,19;2,13;2,19;2,13;0;0;
3764;-18,48;-6,16;-18,48;-6,16;1,87;2,1;1,87;2,1;0;0;
3783;-17,26;-4,51;-17,26;-4,51;2,01;2,16;2,01;2,16;0;0;
3801;-19,67;-3,29;-19,67;-3,29;2,18;2,35;2,18;2,35;0;0;
3818;-19,67;-3,29;-19,67;-3,29;2,25;2,44;2,25;2,44;0;0;
3835;-16,03;-5,68;-16,03;-5,68;2,07;2,38;2,07;2,38;0;0;
3851;-17,8;-12,04;-17,8;-12,04;2,17;2,51;2,17;2,51;0;0;
3868;-17,42;-10,96;-17,42;-10,96;2,25;2,29;2,25;2,29;0;0;
3887;-15,55;-9,06;-15,55;-9,06;2,27;2,22;2,27;2,22;0;0;
3906;-20,59;-2,63;-20,59;-2,63;2,18;2,1;2,18;2,1;0;0;
3927;-18,47;-7,51;-18,47;-7,51;2,36;2,02;2,36;2,02;0;0;
3947;-15,42;-7,33;-15,42;-7,33;2,24;2,22;2,24;2,22;0;0;
3964;-20,8;-7,7;-20,8;-7,7;2,2;2,27;2,2;2,27;0;0;
3982;-19,36;-4,45;-19,36;-4,45;2,04;2,25;2,04;2,25;0;0;
4002;-15,97;-6,21;-15,97;-6,21;2,14;2,25;2,14;2,25;0;0;
4017;-15,97;-6,21;-15,97;-6,21;2,11;2,24;2,11;2,24;0;0;
4034;-19,36;-8,18;-19,36;-8,18;2,25;2,27;2,25;2,27;0;0;
4054;-17,99;-6,68;-17,99;-6,68;2,09;2,22;2,09;2,22;0;0;
4071;-12,98;-7,41;-12,98;-7,41;2,04;2,1;2,04;2,1;0;0;
4092;-13,48;-4,33;-13,48;-4,33;2,2;2,02;2,2;2,02;0;0;
4109;-14,33;-2,12;-14,33;-2,12;2,37;2,11;2,37;2,11;0;0;
4126;-17,59;-7,87;-17,59;-7,87;2,42;2,15;2,42;2,15;0;0;
4147;-17,25;-4,47;-17,25;-4,47;2,39;2,47;2,39;2,47;0;0;
4164;-12,98;-7,17;-12,98;-7,17;2,79;2,25;2,79;2,25;0;0;
4183;-21,3;-9,86;-21,3;-9,86;2,77;2,37;2,77;2,37;0;0;
4200;-16,07;-6,32;-16,07;-6,32;2,48;2,33;2,48;2,33;0;0;
4217;-16,07;-6,32;-16,07;-6,32;2,46;2,27;2,46;2,27;0;0;
4236;-17,21;-7;-17,21;-7;2,4;2,06;2,4;2,06;0;0;
4257;-17,91;-6,44;-17,91;-6,44;2,66;1,95;2,66;1,95;0;0;
4275;-16,26;-10,11;-16,26;-10,11;2,23;2,06;2,23;2,06;0;0;
4292;-17,17;-11,03;-17,17;-11,03;2,12;2,19;2,12;2,19;0;0;
4310;-20,46;-6,31;-20,46;-6,31;2,04;2,39;2,04;2,39;0;0;
4326;-13,58;-4,49;-13,58;-4,49;2,14;2,36;2,14;2,36;0;0;
4345;-19,49;-8,38;-19,49;-8,38;1,9;2,23;1,9;2,23;0;0;
4362;-16,45;-4,09;-16,45;-4,09;1,97;2,31;1,97;2,31;0;0;
4379;-16,25;-10,93;-16,25;-10,93;1,87;2,42;1,87;2,42;0;0;
4397;-16,25;-10,93;-16,25;-10,93;1,76;2,35;1,76;2,35;0;0;
4417;-22,11;-4,98;-22,11;-4,98;1,94;2,11;1,94;2,11;0;0;
4435;-15,27;-5,94;-15,27;-5,94;2,27;2,27;2,27;2,27;0;0;
4457;-15,19;-7,31;-15,19;-7,31;2,11;2,34;2,11;2,34;0;0;
4474;-15,19;-7,31;-15,19;-7,31;1,96;2,3;1,96;2,3;0;0;
4492;-13,01;-3,25;-13,01;-3,25;2,24;2,07;2,24;2,07;0;0;
4512;-18,12;-6,87;-18,12;-6,87;2,38;2,08;2,38;2,08;0;0;
4530;-18,34;-0,76;-18,34;-0,76;2,08;2,15;2,08;2,15;0;0;
4549;-16,83;-6,21;-16,83;-6,21;2,32;2,03;2,32;2,03;0;0;
4570;-15,33;0,19;-15,33;0,19;2,51;2,31;2,51;2,31;0;0;
4587;-14,84;-4,44;-14,84;-4,44;2,58;2,25;2,58;2,25;0;0;
4605;-14,05;-9,18;-14,05;-9,18;2,38;2,27;2,38;2,27;0;0;
4623;-16,94;-9,07;-16,94;-9,07;2,3;2,29;2,3;2,29;0;0;
4639;-20,32;-8,24;-20,32;-8,24;2,29;2,19;2,29;2,19;0;0;
4657;-20,32;-8,24;-20,32;-8,24;2,27;2,04;2,27;2,04;0;0;
4677;-18,44;-11,43;-18,44;-11,43;2,43;2,07;2,43;2,07;0;0;
4695;-16,64;-5,34;-16,64;-5,34;2,27;2,32;2,27;2,32;0;0;
4712;-15,59;-7,51;-15,59;-7,51;2,35;2,42;2,35;2,42;0;0;
4734;-16,25;-1,05;-16,25;-1,05;2,54;2,4;2,54;2,4;0;0;
4754;-12,03;-9,1;-12,03;-9,1;2,63;2,83;2,63;2,83;0;0;
4772;-17,61;-3,76;-17,61;-3,76;2,45;2,74;2,45;2,74;0;0;
4788;-17,07;-6,55;-17,07;-6,55;2,68;2,48;2,68;2,48;0;0;
4807;-20,15;-2,64;-20,15;-2,64;2,84;2,79;2,84;2,79;0;0;
4825;-8,31;0,61;-8,31;0,61;2,79;2,94;2,79;2,94;0;0;
4842;-16,81;-8,87;-16,81;-8,87;2,83;3,09;2,83;3,09;0;0;
4858;-16,81;-8,87;-16,81;-8,87;3,09;3,44;3,09;3,44;0;0;
4877;-17,48;-5,29;-17,48;-5,29;3,19;3,54;3,19;3,54;0;0;
4897;-18,52;-10,79;-18,52;-10,79;3,02;3,12;3,02;3,12;0;0;
4916;-16,8;-3,57;-16,8;-3,57;2,94;3,37;2,94;3,37;0;0;
4935;-13,11;0,37;-13,11;0,37;3,09;3,9;3,09;3,9;0;0;
4951;-10,06;-13,32;-10,06;-13,32;3,78;7,19;3,78;7,19;0;0;
4970;-20,37;5,52;-20,37;5,52;5,28;8,67;5,28;8,67;0;0;
4987;-30,12;-24,96;-30,12;-24,96;6,58;10,06;6,58;10,06;0;0;
5006;-10,75;-46,93;-10,75;-46,93;7,84;13,87;7,84;13,87;0;0;
5023;-20,81;5,99;-20,81;5,99;9,75;15,9;9,75;15,9;0;0;
5039;-12,39;-36,71;-12,39;-36,71;9,9;18,13;9,9;18,13;0;0;
5062;-15,16;-15,37;-15,16;-15,37;9,59;16,82;9,59;16,82;0;0;
5079;-25,3;-3,32;-25,3;-3,32;8,6;18,31;8,6;18,31;0;0;
5096;-25,3;-3,32;-25,3;-3,32;8,05;19,46;8,05;19,46;0;0;
5116;-12,13;-59,24;-12,13;-59,24;7,52;19,31;7,52;19,31;0;0;
5135;-21,61;13,65;-21,61;13,65;6,08;17,34;6,08;17,34;0;0;
5152;-22,94;3,42;-22,94;3,42;6,01;16,86;6,01;16,86;0;0;
5169;-14,25;-10,13;-14,25;-10,13;5,16;17,37;5,16;17,37;0;0;
5186;-9,81;-15,72;-9,81;-15,72;4,55;15,71;4,55;15,71;0;0;
5204;-14,56;-2,87;-14,56;-2,87;4,42;13,51;4,42;13,51;0;0;
5228;-11,58;1,29;-11,58;1,29;3,67;11,35;3,67;11,35;0;0;
5244;-13,13;-6,53;-13,13;-6,53;3,49;11,43;3,49;11,43;0;0;
5262;-19,06;-28,39;-19,06;-28,39;3,1;9,94;3,1;9,94;0;0;
5282;-26,14;2,15;-26,14;2,15;3,68;8,14;3,68;8,14;0;0;
5303;-14,96;-8,09;-14,96;-8,09;4,01;8,09;4,01;8,09;0;0;
5320;-23,97;-15,51;-23,97;-15,51;4;8,27;4;8,27;0;0;
5337;-23,97;-15,51;-23,97;-15,51;4,13;8,25;4,13;8,25;0;0;
5356;-18,76;9,18;-18,76;9,18;4,65;7,07;4,65;7,07;0;0;
5378;-8,32;9,11;-8,32;9,11;4,36;7,68;4,36;7,68;0;1;
5395;-8,32;9,11;-8,32;9,11;4;8,59;4;8,59;0;1;
5415;-12,89;15,9;-12,89;15,9;3,89;8,76;3,89;8,76;0;1;
5432;-14,18;-17,16;-14,18;-17,16;4,11;9,18;4,11;9,18;0;1;
5452;-10,69;10,81;-10,69;10,81;4,12;10,67;4,12;10,67;0;1;
5471;-11,44;-12,29;-11,44;-12,29;4,44;11,11;4,44;11,11;0;1;
5488;-14,5;-10,85;-14,5;-10,85;4,42;10,89;4,42;10,89;0;1;
5509;-16,35;-4,14;-16,35;-4,14;4,6;10,87;4,6;10,87;0;1;
5531;-25,19;12,29;-25,19;12,29;4,29;10,68;4,29;10,68;0;1;
5548;-17,87;-3,89;-17,87;-3,89;4,14;11,79;4,14;11,79;0;1;
5566;-24,24;-10,87;-24,24;-10,87;3,89;11,6;3,89;11,6;0;1;
5584;-17,59;2,46;-17,59;2,46;3,66;12,09;3,66;12,09;0;1;
5602;-15,28;-12,99;-15,28;-12,99;3,56;12,67;3,56;12,67;0;1;
5621;-26,28;0,77;-26,28;0,77;3,66;11,39;3,66;11,39;0;1;
5638;-26,28;0,77;-26,28;0,77;3,79;9,82;3,79;9,82;0;1;
5655;-19,16;-2,07;-19,16;-2,07;3,59;8,23;3,59;8,23;0;1;
5674;-14,11;-13,15;-14,11;-13,15;3,31;8,42;3,31;8,42;0;1;
5695;-11,11;-4,33;-11,11;-4,33;3,56;7,27;3,56;7,27;0;1;
5717;-17,15;-8,86;-17,15;-8,86;3,67;6,67;3,67;6,67;0;0;
5736;-16,08;-8,51;-16,08;-8,51;3,27;6,57;3,27;6,57;0;0;
5753;-10,57;0,72;-10,57;0,72;2,97;5,9;2,97;5,9;0;0;
5772;-16,11;-0,69;-16,11;-0,69;3,02;6,12;3,02;6,12;0;0;
5789;-15,97;-8,69;-15,97;-8,69;3,21;5,78;3,21;5,78;0;0;
5812;-13,33;-8,39;-13,33;-8,39;2,84;5,9;2,84;5,9;0;0;
5831;-6,63;-14,09;-6,63;-14,09;2,69;6,07;2,69;6,07;0;0;
5853;-14,89;-8,72;-14,89;-8,72;2,81;6,24;2,81;6,24;0;0;
5873;-16,7;-10,12;-16,7;-10,12;2,76;6,26;2,76;6,26;0;0;
5892;-19,77;-17,73;-19,77;-17,73;3,01;6,32;3,01;6,32;0;0;
5909;-14,89;-1,17;-14,89;-1,17;3,25;5,77;3,25;5,77;0;0;
5926;-18,23;-2,84;-18,23;-2,84;3,41;5,46;3,41;5,46;0;0;
5945;-19,51;3,05;-19,51;3,05;3,49;5,01;3,49;5,01;0;0;
5961;-14,7;-5,74;-14,7;-5,74;3,31;5,16;3,31;5,16;0;0;
5979;-26,3;-10,2;-26,3;-10,2;3,8;5,01;3,8;5,01;0;0;
5995;-26,3;-10,2;-26,3;-10,2;4,18;4,44;4,18;4,44;0;0;
6017;-15,16;-6,73;-15,16;-6,73;3,61;4,85;3,61;4,85;0;0;
6037;-18,09;-12,68;-18,09;-12,68;3,72;5,35;3,72;5,35;0;0;
6055;-16,79;-17,68;-16,79;-17,68;3,9;5,51;3,9;5,51;0;0;
6075;-18,47;-4,51;-18,47;-4,51;3,87;5,08;3,87;5,08;0;0;
6095;-16,64;-10,15;-16,64;-10,15;3,35;5,58;3,35;5,58;0;0;
6112;-15,26;-8,1;-15,26;-8,1;3,16;5,4;3,16;5,4;0;0;
6130;-18,18;-4,33;-18,18;-4,33;3,36;5,29;3,36;5,29;0;0;
6148;-19,18;2,97;-19,18;2,97;3,3;5,84;3,3;5,84;0;0;
6170;-11,45;-3,69;-11,45;-3,69;3,21;6,23;3,21;6,23;0;0;
6188;-13,67;-1,96;-13,67;-1,96;2,98;6,52;2,98;6,52;0;0;
6205;-15,46;6,12;-15,46;6,12;3,2;6,28;3,2;6,28;0;0;
6224;-15,71;3,28;-15,71;3,28;3,01;6,65;3,01;6,65;0;0;
6242;-15,17;-17,67;-15,17;-17,67;2,85;6,31;2,85;6,31;0;0;
6260;-14,22;3,11;-14,22;3,11;3;5,89;3;5,89;0;0;
6277;-14,22;3,11;-14,22;3,11;3,16;5,21;3,16;5,21;0;0;
6294;-17,28;3,6;-17,28;3,6;3,19;5,17;3,19;5,17;0;0;
6314;-17,45;-4,58;-17,45;-4,58;2,97;5,27;2,97;5,27;0;0;
6335;-15,63;-19,13;-15,63;-19,13;2,76;5,3;2,76;5,3;0;0;
6352;-17,72;0,36;-17,72;0,36;2,87;5,87;2,87;5,87;0;0;
6370;-18,86;-16,12;-18,86;-16,12;2,85;5,89;2,85;5,89;0;0;
6386;-13,28;-4,06;-13,28;-4,06;2,78;5,14;2,78;5,14;0;0;
6405;-16,19;-5,29;-16,19;-5,29;2,52;4,54;2,52;4,54;0;0;
6425;-15,01;-5,58;-15,01;-5,58;2,67;4,24;2,67;4,24;0;0;
6441;-11,86;-9,39;-11,86;-9,39;2,82;3,23;2,82;3,23;0;0;
6458;-11,86;-9,39;-11,86;-9,39;2,66;2,89;2,66;2,89;0;0;
6475;-19,95;-5,54;-19,95;-5,54;2,38;3,02;2,38;3,02;0;0;
6497;-10,22;-5,73;-10,22;-5,73;2,52;3,22;2,52;3,22;0;0;
6515;-20,7;-7,27;-20,7;-7,27;2,61;3,46;2,61;3,46;0;0;
6536;-16,75;-6,45;-16,75;-6,45;2,68;3,63;2,68;3,63;0;0;
6555;-18,79;-12,58;-18,79;-12,58;2,59;3,89;2,59;3,89;0;0;
6574;-19,84;-9,86;-19,84;-9,86;2,57;4,03;2,57;4,03;0;0;
6591;-15;0,18;-15;0,18;2,71;4,02;2,71;4,02;0;0;
6609;-13,6;-2,15;-13,6;-2,15;2,75;3,73;2,75;3,73;0;0;
6626;-12,25;-10,94;-12,25;-10,94;2,6;3,7;2,6;3,7;0;0;
6647;-19,31;1,77;-19,31;1,77;2,79;3,36;2,79;3,36;0;0;
6665;-17,11;-6,99;-17,11;-6,99;2,88;3,42;2,88;3,42;0;0;
6687;-12,36;-14,08;-12,36;-14,08;2,88;3,45;2,88;3,45;0;0;
6706;-13,44;-9,01;-13,44;-9,01;2,6;4,16;2,6;4,16;0;0;
6726;-23,36;0,45;-23,36;0,45;2,7;4,12;2,7;4,12;0;0;
6746;-13,34;-13,15;-13,34;-13,15;2,55;4,29;2,55;4,29;0;0;
6764;-20,96;-1,25;-20,96;-1,25;2,39;3,91;2,39;3,91;0;0;
6783;-18,21;0,39;-18,21;0,39;2,39;3,48;2,39;3,48;0;0;
6805;-16,23;-5,31;-16,23;-5,31;2,48;3,19;2,48;3,19;0;0;
6824;-24,97;-22,76;-24,97;-22,76;3,05;4,77;3,05;4,77;0;0;
6840;-22,46;-19,41;-22,46;-19,41;3,73;7,31;3,73;7,31;0;0;
6858;-15,93;-6,29;-15,93;-6,29;3,86;7,53;3,86;7,53;0;0;
6877;-15,93;-6,29;-15,93;-6,29;4,02;7,84;4,02;7,84;0;0;
6896;-12,56;-12,7;-12,56;-12,7;3,9;8,54;3,9;8,54;0;0;
6916;-16,57;-8,44;-16,57;-8,44;3,71;8,59;3,71;8,59;0;0;
6934;-21,03;-0,86;-21,03;-0,86;2,93;6,46;2,93;6,46;0;0;
6954;-13,28;-5,4;-13,28;-5,4;2,81;4,89;2,81;4,89;0;0;
6973;-12,94;-15,33;-12,94;-15,33;2,71;4,37;2,71;4,37;0;0;
6991;-20,21;4,32;-20,21;4,32;2,96;4,78;2,96;4,78;0;0;
7009;1,42;6,64;1,42;6,64;3,57;4,42;3,57;4,42;0;0;
7025;-27,17;-7,31;-27,17;-7,31;4,02;5,71;4,02;5,71;0;0;
7043;-17,95;-10,39;-17,95;-10,39;3,98;6,15;3,98;6,15;0;0;
7061;-13,35;-3,55;-13,35;-3,55;4,04;6,63;4,04;6,63;0;0;
7077;-13,35;-3,55;-13,35;-3,55;4,15;7,14;4,15;7,14;0;0;
7095;-18,93;-11,84;-18,93;-11,84;4,27;6,46;4,27;6,46;0;0;
7119;-20;-5,48;-20;-5,48;3,53;5,51;3,53;5,51;0;0;
7136;-20;-5,48;-20;-5,48;2,97;4,06;2,97;4,06;0;0;
7154;-20,69;-4,88;-20,69;-4,88;2,94;3,39;2,94;3,39;0;0;
7173;-15,61;-10,26;-15,61;-10,26;2,82;3,44;2,82;3,44;0;0;
7190;-20,13;-6,34;-20,13;-6,34;2,6;3,17;2,6;3,17;0;0;
7207;-11,28;-7,41;-11,28;-7,41;2,65;3,04;2,65;3,04;0;0;
7224;-15,99;-11,3;-15,99;-11,3;2,73;3,44;2,73;3,44;0;0;
7242;-15,07;-5,31;-15,07;-5,31;2,83;3,59;2,83;3,59;0;0;
7259;-16,89;-3,05;-16,89;-3,05;2,82;3,46;2,82;3,46;0;0;
7282;-17,27;-5,36;-17,27;-5,36;2,73;2,88;2,73;2,88;0;0;
7298;-17,27;-5,36;-17,27;-5,36;2,26;2,55;2,26;2,55;0;0;
7315;-12,88;-8,06;-12,88;-8,06;2;2;2;2;0;0;
7336;-19,82;-4,64;-19,82;-4,64;2,2;2,09;2,2;2,09;0;0;
7354;-21,96;-4,7;-21,96;-4,7;2,46;2,19;2,46;2,19;0;0;
7371;-14,73;-4,91;-14,73;-4,91;4,61;2,18;4,61;2,18;0;0;
7388;-18,79;-6,97;-18,79;-6,97;5,26;2,28;5,26;2,28;0;0;
7405;-13,31;-9,02;-13,31;-9,02;5,89;2,25;5,89;2,25;0;0;
7422;-19,33;-7,67;-19,33;-7,67;5,9;2,32;5,9;2,32;0;0;
7442;-22,4;-5,69;-22,4;-5,69;5,94;2,32;5,94;2,32;0;0;
7459;-12,45;-4,4;-12,45;-4,4;5,56;2,64;5,56;2,64;0;0;
7477;-12,45;-4,4;-12,45;-4,4;3,7;2,87;3,7;2,87;0;0;
7496;-9,93;-44,9;-9,93;-44,9;3,34;6,38;3,34;6,38;0;0;
7514;-16,5;-14,85;-16,5;-14,85;3,01;9,97;3,01;9,97;0;0;
7533;-12,45;-0,06;-12,45;-0,06;3,05;10,28;3,05;10,28;0;0;
7551;-17,57;-8,11;-17,57;-8,11;3,2;10,86;3,2;10,86;0;0;
7569;-18,1;-0,77;-18,1;-0,77;2,93;10,74;2,93;10,74;0;0;
7586;-18,76;-8,91;-18,76;-8,91;2,82;9,76;2,82;9,76;0;0;
7615;-21,35;2,57;-21,35;2,57;3,01;7,22;3,01;7,22;0;0;
7632;-16,71;-7,01;-16,71;-7,01;3,11;6,46;3,11;6,46;0;0;
7649;-18,98;2,36;-18,98;2,36;2,87;6,68;2,87;6,68;0;0;
7666;-18,94;-3,96;-18,94;-3,96;2,94;6,74;2,94;6,74;0;0;
7683;-13,43;-7,07;-13,43;-7,07;2,99;6,71;2,99;6,71;0;0;
7702;-15,57;-3,99;-15,57;-3,99;2,84;5,76;2,84;5,76;0;0;
7724;-16,64;-2,98;-16,64;-2,98;2,22;3,39;2,22;3,39;0;0;
7743;-21,29;0,06;-21,29;0,06;2,3;3,43;2,3;3,43;0;0;
7765;-15,7;-10,92;-15,7;-10,92;2,87;4,27;2,87;4,27;0;0;
7785;-3,21;-5,13;-3,21;-5,13;3,71;5,48;3,71;5,48;0;1;
7802;-15,68;36,62;-15,68;36,62;3,94;8,47;3,94;8,47;0;1;
7819;-7,49;-96,69;-7,49;-96,69;5,04;12,99;5,04;12,99;0;1;
7836;-7,49;-96,69;-7,49;-96,69;6,19;17,17;6,19;17,17;0;1;
7853;6,77;20,9;6,77;20,9;8,1;21,18;8,1;21,18;0;1;
7871;-14,92;35,48;-14,92;35,48;8,32;23,9;8,32;23,9;0;1;
7889;-14,92;35,48;-14,92;35,48;8,42;26,31;8,42;26,31;0;1;
7908;-20,44;-29,92;-20,44;-29,92;8,39;24,76;8,39;24,76;0;1;
7931;-5,61;86,97;-5,61;86,97;10,14;24,74;10,14;24,74;0;1;
7949;-17,73;-13,7;-17,73;-13,7;9,74;24,49;9,74;24,49;0;1;
7966;-15,56;23,75;-15,56;23,75;8,35;20,84;8,35;20,84;0;1;
7983;-20,61;13,23;-20,61;13,23;7,82;18,2;7,82;18,2;0;1;
8002;-8,12;-21,06;-8,12;-21,06;7,96;17,32;7,96;17,32;0;1;
8021;-10,34;14,86;-10,34;14,86;7,42;17,65;7,42;17,65;0;1;
8037;-10,34;14,86;-10,34;14,86;5,63;14,7;5,63;14,7;0;1;
8053;-18,96;-11,64;-18,96;-11,64;5,11;14,45;5,11;14,45;0;1;
8074;-17;15,04;-17;15,04;5,01;14,23;5,01;14,23;0;1;
8096;-18,46;-10,61;-18,46;-10,61;4,59;13,5;4,59;13,5;0;1;
8113;-16,44;0,22;-16,44;0,22;4,04;11,98;4,04;11,98;0;1;
8131;-12,12;11,58;-12,12;11,58;3,79;10,28;3,79;10,28;0;0;
8149;-13,55;-0,97;-13,55;-0,97;3,48;8,77;3,48;8,77;0;0;
8169;-11,12;-6,69;-11,12;-6,69;3,26;7,45;3,26;7,45;0;0;
8185;-25,5;-6,41;-25,5;-6,41;3,81;5,31;3,81;5,31;0;0;
8203;-87,25;-7,25;-87,25;-7,25;6,83;4,72;6,83;4,72;0;0;
8224;12,16;-5,83;12,16;-5,83;13,87;4,14;13,87;4,14;0;0;
8240;12,16;-5,83;12,16;-5,83;20,91;2,65;20,91;2,65;0;0;
8263;53,39;-17,7;53,39;-17,7;26,15;2,6;26,15;2,6;0;0;
8283;27,99;-10,71;27,99;-10,71;38,81;2,79;38,81;2,79;0;0;
8302;18,62;-4,8;18,62;-4,8;43,31;2,69;43,31;2,69;0;0;
8321;-58,43;0,93;-58,43;0,93;46,38;3,23;46,38;3,23;0;0;
8342;-58,74;-2,04;-58,74;-2,04;45,69;3,77;45,69;3,77;0;0;
8358;-58,74;-2,04;-58,74;-2,04;47,51;4,26;47,51;4,26;0;0;
8377;61,07;-38,78;61,07;-38,78;43,85;16,97;43,85;16,97;0;0;
8396;-187,69;10,89;-187,69;10,89;52,79;18,77;52,79;18,77;0;0;
8415;47,36;8,83;47,36;8,83;52,75;21,26;52,75;21,26;0;0;
8433;-194,46;-0,9;-194,46;-0,9;58,87;21,55;58,87;21,55;0;0;
8454;3,8;-11,07;3,8;-11,07;73,43;22,91;73,43;22,91;0;0;
8472;-77,25;-2,76;-77,25;-2,76;75,42;19,26;75,42;19,26;0;0;
8488;-29,12;45,46;-29,12;45,46;72,31;22,51;72,31;22,51;0;0;
8504;22,29;-10,59;22,29;-10,59;67,89;25,79;67,89;25,79;0;0;
8521;111,49;-8,5;111,49;-8,5;68,25;24,2;68,25;24,2;1;0;
8540;-182,12;-0,39;-182,12;-0,39;65,64;24,55;65,64;24,55;1;0;
8557;-182,12;-0,39;-182,12;-0,39;59,24;23,42;59,24;23,42;1;0;
8578;-90,11;2,33;-90,11;2,33;57,08;14,78;57,08;14,78;1;0;
8594;-143,64;-8,21;-143,64;-8,21;62,1;7,71;62,1;7,71;1;0;
8612;-94,69;-3,69;-94,69;-3,69;61,7;6,49;61,7;6,49;1;0;
8629;-18,14;2,99;-18,14;2,99;53,15;6,31;53,15;6,31;1;0;
8647;23,54;-13,47;23,54;-13,47;48,74;5,88;48,74;5,88;1;0;
8665;-26,45;-11,54;-26,45;-11,54;44,42;5,24;44,42;5,24;1;0;
8683;8,93;-8,29;8,93;-8,29;41,88;4,38;41,88;4,38;1;0;
8701;8,12;0,36;8,12;0,36;36,72;4,7;36,72;4,7;1;0;
8724;-25,4;-3,58;-25,4;-3,58;37,35;4;37,35;4;1;0;
8747;82,4;-2,09;82,4;-2,09;35,67;3,61;35,67;3,61;1;0;
8765;81,9;-4,59;81,9;-4,59;47,72;3,71;47,72;3,71;1;0;
8783;-38,43;0,06;-38,43;0,06;48,58;3,57;48,58;3,57;1;0;
8802;-76,02;-4,52;-76,02;-4,52;55,04;3,4;55,04;3,4;1;0;
8820;17,23;0,1;17,23;0,1;54,52;3,38;54,52;3,38;1;0;
8837;17,23;0,1;17,23;0,1;55,14;3,65;55,14;3,65;1;0;
8854;-8,58;-5,33;-8,58;-5,33;47,62;3,67;47,62;3,67;1;0;
8871;110,92;-5,25;110,92;-5,25;46,79;3,63;46,79;3,63;0;0;
8888;-135,03;-0,19;-135,03;-0,19;51,27;4,01;51,27;4,01;0;0;
8910;-62,9;-2,37;-62,9;-2,37;50,81;4,19;50,81;4,19;0;0;
8930;67,21;-13,24;67,21;-13,24;52,15;4,48;52,15;4,48;0;0;
8949;-5;-14,66;-5;-14,66;56,78;4,51;56,78;4,51;0;0;
8970;-25,66;-0,6;-25,66;-0,6;57,43;5,01;57,43;5,01;0;0;
8987;-242,3;-13,88;-242,3;-13,88;57,64;4,79;57,64;4,79;0;0;
9004;-49,48;-10,21;-49,48;-10,21;62,61;4,69;62,61;4,69;0;0;
9023;-50,43;-10,41;-50,43;-10,41;66,15;4,41;66,15;4,41;0;0;
9040;-19,59;-5,26;-19,59;-5,26;63,31;4,04;63,31;4,04;0;0;
9063;-4,36;-7,59;-4,36;-7,59;58,83;3,54;58,83;3,54;0;0;
9083;-21,58;-3,48;-21,58;-3,48;39,63;3,21;39,63;3,21;0;0;
9102;-9,86;-1,75;-9,86;-1,75;28,86;3,08;28,86;3,08;0;0;
9119;-85,97;-9,63;-85,97;-9,63;28,11;2,76;28,11;2,76;0;0;
9139;41,08;-5,7;41,08;-5,7;22,67;2,59;22,67;2,59;0;0;
9156;41,08;-5,7;41,08;-5,7;26,78;2,52;26,78;2,52;0;0;
9174;-15,53;-14,11;-15,53;-14,11;25,71;2,72;25,71;2,72;0;0;
9190;-22,01;-7,72;-22,01;-7,72;25,47;2,88;25,47;2,88;0;0;
9213;44,43;-4,69;44,43;-4,69;33,43;3,02;33,43;3,02;0;0;
9233;-32,43;-7,5;-32,43;-7,5;30,6;2,86;30,6;2,86;0;0;
9251;-76,01;-4,57;-76,01;-4,57;36,19;2,89;36,19;2,89;0;0;
9268;16,62;-4,33;16,62;-4,33;38,75;2,93;38,75;2,93;0;0;
9285;-17,11;-4,78;-17,11;-4,78;40,93;2,76;40,93;2,76;0;0;
9302;-6,69;-10,48;-6,69;-10,48;36,2;2,95;36,2;2,95;0;0;
9319;4,46;1,67;4,46;1,67;27,8;3,1;27,8;3,1;0;0;
9337;4,46;1,67;4,46;1,67;21,38;3,23;21,38;3,23;0;0;
9354;-15,36;-5,74;-15,36;-5,74;24,46;4,01;24,46;4,01;0;0;
9374;4,01;0,75;4,01;0,75;20,18;4,18;20,18;4,18;0;0;
9396;-49,92;-0,16;-49,92;-0,16;24,19;4,45;24,19;4,45;0;0;
9415;-15,22;-18,04;-15,22;-18,04;24,2;6,23;24,2;6,23;0;0;
9435;-18,3;16,63;-18,3;16,63;23,48;7,76;23,48;7,76;0;0;
9454;-23,65;-9,12;-23,65;-9,12;17,34;7,13;17,34;7,13;0;0;
9471;-29,22;-3,74;-29,22;-3,74;11,92;6,95;11,92;6,95;0;0;
9488;56,87;-8,09;56,87;-8,09;16,99;7,51;16,99;7,51;0;0;
9506;-23,41;-6,15;-23,41;-6,15;19,45;7,68;19,45;7,68;0;0;
9524;-16,36;-5,04;-16,36;-5,04;19,2;5,24;19,2;5,24;0;0;
9547;-16,59;-4,42;-16,59;-4,42;18,71;3,65;18,71;3,65;0;0;
9565;-13,99;-14,18;-13,99;-14,18;16,96;3,9;16,96;3,9;0;0;
9584;-5,06;-7,28;-5,06;-7,28;19,18;4,29;19,18;4,29;0;0;
9603;-39,74;-6,43;-39,74;-6,43;12,86;3,47;12,86;3,47;0;0;
9622;-11,95;-2,63;-11,95;-2,63;13,5;3,26;13,5;3,26;0;0;
9637;-11,95;-2,63;-11,95;-2,63;15,54;3,25;15,54;3,25;0;0;
9656;-17,5;-11,1;-17,5;-11,1;15,64;3,42;15,64;3,42;0;0;
9674;-16,72;-9,29;-16,72;-9,29;14,17;3,18;14,17;3,18;0;0;
9695;-18,8;-3,76;-18,8;-3,76;8,86;3,11;8,86;3,11;0;0;
9714;-16,87;-6,81;-16,87;-6,81;4,6;3,31;4,6;3,31;1;0;
9731;-16,72;-8,62;-16,72;-8,62;2,59;3,25;2,59;3,25;1;0;
9749;-22,44;-6,68;-22,44;-6,68;2,56;3,29;2,56;3,29;1;0;
9766;-3,91;-8,69;-3,91;-8,69;9,75;2,72;9,75;2,72;1;0;
9784;-10,36;-4,22;-10,36;-4,22;13,35;2,52;13,35;2,52;1;0;
9804;-16,61;-5,73;-16,61;-5,73;13,51;2,02;13,51;2,02;1;0;
9821;-16,44;-11,55;-16,44;-11,55;13,75;2,09;13,75;2,09;1;0;
9839;-25,17;-9,97;-25,17;-9,97;13,69;2,12;13,69;2,12;1;0;
9862;-70,29;-3,8;-70,29;-3,8;16,43;2,28;16,43;2,28;1;0;
9878;62,87;-1,44;62,87;-1,44;20,61;2,42;20,61;2,42;1;0;
9897;62,87;-1,44;62,87;-1,44;29,42;2,35;29,42;2,35;1;0;
9913;-54,17;1,33;-54,17;1,33;35,44;2,62;35,44;2,62;1;0;
9932;84,6;-2,71;84,6;-2,71;54,52;3,41;54,52;3,41;1;0;
9954;-16,29;-10,47;-16,29;-10,47;56,32;3,11;56,32;3,11;0;0;
9975;-9,67;-5,2;-9,67;-5,2;53,39;3,34;53,39;3,34;0;0;
9993;1,35;5,05;1,35;5,05;52,29;3,76;52,29;3,76;0;0;
10016;40,42;-7,13;40,42;-7,13;63,97;3,54;63,97;3,54;0;0;
10035;105,33;-1,25;105,33;-1,25;60,83;3,25;60,83;3,25;0;0;
10052;0,39;-8,4;0,39;-8,4;54,67;3,17;54,67;3,17;0;0;
10071;26,55;-4,4;26,55;-4,4;55,9;3,67;55,9;3,67;0;0;
10088;-68,36;5,01;-68,36;5,01;63,39;3,62;63,39;3,62;0;0;
10106;27,01;-10,16;27,01;-10,16;57,33;3,91;57,33;3,91;0;0;
10122;-130,09;-10,23;-130,09;-10,23;59,28;4,32;59,28;4,32;0;0;
10141;-14,94;-4,92;-14,94;-4,92;60,15;4,11;60,15;4,11;0;0;
10159;-14,34;-1,34;-14,34;-1,34;60,34;3,96;60,34;3,96;0;0;
10180;-20,77;1,27;-20,77;1,27;55,34;3,95;55,34;3,95;0;0;
10195;-20,77;1,27;-20,77;1,27;49,91;4,26;49,91;4,26;0;0;
10214;79,37;-6,6;79,37;-6,6;48,25;4,01;48,25;4,01;0;0;
10231;37,88;-12,19;37,88;-12,19;43,71;3,83;43,71;3,83;0;0;
10249;103,22;-4,73;103,22;-4,73;48,56;4,07;48,56;4,07;0;0;
10267;42,91;-4,88;42,91;-4,88;61,3;3,67;61,3;3,67;0;0;
10286;-83,02;-9,39;-83,02;-9,39;60,25;3,32;60,25;3,32;0;0;
10305;82,92;-8,76;82,92;-8,76;62,96;3,13;62,96;3,13;0;0;
10324;-44,63;0,47;-44,63;0,47;63,54;3,1;63,54;3,1;0;0;
10346;-42,91;-3,44;-42,91;-3,44;57,89;2,81;57,89;2,81;0;0;
10366;-94,78;-6,42;-94,78;-6,42;58,02;2,9;58,02;2,9;0;0;
10383;-24,59;-7,81;-24,59;-7,81;52,58;3,09;52,58;3,09;0;0;
10400;-24,59;-7,81;-24,59;-7,81;50,44;3,03;50,44;3,03;0;0;
10417;-24,59;-7,81;-24,59;-7,81;48,07;3,16;48,07;3,16;0;0;
10434;-7,1;-6,93;-7,1;-6,93;44,2;3,32;44,2;3,32;0;0;
10455;-37,26;-5,1;-37,26;-5,1;43,75;3,3;43,75;3,3;0;0;
10473;-4,34;-6,54;-4,34;-6,54;36,23;3,16;36,23;3,16;0;0;
10491;-14,18;-6,6;-14,18;-6,6;31,89;3,37;31,89;3,37;0;0;
10512;-16,26;-2,95;-16,26;-2,95;26,13;3,33;26,13;3,33;0;0;
10530;-16,5;-9,58;-16,5;-9,58;20,33;3,18;20,33;3,18;0;0;
10547;-14,84;-13,73;-14,84;-13,73;14,65;3,07;14,65;3,07;0;0;
10566;32,55;-9,44;32,55;-9,44;12,45;3,6;12,45;3,6;0;0;
10583;11,77;-3,66;11,77;-3,66;11,26;3,43;11,26;3,43;0;0;
10600;-15,47;-11,73;-15,47;-11,73;13,01;3,76;13,01;3,76;0;0;
10619;-15,91;-3,76;-15,91;-3,76;13,05;3,77;13,05;3,77;0;0;
10635;-15,91;-3,76;-15,91;-3,76;13,73;4,02;13,73;4,02;0;0;
10653;-15,59;-7,41;-15,59;-7,41;18,88;3,85;18,88;3,85;0;0;
10675;-24,98;-3,62;-24,98;-3,62;16,21;3,71;16,21;3,71;0;0;
10693;-16,79;-10,3;-16,79;-10,3;13,71;3,75;13,71;3,75;0;0;
10711;-16,48;-9,36;-16,48;-9,36;11,26;3,48;11,26;3,48;0;0;
10731;-15,36;-11,71;-15,36;-11,71;10,45;3,51;10,45;3,51;0;0;
10749;-13,16;-3,64;-13,16;-3,64;6,03;3,82;6,03;3,82;0;0;
10766;-24,61;-8,37;-24,61;-8,37;2,6;3,84;2,6;3,84;0;0;
10789;-51,43;-1,91;-51,43;-1,91;5,7;3,91;5,7;3,91;0;0;
10806;-3,24;-6,57;-3,24;-6,57;8,1;3,99;8,1;3,99;0;0;
10828;-13,4;2,91;-13,4;2,91;8,67;4,02;8,67;4,02;0;0;
10845;-17,43;-7,41;-17,43;-7,41;8,52;3,75;8,52;3,75;0;0;
10864;-24,52;-5,5;-24,52;-5,5;8,8;2,87;8,8;2,87;0;0;
10881;-11,26;0,95;-11,26;0,95;7,96;2,64;7,96;2,64;0;0;
10899;-16,74;-6,9;-16,74;-6,9;5,05;2,71;5,05;2,71;0;0;
10919;-43,62;-12,1;-43,62;-12,1;4,52;2,79;4,52;2,79;0;0;
10938;-43,62;-12,1;-43,62;-12,1;5,04;2,71;5,04;2,71;0;0;
10955;-7,59;-2,11;-7,59;-2,11;6,33;2,72;6,33;2,72;0;0;
10975;-18,42;-9,6;-18,42;-9,6;5,14;2,86;5,14;2,86;0;0;
10995;-18,42;-9,6;-18,42;-9,6;4,56;2,75;4,56;2,75;0;0;
11012;-17;-6,38;-17;-6,38;4,43;2,83;4,43;2,83;0;0;
11028;-13,55;-5,95;-13,55;-5,95;4,05;2,86;4,05;2,86;0;0;
11045;-20,4;-5,05;-20,4;-5,05;2,69;2,82;2,69;2,82;0;0;
11064;-1,16;-11,42;-1,16;-11,42;3,82;2,95;3,82;2,95;0;0;
11081;-2,1;-6,09;-2,1;-6,09;8,25;2,91;8,25;2,91;0;0;
11098;-78,38;-8,46;-78,38;-8,46;14,05;2,79;14,05;2,79;0;0;
11115;-78,38;-8,46;-78,38;-8,46;20,01;2,54;20,01;2,54;0;0;
11132;16,2;-6,69;16,2;-6,69;25,77;2,81;25,77;2,81;0;0;
11156;-87,87;-7,61;-87,87;-7,61;33,63;3,12;33,63;3,12;0;0;
11174;46,29;-4,15;46,29;-4,15;38,21;3,14;38,21;3,14;0;0;
11190;-124,48;-7,84;-124,48;-7,84;45,31;3,4;45,31;3,4;0;0;
11207;-51,06;-12,55;-51,06;-12,55;48,53;3,75;48,53;3,75;0;0;
11225;-55,24;-5,9;-55,24;-5,9;46,92;3,62;46,92;3,62;0;0;
11242;-24,92;-1,13;-24,92;-1,13;47,94;3,41;47,94;3,41;0;0;
11260;-94,06;-5,54;-94,06;-5,54;53,75;3,35;53,75;3,35;0;0;
11280;-37,51;5,76;-37,51;5,76;60,12;4;60,12;4;0;0;
11297;-37,51;5,76;-37,51;5,76;63,43;4,3;63,43;4,3;0;0;
11318;-95,7;-1,81;-95,7;-1,81;67,29;4,3;67,29;4,3;0;0;
11336;-52,43;-8;-52,43;-8;70,29;4,29;70,29;4,29;0;0;
11354;-32,87;-1,56;-32,87;-1,56;65,63;4,49;65,63;4,49;0;0;
11372;-26,59;-10,95;-26,59;-10,95;52,14;4,29;52,14;4,29;0;0;
11391;120,58;-9,2;120,58;-9,2;52,18;3,85;52,18;3,85;0;0;
11410;-18,14;-1,05;-18,14;-1,05;44,17;3,56;44,17;3,56;0;0;
11428;0,85;-9,67;0,85;-9,67;39,81;3,6;39,81;3,6;0;0;
11447;-38,13;5,98;-38,13;5,98;41,51;3,69;41,51;3,69;0;0;
11468;-2,82;1,72;-2,82;1,72;46,87;3,55;46,87;3,55;0;0;
11489;14,47;-1,8;14,47;-1,8;48,99;3,56;48,99;3,56;0;0;
11508;-53,33;-8,85;-53,33;-8,85;58,55;2,94;58,55;2,94;0;0;
11525;-59,57;-4,28;-59,57;-4,28;63,69;2,69;63,69;2,69;0;0;
11543;101,92;-6,15;101,92;-6,15;63,37;2,58;63,37;2,58;0;0;
11563;63,85;-10,38;63,85;-10,38;64,75;2,74;64,75;2,74;1;0;
11584;-211,21;-9,44;-211,21;-9,44;62,36;3;62,36;3;1;0;
11601;-36,65;5,46;-36,65;5,46;65,39;3,56;65,39;3,56;1;0;
11623;-55,9;-9,34;-55,9;-9,34;51,16;4,08;51,16;4,08;1;0;
11638;-55,9;-9,34;-55,9;-9,34;53,03;4,32;53,03;4,32;1;0;
11656;23,29;-7,89;23,29;-7,89;58,59;4,46;58,59;4,46;1;0;
11673;-10,58;7,48;-10,58;7,48;52,4;4,51;52,4;4,51;1;0;
11690;-148,54;-7,66;-148,54;-7,66;47,1;5,22;47,1;5,22;1;0;
11707;-53,92;-12,08;-53,92;-12,08;55,99;4,78;55,99;4,78;1;0;
11725;86,31;-1,66;86,31;-1,66;56,21;4,81;56,21;4,81;1;0;
11743;-51,3;-10,85;-51,3;-10,85;56,67;4,69;56,67;4,69;1;0;
11762;-8,66;-8,25;-8,66;-8,25;54,92;4,93;54,92;4,93;1;0;
11784;-88,53;-5,72;-88,53;-5,72;61,79;3,92;61,79;3,92;1;0;
11801;87,72;-4,73;87,72;-4,73;61,07;4,23;61,07;4,23;1;0;
11819;-74,2;-11,85;-74,2;-11,85;60,23;4,37;60,23;4,37;1;0;
11835;-74,2;-11,85;-74,2;-11,85;57,67;4,79;57,67;4,79;1;0;
11852;79,72;-3,09;79,72;-3,09;58,68;5,02;58,68;5,02;1;0;
11871;74,02;-6,75;74,02;-6,75;58,79;5,45;58,79;5,45;1;0;
11891;-14,71;-9,54;-14,71;-9,54;60,34;5,39;60,34;5,39;1;0;
11907;-78,9;-10,97;-78,9;-10,97;61,24;5,52;61,24;5,52;1;0;
11924;-42,34;-6,44;-42,34;-6,44;60,2;5,11;60,2;5,11;0;0;
11946;-63,67;-5,73;-63,67;-5,73;58,47;4,78;58,47;4,78;0;0;
11964;-11,31;-7,25;-11,31;-7,25;54,87;4,26;54,87;4,26;0;0;
11981;-11,31;-7,25;-11,31;-7,25;46,37;3,91;46,37;3,91;0;0;
11998;-11,31;-7,25;-11,31;-7,25;39,1;3,32;39,1;3,32;0;0;
12018;-17,51;-3,78;-17,51;-3,78;24,57;2,66;24,57;2,66;0;0;
12035;-18,77;-7,7;-18,77;-7,7;15,11;2,59;15,11;2,59;0;0;
12052;-17,73;-5,5;-17,73;-5,5;9,45;2,15;9,45;2,15;0;0;
12073;-18,19;-7,62;-18,19;-7,62;6,42;2,63;6,42;2,63;0;0;
12091;-16,39;-6,44;-16,39;-6,44;3,34;2,79;3,34;2,79;0;0;
12113;-45,34;-12,75;-45,34;-12,75;5,09;3,31;5,09;3,31;0;0;
12133;-13,22;-8,04;-13,22;-8,04;6,06;3,35;6,06;3,35;0;0;
12151;-14,22;-9,09;-14,22;-9,09;6,03;3,4;6,03;3,4;0;0;
12170;-19,25;-4,38;-19,25;-4,38;5,92;3,3;5,92;3,3;0;0;
12189;-17,95;-9,67;-17,95;-9,67;6,09;2,75;6,09;2,75;0;0;
12206;-21,02;-5,3;-21,02;-5,3;5,75;2,85;5,75;2,85;0;0;
12224;-15,13;-3,17;-15,13;-3,17;3,26;2,54;3,26;2,54;0;0;
12240;-13,22;-5,95;-13,22;-5,95;2,63;2,63;2,63;2,63;0;0;
12258;-13,22;-5,95;-13,22;-5,95;2,73;2,78;2,73;2,78;0;0;
12280;-18,68;-3,77;-18,68;-3,77;2,93;2,7;2,93;2,7;0;0;
12296;-18,68;-3,77;-18,68;-3,77;2,67;2,58;2,67;2,58;0;0;
12313;-23,07;-10,54;-23,07;-10,54;2,54;2,5;2,54;2,5;0;0;
12330;-17,28;-10,08;-17,28;-10,08;2,62;2,36;2,62;2,36;0;0;
12346;-17,28;-10,08;-17,28;-10,08;2,57;2,13;2,57;2,13;0;0;
12370;-20,05;-7,27;-20,05;-7,27;2,67;2,07;2,67;2,07;0;0;
12389;-21,25;-7,5;-21,25;-7,5;3,97;1,99;3,97;1,99;0;0;
12406;-33,9;-1,88;-33,9;-1,88;4,75;2,05;4,75;2,05;0;0;
12426;-21,28;-3,72;-21,28;-3,72;5,37;2,27;5,37;2,27;0;0;
12447;-14,95;-6,42;-14,95;-6,42;6,94;2,18;6,94;2,18;0;0;
12466;-2,07;-1,71;-2,07;-1,71;9,87;2,26;9,87;2,26;0;0;
12483;40,39;0,3;40,39;0,3;14,8;2,53;14,8;2,53;0;0;
12502;-1,83;1,65;-1,83;1,65;18,32;2,84;18,32;2,84;0;0;
12516;-1,83;1,65;-1,83;1,65;21,63;2,98;21,63;2,98;0;0;
12535;-16,93;-7,62;-16,93;-7,62;29,3;3,23;29,3;3,23;0;0;
12552;-62,8;0,84;-62,8;0,84;33,94;4,15;33,94;4,15;0;0;
12570;-45,35;-5,14;-45,35;-5,14;44,5;4,01;44,5;4,01;0;0;
12588;-45,35;-5,14;-45,35;-5,14;50,32;3,76;50,32;3,76;0;0;
12611;-65,1;-3,15;-65,1;-3,15;56,17;4,12;56,17;4,12;0;0;
12629;-26,65;-2,51;-26,65;-2,51;63,92;4,1;63,92;4,1;0;0;
12645;29,77;-11,87;29,77;-11,87;61,84;3,98;61,84;3,98;0;0;
12662;-107,23;-6,51;-107,23;-6,51;60;3,84;60;3,84;0;0;
12678;-107,23;-6,51;-107,23;-6,51;55,96;4,38;55,96;4,38;0;0;
12695;-118,53;-6,92;-118,53;-6,92;55,45;4,54;55,45;4,54;0;0;
12714;-80,94;-3,02;-80,94;-3,02;51,6;4,17;51,6;4,17;0;0;
12734;-10,45;0,93;-10,45;0,93;54,57;4,68;54,57;4,68;0;0;
12751;48,09;-16,86;48,09;-16,86;51,6;4,33;51,6;4,33;0;0;
12773;58,16;-12,89;58,16;-12,89;57,98;4,33;57,98;4,33;0;0;
12793;-12,62;-10,72;-12,62;-10,72;51,05;3,86;51,05;3,86;0;0;
12811;-50,69;-3,47;-50,69;-3,47;47,86;3,98;47,86;3,98;0;0;
12826;39,5;-7,9;39,5;-7,9;45,72;3,76;45,72;3,76;0;0;
12844;-96,24;-7,69;-96,24;-7,69;46,32;3,5;46,32;3,5;0;0;
12861;-4,6;-5,54;-4,6;-5,54;46,64;3,51;46,64;3,51;0;0;
12878;-4,6;-5,54;-4,6;-5,54;44,56;3,36;44,56;3,36;0;0;
12894;95,73;-8,83;95,73;-8,83;54,07;3,41;54,07;3,41;0;0;
12911;-45,17;0,92;-45,17;0,92;51,42;3,72;51,42;3,72;0;0;
12932;47,77;-7,99;47,77;-7,99;50,57;4,3;50,57;4,3;0;0;
12950;21,8;-10,78;21,8;-10,78;50,34;4,4;50,34;4,4;0;0;
12967;-14,47;-5,16;-14,47;-5,16;51,38;4,31;51,38;4,31;0;0;
12985;-68,46;-18,83;-68,46;-18,83;46,02;4,54;46,02;4,54;0;0;
13002;83,82;-5,67;83,82;-5,67;40,83;4,25;40,83;4,25;0;0;
13021;169,96;-5,35;169,96;-5,35;53,18;4,07;53,18;4,07;0;0;
13037;169,96;-5,35;169,96;-5,35;63,75;3,65;63,75;3,65;0;0;
13056;-11,02;-11,18;-11,02;-11,18;70,96;3,71;70,96;3,71;0;0;
13074;-3,17;-6,69;-3,17;-6,69;73,28;3,57;73,28;3,57;0;0;
13095;-71,66;-15,42;-71,66;-15,42;78,54;3,44;78,54;3,44;0;0;
13112;0,48;-0,02;0,48;-0,02;86,35;3,74;86,35;3,74;0;0;
13129;-162,94;-1,33;-162,94;-1,33;77,92;3,72;77,92;3,72;0;0;
13146;-28,64;-3,53;-28,64;-3,53;65,41;3,44;65,41;3,44;0;0;
13163;-26,51;-4,25;-26,51;-4,25;59,18;3,57;59,18;3,57;0;0;
13180;72,2;-7,83;72,2;-7,83;60,12;3,54;60,12;3,54;0;0;
13200;-49,98;-5,55;-49,98;-5,55;53,17;3,39;53,17;3,39;0;0;
13217;-49,98;-5,55;-49,98;-5,55;52,73;3,18;52,73;3,18;0;0;
13236;-75,77;-11,96;-75,77;-11,96;53,77;2,98;53,77;2,98;0;0;
13256;-138,01;-5,45;-138,01;-5,45;58,22;2,81;58,22;2,81;0;0;
13273;17,16;-1,68;17,16;-1,68;59,34;2,76;59,34;2,76;0;0;
13291;8,7;-1,28;8,7;-1,28;54,32;2,85;54,32;2,85;0;0;
13309;81,64;-1,26;81,64;-1,26;51,01;3,38;51,01;3,38;0;0;
13325;121,26;-5,44;121,26;-5,44;60,55;3,32;60,55;3,32;0;0;
13343;57,7;-1,19;57,7;-1,19;61,49;3,48;61,49;3,48;0;0;
13361;-52,9;-1,18;-52,9;-1,18;54,56;3,67;54,56;3,67;0;0;
13379;26,97;-5,53;26,97;-5,53;61,16;3,76;61,16;3,76;0;0;
13395;26,97;-5,53;26,97;-5,53;62,32;3,7;62,32;3,7;0;0;
13417;14,43;-2,49;14,43;-2,49;56,5;3,1;56,5;3,1;0;0;
13433;-10,34;-8,04;-10,34;-8,04;42,61;2,95;42,61;2,95;0;0;
13453;-11,78;-5,91;-11,78;-5,91;33;2,59;33;2,59;0;0;
13471;-17,86;-2,89;-17,86;-2,89;27,43;2,4;27,43;2,4;1;0;
13489;-20,81;-6,43;-20,81;-6,43;17,16;2,13;17,16;2,13;1;0;
13506;-20,61;-5,34;-20,61;-5,34;6,64;1,96;6,64;1,96;1;0;
13522;-23,66;-3,13;-23,66;-3,13;3,3;2,1;3,3;2,1;1;0;
13541;-14,04;-4,7;-14,04;-4,7;2,79;2,03;2,79;2,03;1;0;
13559;39,97;0,19;39,97;0,19;3,97;2,3;3,97;2,3;1;0;
13580;-13,06;-2,61;-13,06;-2,61;8,12;2,22;8,12;2,22;1;0;
13598;-13,06;-2,61;-13,06;-2,61;12,07;2,39;12,07;2,39;1;0;
13616;65,56;-1,06;65,56;-1,06;21,33;2,73;21,33;2,73;1;0;
13636;54,93;-3,8;54,93;-3,8;27,74;2,8;27,74;2,8;1;0;
13653;-12,67;-7,67;-12,67;-7,67;31,68;2,99;31,68;2,99;1;0;
13671;-39;-7,63;-39;-7,63;30,43;2,76;30,43;2,76;1;0;
13690;-14,82;-5,09;-14,82;-5,09;26,59;2,8;26,59;2,8;1;0;
13709;-14,82;-5,09;-14,82;-5,09;22,82;2,67;22,82;2,67;1;0;
13726;-18,23;-5,33;-18,23;-5,33;12,48;2,57;12,48;2,57;1;0;
13747;-32,77;2,62;-32,77;2,62;7,63;3,94;7,63;3,94;1;0;
13763;-15,75;-6,76;-15,75;-6,76;6,56;4,23;6,56;4,23;1;0;
13780;-21,61;-15,63;-21,61;-15,63;4,33;5,17;4,33;5,17;1;0;
13797;-21,61;-15,63;-21,61;-15,63;4,03;6,06;4,03;6,06;1;0;
13817;-16,99;-3,91;-16,99;-3,91;4,11;6,03;4,11;6,03;1;0;
13833;-17,63;-7,39;-17,63;-7,39;3,62;5,84;3,62;5,84;0;0;
13849;-16,59;-7,2;-16,59;-7,2;2,84;4,39;2,84;4,39;0;0;
13869;-14,03;-4,73;-14,03;-4,73;2,32;4,07;2,32;4,07;0;0;
13888;-20,01;-8,4;-20,01;-8,4;2,36;3;2,36;3;0;0;
13919;-17,85;-8,39;-17,85;-8,39;2,3;2,33;2,3;2,33;0;0;
13938;-21,5;-3,38;-21,5;-3,38;2,53;2,17;2,53;2,17;0;0;
13955;-21,5;-3,38;-21,5;-3,38;3,14;2,22;3,14;2,22;0;0;
13973;-16,6;-8,52;-16,6;-8,52;2,81;2,14;2,81;2,14;0;0;
13991;-32,01;-2,04;-32,01;-2,04;4,85;2,69;4,85;2,69;0;0;
14009;6,38;-2,2;6,38;-2,2;6,37;2,7;6,37;2,7;0;0;
14028;-18;-15,53;-18;-15,53;9,93;3,23;9,93;3,23;0;0;
14044;-119,7;-4,51;-119,7;-4,51;18,9;3,2;18,9;3,2;0;0;
14066;51,55;-6,66;51,55;-6,66;37,95;3,24;37,95;3,24;0;0;
14085;-10,75;-4,95;-10,75;-4,95;41,9;3,36;41,9;3,36;0;0;
14102;-46,59;-2,64;-46,59;-2,64;47,88;2,95;47,88;2,95;0;0;
14121;3,93;-4,22;3,93;-4,22;48,2;3,23;48,2;3,23;0;0;
14139;-19,89;-4,47;-19,89;-4,47;45,35;3,03;45,35;3,03;0;0;
14157;-19,89;-4,47;-19,89;-4,47;38,52;3,25;38,52;3,25;0;0;
14174;33,61;-11,8;33,61;-11,8;28,68;3,61;28,68;3,61;0;0;
14192;-4,5;-8,66;-4,5;-8,66;30,34;3,46;30,34;3,46;0;0;
14209;-34,69;-11,55;-34,69;-11,55;29,98;3,6;29,98;3,6;0;0;
14232;62,35;-11,06;62,35;-11,06;36,06;3,5;36,06;3,5;0;0;
14250;-26,93;-2,11;-26,93;-2,11;41,96;3,5;41,96;3,5;0;0;
14268;56,61;-1,56;56,61;-1,56;44,24;3,93;44,24;3,93;0;0;
14286;45,52;-12,43;45,52;-12,43;42,73;3,73;42,73;3,73;0;0;
14303;-21,9;2,12;-21,9;2,12;43,49;4,08;43,49;4,08;0;0;
14320;72,61;-9,26;72,61;-9,26;43,69;3,95;43,69;3,95;0;0;
14337;72,61;-9,26;72,61;-9,26;42,62;3,72;42,62;3,72;0;0;
14355;-40,79;-7,9;-40,79;-7,9;44,2;4,06;44,2;4,06;0;0;
14395;-57,3;-6,74;-57,3;-6,74;49,86;3,85;49,86;3,85;0;0;
14420;-21,92;-8,92;-21,92;-8,92;56,61;3,69;56,61;3,69;1;0;
14436;-21,92;-8,92;-21,92;-8,92;65,14;3,21;65,14;3,21;1;0;
14455;60,13;-2,25;60,13;-2,25;63,45;3,6;63,45;3,6;1;0;
14472;-8,88;-5,82;-8,88;-5,82;75,1;3,54;75,1;3,54;1;0;
14490;120,31;0,55;120,31;0,55;67,96;3,3;67,96;3,3;1;0;
14508;49,37;-2,49;49,37;-2,49;67,16;3,68;67,16;3,68;1;0;
14525;19,41;-7,63;19,41;-7,63;65,3;3,93;65,3;3,93;1;0;
14542;-11,13;-8,88;-11,13;-8,88;64,77;4,14;64,77;4,14;1;0;
14562;-1,84;-8,18;-1,84;-8,18;61,31;3,79;61,31;3,79;1;0;
14586;-23,17;-7,23;-23,17;-7,23;50,68;3,74;50,68;3,74;1;0;
14604;-18,78;-3,72;-18,78;-3,72;39,69;3,48;39,69;3,48;1;0;
14621;-1,37;-10,99;-1,37;-10,99;30,28;3,29;30,28;3,29;1;0;
14637;-1,37;-10,99;-1,37;-10,99;21,61;3,2;21,61;3,2;1;0;
14654;-15,64;-5,32;-15,64;-5,32;11,88;2,96;11,88;2,96;1;0;
14671;-15,67;-2,41;-15,67;-2,41;7,44;2,96;7,44;2,96;1;0;
14691;-4,43;-11,06;-4,43;-11,06;11,07;3,22;11,07;3,22;1;0;
14708;-44,78;-1,43;-44,78;-1,43;21,86;3,17;21,86;3,17;1;0;
14726;-24,05;-3,15;-24,05;-3,15;27,31;3,14;27,31;3,14;1;0;
14747;0;-13,75;0;-13,75;28,42;3,44;28,42;3,44;1;0;
14763;-57,23;-5,59;-57,23;-5,59;35,64;4,13;35,64;4,13;0;0;
14780;2,36;-1,77;2,36;-1,77;36,81;3,85;36,81;3,85;0;0;
14799;-20,65;-9,78;-20,65;-9,78;34,22;3,77;34,22;3,77;0;0;
14818;-20,65;-9,78;-20,65;-9,78;25,41;3,9;25,41;3,9;0;0;
14835;-83,65;-6,61;-83,65;-6,61;33,48;3,87;33,48;3,87;0;0;
14852;-51,88;-5,55;-51,88;-5,55;37,14;3,25;37,14;3,25;0;0;
14871;-43,53;-3,41;-43,53;-3,41;36,68;3,14;36,68;3,14;0;0;
14891;-7,35;-8,8;-7,35;-8,8;35,55;2,99;35,55;2,99;0;0;
14913;-20,42;-5,73;-20,42;-5,73;32,7;2,7;32,7;2,7;0;0;
14932;-14,6;-6,81;-14,6;-6,81;25,82;2,33;25,82;2,33;0;0;
14949;-21,07;-1,6;-21,07;-1,6;15,97;2,74;15,97;2,74;0;0;
14969;-20,83;-8,22;-20,83;-8,22;8,22;2,86;8,22;2,86;0;0;
14985;-20,96;-11,9;-20,96;-11,9;3,75;3,02;3,75;3,02;0;0;
15003;-14,2;-0,59;-14,2;-0,59;2,23;3,45;2,23;3,45;0;0;
15021;-15,09;-2,72;-15,09;-2,72;2,43;3,57;2,43;3,57;0;0;
15037;-15,09;-2,72;-15,09;-2,72;2,63;3,38;2,63;3,38;0;0;
15054;-20,96;-12,69;-20,96;-12,69;2,78;3,17;2,78;3,17;0;0;
15075;-19,86;-5,45;-19,86;-5,45;2,78;2,89;2,78;2,89;0;0;
15095;-11,98;-0,52;-11,98;-0,52;2,8;2,66;2,8;2,66;0;0;
15112;-19,49;-17,57;-19,49;-17,57;2,55;2,57;2,55;2,57;0;0;
15130;-17,28;-9,62;-17,28;-9,62;2,58;3,19;2,58;3,19;0;0;
15146;-20,99;0,38;-20,99;0,38;2,78;3,32;2,78;3,32;0;0;
15162;-79,4;-10,8;-79,4;-10,8;5,85;3,69;5,85;3,69;0;0;
15181;-24,37;-15,28;-24,37;-15,28;10,73;4,29;10,73;4,29;0;0;
15198;-24,37;-15,28;-24,37;-15,28;15,6;4,43;15,6;4,43;0;0;
15216;-95,37;-6,85;-95,37;-6,85;22,91;4,26;22,91;4,26;0;0;
15236;0,48;-15,08;0,48;-15,08;30;4,36;30;4,36;0;0;
15255;-40,09;-5,57;-40,09;-5,57;34,35;4,34;34,35;4,34;0;0;
15272;-8,75;-6,94;-8,75;-6,94;36,82;4,27;36,82;4,27;0;0;
15288;-23,81;1,66;-23,81;1,66;41,75;4,06;41,75;4,06;0;0;
15305;-154,42;-5,92;-154,42;-5,92;47,17;3,97;47,17;3,97;0;0;
15323;-5,98;-10,57;-5,98;-10,57;44,83;3,75;44,83;3,75;0;0;
15340;-5,98;-10,57;-5,98;-10,57;44,04;3,46;44,04;3,46;0;0;
15356;-5,98;-10,57;-5,98;-10,57;40,97;3,59;40,97;3,59;0;0;
15374;-95,08;-7,74;-95,08;-7,74;40,62;3,59;40,62;3,59;0;0;
15396;0,77;-16,95;0,77;-16,95;34,28;4,1;34,28;4,1;0;0;
15416;-52,7;-11,5;-52,7;-11,5;42,65;3,76;42,65;3,76;1;0;
15435;-2,32;2,5;-2,32;2,5;43,36;3,85;43,36;3,85;1;0;
15451;-2,67;-2,87;-2,67;-2,87;46,26;3,82;46,26;3,82;1;0;
15468;-80,47;-16,13;-80,47;-16,13;47,19;4,03;47,19;4,03;1;0;
15485;13,39;-2,29;13,39;-2,29;46,41;4,14;46,41;4,14;1;0;
15507;-95,26;-9,96;-95,26;-9,96;44,22;3,75;44,22;3,75;1;0;
15526;37,55;-2,54;37,55;-2,54;45,24;3,53;45,24;3,53;1;0;
15548;169,51;-3,08;169,51;-3,08;47,63;3,61;47,63;3,61;1;0;
15566;-67,36;-3,4;-67,36;-3,4;62,96;3,73;62,96;3,73;1;0;
15583;0,51;-6,09;0,51;-6,09;64,86;3,5;64,86;3,5;1;0;
15601;156,4;-1,3;156,4;-1,3;67,28;3,92;67,28;3,92;1;0;
15619;-31,52;-12,25;-31,52;-12,25;77,32;3,94;77,32;3,94;1;0;
15636;-31,52;-12,25;-31,52;-12,25;85,89;3,7;85,89;3,7;1;0;
15653;-91,81;0,55;-91,81;0,55;81,39;3,35;81,39;3,35;1;0;
15671;-165,89;-7,52;-165,89;-7,52;85,67;3,69;85,67;3,69;1;0;
15690;-93,39;0,27;-93,39;0,27;81,6;3,89;81,6;3,89;1;0;
15714;2,5;0,93;2,5;0,93;70,34;4,05;70,34;4,05;1;0;
15735;67,8;-7,27;67,8;-7,27;63,35;4,29;63,35;4,29;1;0;
15753;16,74;-6,49;16,74;-6,49;67,39;4,25;67,39;4,25;1;0;
15771;-25,75;-4,65;-25,75;-4,65;53,02;3,76;53,02;3,76;0;0;
15787;-17,16;-5,89;-17,16;-5,89;43,97;3,83;43,97;3,83;0;0;
15807;-16,34;-8,39;-16,34;-8,39;33,31;3,06;33,31;3,06;0;0;
15828;-21,93;-4,41;-21,93;-4,41;27,4;2,4;27,4;2,4;0;0;
15849;-16,32;-2,71;-16,32;-2,71;15,53;2,85;15,53;2,85;0;0;
15872;-20,35;-5,95;-20,35;-5,95;3,49;2,61;3,49;2,61;0;0;
15891;-18,14;-5,15;-18,14;-5,15;2,42;2,45;2,42;2,45;0;0;
15912;-14,93;-4,02;-14,93;-4,02;1,99;2,37;1,99;2,37;0;0;
15931;-22,16;-7,14;-22,16;-7,14;2,4;2,23;2,4;2,23;0;0;
15948;-20,46;-2,62;-20,46;-2,62;2,29;2,48;2,29;2,48;0;0;
15965;-22,61;8,13;-22,61;8,13;3,4;2,47;3,4;2,47;0;0;
15983;-11,02;-7,9;-11,02;-7,9;3,39;4,01;3,39;4,01;0;0;
16000;-31,55;-2,94;-31,55;-2,94;4,33;5;4,33;5;0;0;
16023;-13,48;-2,8;-13,48;-2,8;5,06;5,25;5,06;5,25;0;0;
16040;-13,7;-5,35;-13,7;-5,35;4,91;6,1;4,91;6,1;0;0;
16056;-13,7;-5,35;-13,7;-5,35;4,51;6,9;4,51;6,9;0;0;
16073;-18,48;-4,96;-18,48;-4,96;4,33;5,63;4,33;5,63;0;0;
16094;-13,25;-0,35;-13,25;-0,35;4,15;4,78;4,15;4,78;0;0;
16112;-11,42;-16,72;-11,42;-16,72;3,28;4,73;3,28;4,73;0;0;
16128;-18,56;-16,09;-18,56;-16,09;3,6;5,22;3,6;5,22;0;0;
16147;-21,5;-4,8;-21,5;-4,8;3,65;4,64;3,65;4,64;0;0;
16162;-15,15;-6,44;-15,15;-6,44;3,21;4,24;3,21;4,24;0;0;
16182;-22,16;-9,98;-22,16;-9,98;3,08;4,25;3,08;4,25;0;0;
16197;-22,16;-9,98;-22,16;-9,98;2,66;4,1;2,66;4,1;0;0;
16217;-22,5;-4,53;-22,5;-4,53;3,08;3,06;3,08;3,06;0;0;
16234;75,09;-7,26;75,09;-7,26;8,23;2,26;8,23;2,26;0;0;
16250;39,06;-5,48;39,06;-5,48;20,5;2,34;20,5;2,34;0;0;
16270;11,41;-7,64;11,41;-7,64;25,27;2,45;25,27;2,45;0;0;
16286;-90,81;-1,5;-90,81;-1,5;31,71;2,55;31,71;2,55;0;0;
16304;30,57;-5,94;30,57;-5,94;39,24;2,62;39,24;2,62;0;0;
16321;-108,96;-9,16;-108,96;-9,16;49,57;2,6;49,57;2,6;0;0;
16344;-85,19;0,51;-85,19;0,51;46,31;2,57;46,31;2,57;0;0;
16359;-37,8;-9,78;-37,8;-9,78;40,13;3,01;40,13;3,01;0;0;
16377;-37,8;-9,78;-37,8;-9,78;39,53;3,43;39,53;3,43;0;0;
16393;-21,8;-2,28;-21,8;-2,28;42,19;3,45;42,19;3,45;0;0;
16415;-73,32;-9,17;-73,32;-9,17;37,66;3,53;37,66;3,53;0;0;
16433;9,08;-7,19;9,08;-7,19;33,99;3,52;33,99;3,52;0;0;
16453;-50,93;-6,36;-50,93;-6,36;38,01;3,19;38,01;3,19;0;0;
16472;29,14;-0,49;29,14;-0,49;42,3;3,29;42,3;3,29;0;0;
16492;-67,74;-11,34;-67,74;-11,34;44,13;3,48;44,13;3,48;0;0;
16510;-114,2;-1,73;-114,2;-1,73;51,72;3,79;51,72;3,79;0;0;
16528;-74,18;-4,88;-74,18;-4,88;52,72;3,82;52,72;3,82;0;0;
16546;15,96;-4,21;15,96;-4,21;49,44;3,79;49,44;3,79;0;0;
16563;-120,14;-9,31;-120,14;-9,31;57,08;4,26;57,08;4,26;0;0;
16581;-42,35;-8,37;-42,35;-8,37;53,43;4,28;53,43;4,28;0;0;
16596;-42,35;-8,37;-42,35;-8,37;51,43;4,25;51,43;4,25;0;0;
16614;45,13;-6,16;45,13;-6,16;47,32;4,23;47,32;4,23;0;0;
16633;-26,02;-6,27;-26,02;-6,27;50,43;4,43;50,43;4,43;0;0;
16655;87,91;-7;87,91;-7;49,06;4,24;49,06;4,24;0;0;
16672;46,72;-7,31;46,72;-7,31;47,57;3,87;47,57;3,87;0;0;
16691;7,93;-4,89;7,93;-4,89;41,58;3,57;41,58;3,57;0;0;
16711;-34,7;-9,94;-34,7;-9,94;37,99;2,92;37,99;2,92;0;0;
16728;-4,18;0,03;-4,18;0,03;34,53;2,8;34,53;2,8;0;0;
16746;-25,53;-6,8;-25,53;-6,8;30,44;2,62;30,44;2,62;0;0;
16764;-22,95;-5,52;-22,95;-5,52;25,1;2,67;25,1;2,67;0;0;
16781;-55,08;-3,72;-55,08;-3,72;18,8;2,51;18,8;2,51;0;0;
16798;-55,08;-3,72;-55,08;-3,72;17,51;2,18;17,51;2,18;0;0;
16821;-58,04;-8,42;-58,04;-8,42;22,8;2,37;22,8;2,37;0;0;
16838;-58,04;-8,42;-58,04;-8,42;28,49;2,24;28,49;2,24;0;0;
16854;5,57;-9,7;5,57;-9,7;32,74;2,79;32,74;2,79;0;0;
16872;-45,59;-5,43;-45,59;-5,43;38,04;3,01;38,04;3,01;0;0;
16890;-114,23;-5,35;-114,23;-5,35;40,75;3,19;40,75;3,19;0;0;
16908;-18,57;-9,49;-18,57;-9,49;37,56;3,03;37,56;3,03;0;0;
16926;-28,44;-10,09;-28,44;-10,09;29,09;3,03;29,09;3,03;0;0;
16943;-34,1;-3,93;-34,1;-3,93;23,61;2,91;23,61;2,91;0;0;
16960;47,69;-3;47,69;-3;22,54;2,71;22,54;2,71;0;0;
16980;-9,95;-0,64;-9,95;-0,64;27,05;2,81;27,05;2,81;0;0;
16996;-9,95;-0,64;-9,95;-0,64;31,12;2,99;31,12;2,99;0;0;
17014;44,37;-6,34;44,37;-6,34;34,8;3,04;34,8;3,04;0;0;
17031;-46,12;-5,36;-46,12;-5,36;37,55;3,13;37,55;3,13;0;0;
17047;1,3;-6,1;1,3;-6,1;32,23;3,15;32,23;3,15;0;0;
17063;-47,52;-1,19;-47,52;-1,19;31,08;2,65;31,08;2,65;0;0;
17085;-39,06;-2,65;-39,06;-2,65;28,48;2,7;28,48;2,7;0;0;
17102;3,13;-4,89;3,13;-4,89;22,24;2,53;22,24;2,53;0;0;
17120;-98,83;-1,8;-98,83;-1,8;24,24;2,47;24,24;2,47;0;0;
17143;29,31;2,12;29,31;2,12;24,06;2,32;24,06;2,32;0;0;
17161;-37,02;-9,14;-37,02;-9,14;26,82;2,29;26,82;2,29;0;0;
17176;-37,02;-9,14;-37,02;-9,14;26,54;2,08;26,54;2,08;0;0;
17192;23,91;-4,23;23,91;-4,23;23,95;1,87;23,95;1,87;0;0;
17209;-21,1;-6,16;-21,1;-6,16;32,13;2,05;32,13;2,05;0;0;
17227;-76,82;-4,54;-76,82;-4,54;32,93;2,21;32,93;2,21;0;0;
17247;15,3;-6,41;15,3;-6,41;39,65;2,24;39,65;2,24;0;0;
17264;20,84;-9,24;20,84;-9,24;46,87;2,3;46,87;2,3;0;0;
17282;-26,33;-4,17;-26,33;-4,17;43,32;2,28;43,32;2,28;1;0;
17302;-17,42;-10,39;-17,42;-10,39;38,31;2,29;38,31;2,29;1;0;
17319;-7,69;-7,62;-7,69;-7,62;29,71;2,08;29,71;2,08;1;0;
17338;-7,69;-7,62;-7,69;-7,62;22,72;2,05;22,72;2,05;1;0;
17354;-18,94;-6,19;-18,94;-6,19;14,39;2,09;14,39;2,09;1;0;
17371;-40,88;-6,3;-40,88;-6,3;10,24;2,09;10,24;2,09;1;0;
17389;-19,89;-8,77;-19,89;-8,77;11,86;2,35;11,86;2,35;1;0;
17407;-14,84;-6,56;-14,84;-6,56;11,87;2,15;11,87;2,15;1;0;
17425;-13,08;2,19;-13,08;2,19;11,66;2,34;11,66;2,34;1;0;
17443;-63;-5,09;-63;-5,09;11,54;2,47;11,54;2,47;1;0;
17465;-69,96;-8,34;-69,96;-8,34;18,45;2,64;18,45;2,64;1;0;
17484;-20,5;-1,18;-20,5;-1,18;22,73;2,51;22,73;2,51;1;0;
17501;17,69;-5,25;17,69;-5,25;25,41;2,88;25,41;2,88;1;0;
17520;-19,51;-9,12;-19,51;-9,12;33,35;3,45;33,35;3,45;1;0;
17539;-20,8;-2,38;-20,8;-2,38;37,01;3,3;37,01;3,3;1;0;
17555;-20,8;-2,38;-20,8;-2,38;34,99;3,32;34,99;3,32;1;0;
17571;-79,69;-2,9;-79,69;-2,9;33,19;3,36;33,19;3,36;1;0;
17588;31,66;-8,39;31,66;-8,39;36,28;3,33;36,28;3,33;1;0;
17606;-58,33;-7,72;-58,33;-7,72;34,83;3,02;34,83;3,02;1;0;
17626;-5,34;-4,74;-5,34;-4,74;38,22;2,53;38,22;2,53;1;0;
17645;-0,19;-6,29;-0,19;-6,29;36,2;2,53;36,2;2,53;0;0;
17663;-23,11;-4,65;-23,11;-4,65;30,92;2,62;30,92;2,62;0;0;
17681;-19,69;-3,15;-19,69;-3,15;21,87;2,25;21,87;2,25;0;0;
17701;-22,49;-6,51;-22,49;-6,51;16,77;2,32;16,77;2,32;0;0;
17724;-13,83;-3,64;-13,83;-3,64;10,88;2,4;10,88;2,4;0;0;
17742;-16,82;-4,73;-16,82;-4,73;4,64;2,2;4,64;2,2;0;0;
17760;-20,51;-3,52;-20,51;-3,52;2,68;2,02;2,68;2,02;0;0;
17785;-22,52;-6,78;-22,52;-6,78;2,41;2,11;2,41;2,11;0;0;
17806;-11,94;-6,13;-11,94;-6,13;2,48;2,06;2,48;2,06;0;0;
17828;-17,44;-5,68;-17,44;-5,68;2,4;1,95;2,4;1,95;0;0;
17845;-17,53;-9,25;-17,53;-9,25;2,18;1,91;2,18;1,91;0;0;
17863;-17,13;-6,24;-17,13;-6,24;1,89;1,98;1,89;1,98;0;0;
17882;-10,4;-10,78;-10,4;-10,78;2,15;1,85;2,15;1,85;0;0;
17898;-10,4;-10,78;-10,4;-10,78;2,26;1,93;2,26;1,93;0;0;
17913;-16,85;-7,43;-16,85;-7,43;2,09;2,25;2,09;2,25;0;0;
17934;-21,51;-8,9;-21,51;-8,9;2,37;2,31;2,37;2,31;0;0;
17950;-17,22;-5,55;-17,22;-5,55;2,65;2,66;2,65;2,66;0;0;
17966;-17,89;-2,75;-17,89;-2,75;2,61;3,13;2,61;3,13;0;0;
17983;-15,7;-7,03;-15,7;-7,03;2,43;2,98;2,43;2,98;0;0;
18002;-13,74;-11,8;-13,74;-11,8;2,39;2,99;2,39;2,99;0;0;
18022;-16,53;0,87;-16,53;0,87;2,64;3,52;2,64;3,52;0;0;
18041;-16,45;-0,71;-16,45;-0,71;2,81;4,02;2,81;4,02;0;0;
18059;-26,92;-9,94;-26,92;-9,94;6,64;4,37;6,64;4,37;0;0;
18077;-26,92;-9,94;-26,92;-9,94;10,62;4,9;10,62;4,9;0;0;
18098;-1,26;-9,37;-1,26;-9,37;13,7;5,03;13,7;5,03;0;0;
18115;-1,64;-0,69;-1,64;-0,69;18,44;4,68;18,44;4,68;0;0;
18132;14,18;-8,61;14,18;-8,61;23,13;3,82;23,13;3,82;0;0;
18150;-109,66;-7,2;-109,66;-7,2;26,79;3,71;26,79;3,71;0;0;
18166;-56,58;-10,8;-56,58;-10,8;26,35;3,45;26,35;3,45;0;0;
18184;15,42;-4,91;15,42;-4,91;27,19;2,85;27,19;2,85;0;0;
18201;-23,01;-6,7;-23,01;-6,7;25,74;2,79;25,74;2,79;0;0;
18220;-12,87;-6,3;-12,87;-6,3;20,84;3,1;20,84;3,1;0;0;
18239;-21,5;-6,79;-21,5;-6,79;16,89;3,32;16,89;3,32;0;0;
18260;-20,92;-6,03;-20,92;-6,03;11,75;3,05;11,75;3,05;0;0;
18276;-20,92;-6,03;-20,92;-6,03;7,45;2,67;7,45;2,67;0;0;
18294;-14,48;-7,15;-14,48;-7,15;3,48;2,9;3,48;2,9;0;0;
18310;-13,23;-4,36;-13,23;-4,36;3,36;2,56;3,36;2,56;0;0;
18328;-19,21;-8,38;-19,21;-8,38;3,11;2,46;3,11;2,46;0;0;
18348;-13,44;-3,96;-13,44;-3,96;2,73;2,31;2,73;2,31;0;0;
18365;-10;-7,63;-10;-7,63;2,8;2,54;2,8;2,54;0;0;
18381;-17,2;-2,66;-17,2;-2,66;2,76;2,59;2,76;2,59;0;0;
18397;-17,2;-2,66;-17,2;-2,66;2,73;2,46;2,73;2,46;0;0;
18418;-8,92;-1,43;-8,92;-1,43;2,95;2,56;2,95;2,56;0;0;
18435;-20,83;-12,83;-20,83;-12,83;3,01;2,57;3,01;2,57;0;0;
18453;-11,47;-1,67;-11,47;-1,67;3,29;2,53;3,29;2,53;0;0;
18470;-20,13;-8,43;-20,13;-8,43;2,94;2,53;2,94;2,53;0;0;
18488;-12,98;-5,09;-12,98;-5,09;3,06;2,37;3,06;2,37;0;0;
18506;-18,22;-3,54;-18,22;-3,54;3,41;2,36;3,41;2,36;0;0;
18523;-19,01;-2,65;-19,01;-2,65;2,94;2,32;2,94;2,32;0;0;
18540;-19,01;-2,65;-19,01;-2,65;2,65;2,05;2,65;2,05;0;0;
18558;-19,01;-2,65;-19,01;-2,65;2,71;2,02;2,71;2,02;0;0;
18581;-17,67;-6,55;-17,67;-6,55;2,79;2,02;2,79;2,02;0;0;
18596;-17,67;-6,55;-17,67;-6,55;2,38;1,95;2,38;1,95;0;0;
18612;-14,1;-7,94;-14,1;-7,94;2,44;1,88;2,44;1,88;0;0;
18632;-15,61;-4,24;-15,61;-4,24;2,57;1,83;2,57;1,83;0;0;
18653;-20,01;0,89;-20,01;0,89;2,6;1,85;2,6;1,85;0;0;
18671;-14,59;-6,42;-14,59;-6,42;2,63;2,09;2,63;2,09;0;0;
18687;-15,7;-6,88;-15,7;-6,88;2,64;2,12;2,64;2,12;0;0;
18704;-18,1;-6,5;-18,1;-6,5;2,62;2,3;2,62;2,3;0;0;
18723;-17,24;-7,67;-17,24;-7,67;2,3;2,39;2,3;2,39;0;0;
18746;-19,91;-9,11;-19,91;-9,11;2,21;2,45;2,21;2,45;0;0;
18763;-17,67;-7,32;-17,67;-7,32;2,22;2,35;2,22;2,35;0;0;
18782;-20,85;-1,76;-20,85;-1,76;2,12;2,1;2,12;2,1;0;0;
18798;-20,85;-1,76;-20,85;-1,76;2,24;2;2,24;2;0;0;
18814;-16,4;-5,02;-16,4;-5,02;2,19;1,73;2,19;1,73;0;0;
18831;-16,23;-5,83;-16,23;-5,83;2,24;1,6;2,24;1,6;0;0;
18848;-17,21;-9,42;-17,21;-9,42;2,3;1,72;2,3;1,72;0;0;
18866;-21,92;-9,5;-21,92;-9,5;2,34;1,85;2,34;1,85;0;0;
18883;-14,19;-0,19;-14,19;-0,19;2,26;2;2,26;2;0;0;
18906;-22,96;-3,91;-22,96;-3,91;2,38;2,18;2,38;2,18;0;0;
18922;-17,71;-12,92;-17,71;-12,92;2,75;2,42;2,75;2,42;0;0;
18941;-18,83;-6,43;-18,83;-6,43;2,6;2,39;2,6;2,39;0;0;
18958;-18,83;-6,43;-18,83;-6,43;2,52;2,46;2,52;2,46;0;0;
18976;-9,09;-20,63;-9,09;-20,63;2,79;4,53;2,79;4,53;0;0;
18992;-16,71;-17,59;-16,71;-17,59;3,52;5,82;3,52;5,82;0;0;
19010;-20,89;1,64;-20,89;1,64;4,11;9,72;4,11;9,72;0;0;
19027;-20,89;1,64;-20,89;1,64;4,77;13,42;4,77;13,42;0;0;
19045;-7,63;3,97;-7,63;3,97;5,34;14,71;5,34;14,71;0;0;
19066;-4,48;-33,63;-4,48;-33,63;6,96;17,9;6,96;17,9;0;0;
19083;-16,53;-17,61;-16,53;-17,61;7,33;18,47;7,33;18,47;0;0;
19099;-27,04;8,15;-27,04;8,15;7,67;17,14;7,67;17,14;0;0;
19116;-27,04;8,15;-27,04;8,15;7,78;14,99;7,78;14,99;0;0;
19135;-17,6;14,32;-17,6;14,32;7,47;15,25;7,47;15,25;0;0;
19151;-2,23;-5,52;-2,23;-5,52;8,31;14,7;8,31;14,7;0;0;
19169;-25,07;-10,18;-25,07;-10,18;8,12;13,32;8,12;13,32;0;0;
19185;-19,69;-37,56;-19,69;-37,56;8,83;15,35;8,83;15,35;0;1;
19203;-8,62;-3,02;-8,62;-3,02;8,47;15,22;8,47;15,22;0;1;
19224;-14,02;-4,08;-14,02;-4,08;7,96;16,7;7,96;16,7;0;1;
19240;-11,39;22,25;-11,39;22,25;8,08;17,18;8,08;17,18;0;1;
19257;-11,39;22,25;-11,39;22,25;7,58;18,08;7,58;18,08;0;1;
19276;-13,21;10,92;-13,21;10,92;6,06;16,79;6,06;16,79;0;1;
19293;-16,66;7,2;-16,66;7,2;5,01;14,17;5,01;14,17;0;1;
19309;-11,62;-0,88;-11,62;-0,88;4,71;13,95;4,71;13,95;0;1;
19325;-23,1;-12,79;-23,1;-12,79;4,45;11,05;4,45;11,05;0;1;
19344;-18,1;-8,85;-18,1;-8,85;3,51;8,32;3,51;8,32;0;1;
19361;-19,53;-21,16;-19,53;-21,16;3,3;7,55;3,3;7,55;0;1;
19381;-20,32;-2,02;-20,32;-2,02;3,09;6,95;3,09;6,95;0;1;
19397;-20,32;-2,02;-20,32;-2,02;3,01;5,89;3,01;5,89;0;1;
19414;-17;-8,95;-17;-8,95;2,64;4,58;2,64;4,58;0;1;
19432;-21,32;-3,98;-21,32;-3,98;2,63;4;2,63;4;0;1;
19448;-9,15;-9,56;-9,15;-9,56;4,13;3,03;4,13;3,03;0;1;
19465;-47,2;-4,27;-47,2;-4,27;5,85;2,19;5,85;2,19;0;1;
19485;11,76;-4,37;11,76;-4,37;9,94;1,93;9,94;1,93;0;1;
19502;-29,79;-4,36;-29,79;-4,36;12,01;2,31;12,01;2,31;0;1;
19519;5,07;-6,21;5,07;-6,21;14,32;2,71;14,32;2,71;0;0;
19540;-2,24;-18,24;-2,24;-18,24;20,06;3,02;20,06;3,02;0;0;
19558;-2,24;-18,24;-2,24;-18,24;25,02;3,3;25,02;3,3;0;0;
19574;-60,81;-16,26;-60,81;-16,26;30,28;3,45;30,28;3,45;0;0;
19591;-91,18;58,8;-91,18;58,8;47,56;6,69;47,56;6,69;0;0;
19609;-51,28;80,89;-51,28;80,89;53,62;35,49;53,62;35,49;0;0;
19631;101,83;-74,52;101,83;-74,52;56,46;44,14;56,46;44,14;0;0;
19648;-30,06;18,07;-30,06;18,07;58,44;47,09;58,44;47,09;0;0;
19669;72,31;3,11;72,31;3,11;61,98;48,71;61,98;48,71;0;0;
19689;-78,94;0,41;-78,94;0,41;56,59;49,25;56,59;49,25;0;0;
19714;-41,67;-11,02;-41,67;-11,02;52,32;34,74;52,32;34,74;0;0;
19735;11,23;-26,45;11,23;-26,45;60,25;29,46;60,25;29,46;0;0;
19753;-42,71;26,77;-42,71;26,77;61,41;33,45;61,41;33,45;0;0;
19772;-149,04;-21,45;-149,04;-21,45;61,68;32,22;61,68;32,22;0;0;
19791;-28,38;-3,29;-28,38;-3,29;56,11;32,83;56,11;32,83;0;0;
19811;-12,9;-4,71;-12,9;-4,71;52,73;31,95;52,73;31,95;0;0;
19829;-155,18;-8,65;-155,18;-8,65;59,7;28,44;59,7;28,44;0;0;
19847;-142,84;-2,72;-142,84;-2,72;65,03;13,29;65,03;13,29;0;0;
19868;118,56;0,56;118,56;0,56;65,21;5,94;65,21;5,94;0;0;
19884;-30,66;-7,67;-30,66;-7,67;63,84;5,23;63,84;5,23;0;0;
19902;79,66;-6,01;79,66;-6,01;63,74;4,35;63,74;4,35;1;0;
19920;-167,7;-2,2;-167,7;-2,2;67,28;4,56;67,28;4,56;1;0;
19939;-28,21;-1,92;-28,21;-1,92;62,99;4,16;62,99;4,16;1;0;
19955;-28,21;-1,92;-28,21;-1,92;60,87;3,42;60,87;3,42;1;0;
19972;21,47;-8,54;21,47;-8,54;63,1;2,78;63,1;2,78;1;0;
19987;-14,41;-16,47;-14,41;-16,47;69,44;3,08;69,44;3,08;1;0;
20004;121,74;-5,09;121,74;-5,09;69,43;3,31;69,43;3,31;1;0;
20026;24,45;-11,51;24,45;-11,51;62,94;3,49;62,94;3,49;1;0;
20043;-79,69;-11,56;-79,69;-11,56;64,12;3,93;64,12;3,93;1;0;
20063;1,13;-5,04;1,13;-5,04;55,79;3,97;55,79;3,97;1;0;
20083;7,58;-13,87;7,58;-13,87;48,41;4,21;48,41;4,21;1;0;
20099;-8,22;-4,33;-8,22;-4,33;43,43;3,81;43,43;3,81;1;0;
20115;-8,22;-4,33;-8,22;-4,33;40,75;3,4;40,75;3,4;1;0;
20132;-11,72;-4,44;-11,72;-4,44;31,89;3,55;31,89;3,55;1;0;
20149;-10,65;-9,49;-10,65;-9,49;23,31;3,29;23,31;3,29;1;0;
20168;17,24;-2,22;17,24;-2,22;18,65;3,32;18,65;3,32;1;0;
20192;7,97;-3,67;7,97;-3,67;23,81;3,12;23,81;3,12;1;0;
20209;-8,81;-0,9;-8,81;-0,9;22,34;3,46;22,34;3,46;1;0;
20227;10,81;-1,29;10,81;-1,29;25,11;3,87;25,11;3,87;1;0;
20243;-53,97;-7,46;-53,97;-7,46;29,7;3,32;29,7;3,32;0;0;
20261;28,03;-6,71;28,03;-6,71;38,34;3,49;38,34;3,49;0;0;
20279;-33,29;-7,08;-33,29;-7,08;36,65;3,81;36,65;3,81;0;0;
20295;-33,29;-7,08;-33,29;-7,08;35,18;4,37;35,18;4,37;0;0;
20311;-36,51;-1,42;-36,51;-1,42;43,56;4,2;43,56;4,2;0;0;
20331;-22,26;-5,42;-22,26;-5,42;47,1;4,07;47,1;4,07;0;0;
20353;67,35;-10,21;67,35;-10,21;51,55;3,9;51,55;3,9;0;0;
20372;22,43;-12,6;22,43;-12,6;54;3,52;54;3,52;0;0;
20389;73,2;-8,3;73,2;-8,3;58,11;3,37;58,11;3,37;0;0;
20407;-46,09;-9,48;-46,09;-9,48;59,18;3,53;59,18;3,53;0;0;
20423;63,45;-6,56;63,45;-6,56;56,73;3,25;56,73;3,25;0;0;
20442;-93,9;-12,81;-93,9;-12,81;68,86;3,49;68,86;3,49;0;0;
20459;80,81;-1,19;80,81;-1,19;62,98;3,73;62,98;3,73;0;0;
20476;80,81;-1,19;80,81;-1,19;61,37;3,78;61,37;3,78;0;0;
20495;88,76;-1,07;88,76;-1,07;62,6;4,15;62,6;4,15;0;0;
20517;2,95;-4,7;2,95;-4,7;68,02;3,8;68,02;3,8;0;0;
20536;8,79;-6,85;8,79;-6,85;65,13;3,71;65,13;3,71;0;0;
20553;-29,22;2,64;-29,22;2,64;53,91;3,67;53,91;3,67;0;0;
20570;-30,39;-10,09;-30,39;-10,09;48,75;3,47;48,75;3,47;0;0;
20588;-15,7;-4,25;-15,7;-4,25;34,73;2,76;34,73;2,76;0;0;
20605;-18,27;-10,71;-18,27;-10,71;26,43;2,67;26,43;2,67;0;0;
20622;-9,55;-9,6;-9,55;-9,6;12,76;2,71;12,76;2,71;0;0;
20639;-16,78;0,55;-16,78;0,55;9,94;3,04;9,94;3,04;0;0;
20656;-16,78;0,55;-16,78;0,55;6,55;2,95;6,55;2,95;0;0;
20680;-16,14;-9,72;-16,14;-9,72;4,07;3,03;4,07;3,03;0;0;
20696;-16,14;-9,72;-16,14;-9,72;2,81;3,08;2,81;3,08;0;0;
20713;-13,57;-1,33;-13,57;-1,33;2,54;2,97;2,54;2,97;0;0;
20731;-25,82;-8,5;-25,82;-8,5;2,62;3,02;2,62;3,02;0;0;
20748;-15,7;-10,37;-15,7;-10,37;2,69;3,16;2,69;3,16;0;0;
20765;-17,03;3,01;-17,03;3,01;2,8;3,68;2,8;3,68;0;0;
20782;-18,35;-15,4;-18,35;-15,4;2,81;4,02;2,81;4,02;0;0;
20797;-18,35;-15,4;-18,35;-15,4;2,82;4,34;2,82;4,34;0;0;
20816;-12,68;0;-12,68;0;2,67;4,69;2,67;4,69;0;0;
20836;24,86;-10,37;24,86;-10,37;9,42;4,95;9,42;4,95;0;0;
20856;50,04;-2,92;50,04;-2,92;14,77;4,44;14,77;4,44;0;0;
20873;-199,77;-3,27;-199,77;-3,27;30,45;4,28;30,45;4,28;0;0;
20890;1,16;-13,68;1,16;-13,68;37,72;4,23;37,72;4,23;0;0;
20907;61,19;-9,03;61,19;-9,03;45,51;4,36;45,51;4,36;0;0;
20923;-4,57;3,16;-4,57;3,16;53,12;4,47;53,12;4,47;0;0;
20943;80,38;-14,52;80,38;-14,52;59,31;5,78;59,31;5,78;0;0;
20961;-23,2;-7,1;-23,2;-7,1;58,68;5,92;58,68;5,92;0;0;
20979;-1,57;-9,43;-1,57;-9,43;56,98;5,81;56,98;5,81;0;0;
20999;56,62;-5,86;56,62;-5,86;57,81;5,17;57,81;5,17;0;0;
21017;56,62;-5,86;56,62;-5,86;60,01;4,76;60,01;4,76;0;0;
21032;-11,74;-2,13;-11,74;-2,13;57,99;3,89;57,99;3,89;0;0;
21050;9,37;-19,33;9,37;-19,33;55,91;3,33;55,91;3,33;0;0;
21069;-56;-0,19;-56;-0,19;51,08;3,78;51,08;3,78;0;0;
21086;-4,21;-8,51;-4,21;-8,51;51,47;3,94;51,47;3,94;1;0;
21105;-99,91;-8,97;-99,91;-8,97;50;4,21;50;4,21;1;0;
21123;-54,23;0,01;-54,23;0,01;47,96;4,89;47,96;4,89;1;0;
21146;-66,07;5,71;-66,07;5,71;53,31;5,39;53,31;5,39;1;0;
21167;5,6;1,8;5,6;1,8;57,11;5,33;57,11;5,33;1;0;
21184;3,61;-8,42;3,61;-8,42;55,27;4,74;55,27;4,74;1;0;
21200;-84,17;-10,83;-84,17;-10,83;53,43;5;53,43;5;1;0;
21218;79,14;-2,76;79,14;-2,76;51,39;4,7;51,39;4,7;1;0;
21235;79,14;-2,76;79,14;-2,76;45,45;4,46;45,45;4,46;1;0;
21251;33;-4,9;33;-4,9;49,02;3,64;49,02;3,64;1;0;
21267;-106,83;-7,62;-106,83;-7,62;48,63;3,56;48,63;3,56;1;0;
21284;-12,52;-10,28;-12,52;-10,28;54,01;4,09;54,01;4,09;1;0;
21303;-20,74;-7,41;-20,74;-7,41;52,78;3,68;52,78;3,68;1;0;
21324;-3,82;-12,15;-3,82;-12,15;53,91;3,43;53,91;3,43;1;0;
21342;-205,54;-7,71;-205,54;-7,71;51,69;3,1;51,69;3,1;1;0;
21359;51,55;-0,81;51,55;-0,81;60,73;3,71;60,73;3,71;1;0;
21375;51,55;-0,81;51,55;-0,81;64,31;4,14;64,31;4,14;1;0;
21391;1,76;-8,92;1,76;-8,92;66,57;3,97;66,57;3,97;1;0;
21409;-11,23;-1,23;-11,23;-1,23;62,31;4,09;62,31;4,09;1;0;
21428;-9,43;-6,51;-9,43;-6,51;58,99;3,99;58,99;3,99;0;0;
21446;45,24;-7,61;45,24;-7,61;54,35;3,9;54,35;3,9;0;0;
21463;-130,29;5,6;-130,29;5,6;52,23;3,53;52,23;3,53;0;0;
21485;-45,41;-9,38;-45,41;-9,38;50,11;3,39;50,11;3,39;0;0;
21503;-106,52;-0,79;-106,52;-0,79;49,85;3,37;49,85;3,37;0;0;
21523;-70,54;-8,96;-70,54;-8,96;58,53;3,65;58,53;3,65;0;0;
21542;-36,51;-3,63;-36,51;-3,63;56,84;3,5;56,84;3,5;0;0;
21557;-36,51;-3,63;-36,51;-3,63;49,73;3,5;49,73;3,5;0;0;
21575;17,51;-7,84;17,51;-7,84;46,65;3,02;46,65;3,02;0;0;
21594;-35,42;-5,38;-35,42;-5,38;40,88;2,98;40,88;2,98;0;0;
21610;-14,11;-10,49;-14,11;-10,49;32,74;2,66;32,74;2,66;0;0;
21628;-16,65;-5,85;-16,65;-5,85;22,98;2,4;22,98;2,4;0;0;
21651;-13,61;-7,21;-13,61;-7,21;16,92;2,5;16,92;2,5;0;0;
21670;-16,16;2,63;-16,16;2,63;8,69;2,51;8,69;2,51;0;0;
21687;-17,28;-6,18;-17,28;-6,18;4,72;2,38;4,72;2,38;0;0;
21704;-17,37;-6,06;-17,37;-6,06;3,52;2,43;3,52;2,43;0;0;
21723;-19,19;-4,4;-19,19;-4,4;3,52;2,28;3,52;2,28;0;0;
21742;-12,59;-9,1;-12,59;-9,1;3,49;2,48;3,49;2,48;0;0;
21764;-14,95;-7,03;-14,95;-7,03;3,2;2,19;3,2;2,19;0;0;
21783;-17,71;-6,09;-17,71;-6,09;2,73;2,17;2,73;2,17;0;0;
21801;-16,62;4,03;-16,62;4,03;2,27;3,02;2,27;3,02;0;0;
21819;-12,32;-14,56;-12,32;-14,56;2,41;4,08;2,41;4,08;0;0;
21836;-12,32;-14,56;-12,32;-14,56;2,43;5,2;2,43;5,2;0;0;
21852;-25,96;2,02;-25,96;2,02;2,89;5,79;2,89;5,79;0;0;
21870;-10,43;6,86;-10,43;6,86;3,32;6,47;3,32;6,47;0;0;
21887;-21,3;-10,85;-21,3;-10,85;3,56;5,84;3,56;5,84;0;0;
21904;-15,92;-0,81;-15,92;-0,81;3,54;5,84;3,54;5,84;0;0;
21922;-11,65;4,31;-11,65;4,31;3,45;5,24;3,45;5,24;0;0;
21940;-23,14;-16,81;-23,14;-16,81;3,29;5,17;3,29;5,17;0;0;
21963;-13,84;-11,41;-13,84;-11,41;3,55;5,23;3,55;5,23;0;0;
21979;-18,45;-13,4;-18,45;-13,4;3,31;5,84;3,31;5,84;0;0;
21994;-18,45;-13,4;-18,45;-13,4;2,9;6,04;2,9;6,04;0;0;
22012;-15,95;-6,71;-15,95;-6,71;2,99;5,46;2,99;5,46;0;0;
22029;-20,21;-5,68;-20,21;-5,68;2,91;5,25;2,91;5,25;0;0;
22045;-16,67;-1,88;-16,67;-1,88;2,57;4,3;2,57;4,3;0;0;
22064;-29,84;-5,72;-29,84;-5,72;3,57;3,64;3,57;3,64;0;0;
22080;-18,43;-7,23;-18,43;-7,23;5,67;2,79;5,67;2,79;0;0;
22098;-18,43;-7,23;-18,43;-7,23;7,63;2,34;7,63;2,34;0;0;
22120;-19,17;-7,18;-19,17;-7,18;7,8;2,29;7,8;2,29;0;0;
22137;-19,17;-7,18;-19,17;-7,18;7,78;2,22;7,78;2,22;0;0;
22154;-17,9;-5,47;-17,9;-5,47;7,35;2,13;7,35;2,13;0;0;
22170;-13,79;-0,38;-13,79;-0,38;5,09;2,31;5,09;2,31;0;0;
22188;-14,84;-7,48;-14,84;-7,48;3,1;2,49;3,1;2,49;0;0;
22205;-15,76;-7,33;-15,76;-7,33;2,34;2,43;2,34;2,43;0;0;
22223;-11,23;-4,46;-11,23;-4,46;2,39;2,41;2,39;2,41;0;0;
22240;-16,01;-8,18;-16,01;-8,18;2,24;2,47;2,24;2,47;0;0;
22258;-16,01;-8,18;-16,01;-8,18;2,28;2,43;2,28;2,43;0;0;
22278;-17,92;-7,89;-17,92;-7,89;2,46;2,44;2,46;2,44;0;0;
22293;-16,81;-2,93;-16,81;-2,93;2,35;2,4;2,35;2,4;0;0;
22312;-14,89;-7,54;-14,89;-7,54;2,43;2,38;2,43;2,38;0;0;
22329;-24,59;-3,93;-24,59;-3,93;2,31;2,27;2,31;2,27;0;0;
22348;-18,29;-9,46;-18,29;-9,46;2,5;2,27;2,5;2,27;0;0;
22366;-20,08;-3,16;-20,08;-3,16;2,39;2,2;2,39;2,2;0;0;
22386;-11,4;-6,74;-11,4;-6,74;2,31;2,24;2,31;2,24;0;0;
22404;-12,97;-4,18;-12,97;-4,18;2,36;2,27;2,36;2,27;0;0;
22420;-20,09;-1,77;-20,09;-1,77;2,28;2,21;2,28;2,21;0;0;
22438;-20,04;0,07;-20,04;0,07;2,04;2,28;2,04;2,28;0;0;
22455;-20,04;0,07;-20,04;0,07;2,01;2,14;2,01;2,14;0;0;
22474;-15,47;-5,45;-15,47;-5,45;2,05;2,2;2,05;2,2;0;0;
22490;-14,03;-6,08;-14,03;-6,08;2,15;2,16;2,15;2,16;0;0;
22507;-21,07;-6,35;-21,07;-6,35;2,26;2,24;2,26;2,24;0;0;
22523;-13,89;-5,92;-13,89;-5,92;2,11;2,07;2,11;2,07;0;0;
22542;-14,33;-6,05;-14,33;-6,05;2,2;1,99;2,2;1,99;0;0;
22558;-14,33;-6,05;-14,33;-6,05;2,19;1,91;2,19;1,91;0;0;
22574;-15,6;-6,18;-15,6;-6,18;2,04;1,93;2,04;1,93;0;0;
22594;-21,98;-1,68;-21,98;-1,68;2,07;2,08;2,07;2,08;0;0;
22612;-12,92;-11,08;-12,92;-11,08;2,46;2,24;2,46;2,24;0;0;
22629;-14,2;-3,52;-14,2;-3,52;2,52;2,33;2,52;2,33;0;0;
22647;-20,14;-6,09;-20,14;-6,09;2,56;2,3;2,56;2,3;0;0;
22664;-16,25;-4,48;-16,25;-4,48;2,47;2,34;2,47;2,34;0;0;
22680;-15,98;-2,05;-15,98;-2,05;2,62;2,31;2,62;2,31;0;0;
22696;-15,98;-2,05;-15,98;-2,05;2,36;2,22;2,36;2,22;0;0;
22713;-17,63;-4,52;-17,63;-4,52;2,53;1,95;2,53;1,95;0;0;
22731;-15,12;-7,82;-15,12;-7,82;2,45;1,87;2,45;1,87;0;0;
22753;-18,15;-5,88;-18,15;-5,88;2,27;1,92;2,27;1,92;0;0;
22770;-14,48;-8,39;-14,48;-8,39;2,2;1,99;2,2;1,99;0;0;
22786;-15,45;-5,22;-15,45;-5,22;2,01;2,04;2,01;2,04;0;0;
22802;-15,53;-10,47;-15,53;-10,47;1,7;1,95;1,7;1,95;0;0;
22819;-20,5;-6,29;-20,5;-6,29;1,7;2,13;1,7;2,13;0;0;
22835;-20,5;-6,29;-20,5;-6,29;1,7;2,28;1,7;2,28;0;0;
22851;-15,41;-10,06;-15,41;-10,06;1,96;2,49;1,96;2,49;0;0;
22869;-21,84;8,58;-21,84;8,58;2,04;2,87;2,04;2,87;0;0;
22887;-17;-19,79;-17;-19,79;2,45;4,1;2,45;4,1;0;0;
22908;-16,05;1,37;-16,05;1,37;3,38;5,57;3,38;5,57;0;0;
22924;-33,7;-2,74;-33,7;-2,74;4,48;8,31;4,48;8,31;0;0;
22943;-7,52;33,25;-7,52;33,25;6,55;12,06;6,55;12,06;0;0;
22960;-27,91;-45,66;-27,91;-45,66;7,76;17,93;7,76;17,93;0;0;
22976;-27,91;-45,66;-27,91;-45,66;8,71;22,64;8,71;22,64;0;0;
22992;2,96;-2,59;2,96;-2,59;9,66;24,29;9,66;24,29;0;1;
23010;-30,67;-48,21;-30,67;-48,21;9,72;29,02;9,72;29,02;0;1;
23028;-15,05;-6,14;-15,05;-6,14;8,62;28,76;8,62;28,76;0;1;
23047;-4,51;-2,49;-4,51;-2,49;8,23;28,89;8,23;28,89;0;1;
23069;11,63;20,08;11,63;20,08;9,42;26,94;9,42;26,94;0;1;
23087;-23,89;5,01;-23,89;5,01;9,1;25,2;9,1;25,2;0;1;
23104;-27,85;-12,92;-27,85;-12,92;8,37;22,82;8,37;22,82;0;1;
23123;-25,09;-16,49;-25,09;-16,49;9,77;21,72;9,77;21,72;0;1;
23140;-7,36;-32,43;-7,36;-32,43;9,58;21,72;9,58;21,72;0;1;
23158;-7,36;-32,43;-7,36;-32,43;8,67;23,24;8,67;23,24;0;1;
23175;-20,69;-0,59;-20,69;-0,59;6,99;20,27;6,99;20,27;0;1;
23192;-8,55;17,93;-8,55;17,93;7,04;17,11;7,04;17,11;0;1;
23209;-17,8;-5,28;-17,8;-5,28;5,83;13,56;5,83;13,56;0;1;
23231;-14,86;3,38;-14,86;3,38;4,59;13,21;4,59;13,21;0;1;
23247;-16,7;-13,52;-16,7;-13,52;4,13;11,21;4,13;11,21;0;1;
23264;-4,36;0,24;-4,36;0,24;4,45;10,63;4,45;10,63;0;1;
23286;-24,03;-23,81;-24,03;-23,81;4,54;11,21;4,54;11,21;0;1;
23304;-16,9;-5,01;-16,9;-5,01;4,09;10,8;4,09;10,8;0;1;
23323;-17,92;2,37;-17,92;2,37;3,93;10,79;3,93;10,79;0;0;
23343;-12,3;-10,86;-12,3;-10,86;3,75;10,29;3,75;10,29;0;0;
23360;-17,64;-3,19;-17,64;-3,19;3,56;7,95;3,56;7,95;0;0;
23384;-37,36;-4,73;-37,36;-4,73;2,93;5,43;2,93;5,43;0;0;
23403;2,25;-6,42;2,25;-6,42;8,97;4,05;8,97;4,05;0;0;
23422;-62,23;-4,78;-62,23;-4,78;14,55;3,78;14,55;3,78;0;0;
23437;-62,23;-4,78;-62,23;-4,78;20,07;2,92;20,07;2,92;0;0;
23455;16,38;-2,29;16,38;-2,29;25,2;2,76;25,2;2,76;0;0;
23475;-92,67;3,11;-92,67;3,11;34,97;2,83;34,97;2,83;0;0;
23492;-54,65;0,66;-54,65;0,66;44,3;3,3;44,3;3,3;0;0;
23508;-4,88;-7,65;-4,88;-7,65;45,39;3,11;45,39;3,11;0;0;
23525;-135,45;0,75;-135,45;0,75;50,45;3,27;50,45;3,27;0;0;
23548;-204,59;207,6;-204,59;207,6;57,87;33,57;57,87;33,57;0;0;
23567;164,27;-92,4;164,27;-92,4;77,82;47,32;77,82;47,32;0;0;
23587;88,08;-13,81;88,08;-13,81;78,54;55,94;78,54;55,94;0;0;
23604;-67,96;23,53;-67,96;23,53;85,14;57,27;85,14;57,27;0;0;
23622;-31,96;13,04;-31,96;13,04;83,97;59,38;83,97;59,38;0;0;
23638;-81,93;6,47;-81,93;6,47;79,31;49,33;79,31;49,33;0;0;
23655;-81,93;6,47;-81,93;6,47;67,98;24,81;67,98;24,81;0;0;
23673;85,09;-101,43;85,09;-101,43;68,9;16,77;68,9;16,77;0;0;
23690;-3,7;41,16;-3,7;41,16;72,74;22,11;72,74;22,11;0;0;
23744;-89,97;-20,44;-89,97;-20,44;80,45;20,69;80,45;20,69;1;0;
23763;1,22;-4,12;1,22;-4,12;85,16;19,11;85,16;19,11;1;0;
23781;-79,84;-2,12;-79,84;-2,12;89,43;18,69;89,43;18,69;1;0;
23801;74,32;-8,43;74,32;-8,43;88,76;17,12;88,76;17,12;1;0;
23818;74,32;-8,43;74,32;-8,43;87,3;8,27;87,3;8,27;1;0;
23836;-138,49;-2,18;-138,49;-2,18;77,97;3,89;77,97;3,89;1;0;
23854;-17,56;-4,62;-17,56;-4,62;77,36;3,17;77,36;3,17;1;0;
23876;14,22;-4,1;14,22;-4,1;76,48;3,21;76,48;3,21;1;0;
23892;34,04;-3,82;34,04;-3,82;73,04;3,34;73,04;3,34;1;0;
23909;-5,94;-14,83;-5,94;-14,83;71,63;3,91;71,63;3,91;1;0;
23927;-141,39;-5,75;-141,39;-5,75;71,76;4,15;71,76;4,15;1;0;
23947;-40,6;-5,5;-40,6;-5,5;74,24;3,51;74,24;3,51;1;0;
23965;7,14;-6,55;7,14;-6,55;69,44;3,83;69,44;3,83;1;0;
23982;214,59;-8,03;214,59;-8,03;76,8;4,08;76,8;4,08;1;0;
23998;214,59;-8,03;214,59;-8,03;82,83;4,28;82,83;4,28;1;0;
24017;55,81;-18,34;55,81;-18,34;80,15;4,22;80,15;4,22;1;0;
24036;31,93;-12,51;31,93;-12,51;71,3;4,6;71,3;4,6;1;0;
24055;76,76;-5,89;76,76;-5,89;74,71;5,67;74,71;5,67;0;0;
24073;9,13;-7,25;9,13;-7,25;71,31;5,7;71,31;5,7;0;0;
24091;-60,53;3,21;-60,53;3,21;63,85;6,28;63,85;6,28;0;0;
24108;37,22;-8,46;37,22;-8,46;56,13;6,58;56,13;6,58;0;0;
24125;-27,83;1,87;-27,83;1,87;53,41;6,5;53,41;6,5;0;0;
24147;20,85;-8,1;20,85;-8,1;51,12;5,76;51,12;5,76;0;0;
24163;-40,84;-4,63;-40,84;-4,63;50,03;4,88;50,03;4,88;0;0;
24181;-10,07;-8,79;-10,07;-8,79;51,03;4,15;51,03;4,15;0;0;
24203;-53,23;-13,8;-53,23;-13,8;45,87;3,65;45,87;3,65;0;0;
24222;-20,92;-5,28;-20,92;-5,28;41,17;3,58;41,17;3,58;0;0;
24238;2,99;-7,7;2,99;-7,7;36,56;3,18;36,56;3,18;0;0;
24254;2,99;-7,7;2,99;-7,7;28,76;2,99;28,76;2,99;0;0;
24273;-11,66;-9,21;-11,66;-9,21;18,74;3,21;18,74;3,21;0;0;
24293;-13,72;-3,81;-13,72;-3,81;12,52;3,5;12,52;3,5;0;0;
24309;-20,54;-5,15;-20,54;-5,15;9,86;3,23;9,86;3,23;0;0;
24326;-16,59;-15,18;-16,59;-15,18;8,97;3,68;8,97;3,68;0;0;
24346;-19,78;-5,95;-19,78;-5,95;5,9;3,72;5,9;3,72;0;0;
24367;-18,37;-5,44;-18,37;-5,44;2,61;3,47;2,61;3,47;0;0;
24385;-14,43;-12,19;-14,43;-12,19;2,1;3,27;2,1;3,27;0;0;
24402;-16,59;-3,73;-16,59;-3,73;2,14;3,66;2,14;3,66;0;0;
24419;-18,31;-11,96;-18,31;-11,96;2,19;3,83;2,19;3,83;0;0;
24435;-18,31;-11,96;-18,31;-11,96;2,25;3,87;2,25;3,87;0;0;
24453;-20,79;-17,91;-20,79;-17,91;2,7;5,06;2,7;5,06;0;0;
24469;-20,79;-17,91;-20,79;-17,91;3,12;6,38;3,12;6,38;0;0;
24486;-14,25;0,15;-14,25;0,15;3,32;6,13;3,32;6,13;0;0;
24504;-19,48;-6,22;-19,48;-6,22;3,3;6,04;3,3;6,04;0;0;
24523;-16,54;-13,19;-16,54;-13,19;3,23;5,97;3,23;5,97;0;0;
24541;-18,91;-3,56;-18,91;-3,56;2,91;5,51;2,91;5,51;0;0;
24559;-10,09;8,95;-10,09;8,95;2,57;5,05;2,57;5,05;0;0;
24576;-10,09;8,95;-10,09;8,95;2,41;4,7;2,41;4,7;0;0;
24594;-17,89;-6,88;-17,89;-6,88;2,18;4,65;2,18;4,65;0;0;
24612;-13,95;-5,26;-13,95;-5,26;2,31;5,15;2,31;5,15;0;0;
24630;-16,27;-12,71;-16,27;-12,71;2,78;4,97;2,78;4,97;0;0;
24647;-21,24;-5,76;-21,24;-5,76;2,86;4,38;2,86;4,38;0;0;
24667;-16,19;-7,74;-16,19;-7,74;2,82;3,63;2,82;3,63;0;0;
24688;-11,86;-11,33;-11,86;-11,33;2,7;3,4;2,7;3,4;0;0;
24706;-18,43;-4,39;-18,43;-4,39;2,68;2,9;2,68;2,9;0;0;
24723;-22,47;-5,29;-22,47;-5,29;2,35;2,8;2,35;2,8;0;0;
24740;-22,62;1,04;-22,62;1,04;2,5;2,79;2,5;2,79;0;0;
24759;-17,28;-6,06;-17,28;-6,06;2,37;2,81;2,37;2,81;0;0;
24775;-17,28;-6,06;-17,28;-6,06;2,48;2,84;2,48;2,84;0;0;
24790;-44;-6,42;-44;-6,42;5,51;3,03;5,51;3,03;0;0;
24807;-49,68;-3,36;-49,68;-3,36;8,59;3,21;8,59;3,21;0;0;
24824;13,04;-9,63;13,04;-9,63;15,21;3,42;15,21;3,42;0;0;
24844;-24,6;-13,43;-24,6;-13,43;21,02;3,42;21,02;3,42;0;0;
24866;-81,22;-5,1;-81,22;-5,1;28,64;3,5;28,64;3,5;0;0;
24883;-18,32;-8,04;-18,32;-8,04;32,96;3,8;32,96;3,8;1;0;
24900;18,95;-18,17;18,95;-18,17;42,1;4,28;42,1;4,28;1;0;
24918;18,95;-18,17;18,95;-18,17;47,56;4,68;47,56;4,68;0;0;
24940;-103,19;-2,92;-103,19;-2,92;45,85;4,37;45,85;4,37;0;0;
24962;-156,13;9,71;-156,13;9,71;52,08;4,88;52,08;4,88;0;0;
24977;-156,13;9,71;-156,13;9,71;56,27;5,67;56,27;5,67;0;0;
25000;-31,24;-13,11;-31,24;-13,11;50,79;5,9;50,79;5,9;0;0;
25021;-43,86;-6,05;-43,86;-6,05;45,1;5,42;45,1;5,42;0;0;
25037;-43,86;-6,05;-43,86;-6,05;43,8;4,86;43,8;4,86;0;0;
25056;-40,45;-4,83;-40,45;-4,83;45,88;4,73;45,88;4,73;0;0;
25073;-13,27;-7,18;-13,27;-7,18;43,56;4,23;43,56;4,23;0;0;
25090;-141,92;-2,03;-141,92;-2,03;47,43;3,92;47,43;3,92;0;0;
25107;-39,8;9,55;-39,8;9,55;50,9;4,95;50,9;4,95;0;0;
25122;156,74;-14,29;156,74;-14,29;59,61;5,44;59,61;5,44;0;0;
25140;-78,15;-2,04;-78,15;-2,04;61,45;5,67;61,45;5,67;0;0;
25160;84,51;-11,66;84,51;-11,66;65,75;6,35;65,75;6,35;0;0;
25177;84,51;-11,66;84,51;-11,66;67,28;6,51;67,28;6,51;0;0;
25193;152,15;-3,01;152,15;-3,01;76,02;6,27;76,02;6,27;0;0;
25210;-42,81;-7,62;-42,81;-7,62;81,6;5,11;81,6;5,11;0;0;
25229;-256,42;-7,18;-256,42;-7,18;89,08;4,91;89,08;4,91;0;0;
25244;28,93;-7,82;28,93;-7,82;94,39;4,71;94,39;4,71;0;0;
25261;-36,74;-9,38;-36,74;-9,38;96,08;4,28;96,08;4,28;0;0;
25280;44,05;-10,2;44,05;-10,2;85,78;3,8;85,78;3,8;0;0;
25297;44,05;-10,2;44,05;-10,2;68,93;3,53;68,93;3,53;0;0;
25317;-17,44;-5,46;-17,44;-5,46;56,36;3,43;56,36;3,43;0;0;
25336;-13,35;-1,16;-13,35;-1,16;31,03;2,79;31,03;2,79;0;0;
25353;-17,2;-0,89;-17,2;-0,89;13,99;2,71;13,99;2,71;0;0;
25370;-17,06;-7,4;-17,06;-7,4;10,28;2,52;10,28;2,52;0;0;
25389;-17,79;-1,95;-17,79;-1,95;5,39;2,35;5,39;2,35;0;0;
25408;-16,14;-3,41;-16,14;-3,41;2,3;2,45;2,3;2,45;0;0;
25426;-22,76;-5,96;-22,76;-5,96;2,88;2,34;2,88;2,34;0;0;
25442;-38,3;-5,81;-38,3;-5,81;4,28;2,19;4,28;2,19;0;0;
25458;-38,3;-5,81;-38,3;-5,81;5,83;2,14;5,83;2,14;0;0;
25479;11,84;-4,86;11,84;-4,86;7,35;2,03;7,35;2,03;0;0;
25495;11,84;-4,86;11,84;-4,86;8,79;1,96;8,79;1,96;0;0;
25513;-14,18;-7,67;-14,18;-7,67;9,03;1,83;9,03;1,83;0;0;
25532;-9,04;-7,17;-9,04;-7,17;8,39;2,05;8,39;2,05;0;0;
25549;-9,04;-7,17;-9,04;-7,17;6,85;2,26;6,85;2,26;0;0;
25565;-19,26;-4,35;-19,26;-4,35;5,67;2,46;5,67;2,46;0;0;
25582;-16,38;-4,38;-16,38;-4,38;4,48;2,68;4,48;2,68;0;0;
25600;-19,51;-9,03;-19,51;-9,03;2,94;2,93;2,94;2,93;0;0;
25617;-19,51;-9,03;-19,51;-9,03;2,77;2,78;2,77;2,78;0;0;
25637;-16,77;-6,62;-16,77;-6,62;2,98;2,61;2,98;2,61;0;0;
25653;-15,17;4,4;-15,17;4,4;2,6;2,98;2,6;2,98;0;0;
25670;-14,57;-14,38;-14,57;-14,38;2,7;3,29;2,7;3,29;0;0;
25688;-16,25;-4,65;-16,25;-4,65;2,37;3,3;2,37;3,3;0;0;
25705;-23,08;-11,77;-23,08;-11,77;2,28;3,35;2,28;3,35;0;0;
25723;-19,47;-7,61;-19,47;-7,61;2,35;3,67;2,35;3,67;0;0;
25741;-14,57;-0,57;-14,57;-0,57;2,19;3,62;2,19;3,62;0;0;
25756;-14,57;-0,57;-14,57;-0,57;2,29;3,18;2,29;3,18;0;0;
25774;-17,97;-7,79;-17,97;-7,79;2,12;2,66;2,12;2,66;0;0;
25794;-11,62;-3,67;-11,62;-3,67;2,56;2,95;2,56;2,95;0;0;
25813;-13,34;-9,74;-13,34;-9,74;2,62;3,31;2,62;3,31;0;0;
25830;-18,12;0,81;-18,12;0,81;2,78;3,94;2,78;3,94;0;0;
25846;-13,72;14,64;-13,72;14,64;2,78;5,54;2,78;5,54;0;0;
25863;-19,1;-9,65;-19,1;-9,65;2,9;5,81;2,9;5,81;0;0;
25883;-15,8;-7,77;-15,8;-7,77;2,85;6,21;2,85;6,21;0;0;
25901;-16,66;-4,6;-16,66;-4,6;2,4;6;2,4;6;0;0;
25917;-16,66;-4,6;-16,66;-4,6;2;5,3;2;5,3;0;0;
25934;-17,65;-1,53;-17,65;-1,53;2,1;4,39;2,1;4,39;0;0;
25955;-15,77;-4,38;-15,77;-4,38;2,97;3,15;2,97;3,15;0;0;
25974;3,94;-3,48;3,94;-3,48;4,78;2,81;4,78;2,81;0;0;
25990;-36,36;-4,02;-36,36;-4,02;6,72;2,66;6,72;2,66;0;0;
26009;1,22;-4,94;1,22;-4,94;9,19;2,21;9,19;2,21;0;0;
26027;-14,54;-5,8;-14,54;-5,8;9,88;2,16;9,88;2,16;0;0;
26042;-2,77;-9,73;-2,77;-9,73;13,9;2,4;13,9;2,4;0;0;
26060;-14,09;-4,11;-14,09;-4,11;13,86;2,41;13,86;2,41;0;0;
26077;-14,09;-4,11;-14,09;-4,11;13,09;2,48;13,09;2,48;0;0;
26096;1,83;-4,5;1,83;-4,5;12,29;2,53;12,29;2,53;0;0;
26115;-2,19;-0,79;-2,19;-0,79;12,6;2,6;12,6;2,6;0;0;
26133;29,37;-3,89;29,37;-3,89;13,91;2,31;13,91;2,31;0;0;
26150;10,77;-4,53;10,77;-4,53;15,33;2,43;15,33;2,43;0;0;
26167;-5,4;-8,5;-5,4;-8,5;16,83;2,67;16,83;2,67;0;0;
26185;-32,8;-7,28;-32,8;-7,28;20,26;2,82;20,26;2,82;0;0;
26204;-15,62;-1,59;-15,62;-1,59;24,49;3,12;24,49;3,12;0;0;
26220;-62,2;-7,98;-62,2;-7,98;27,19;3,18;27,19;3,18;0;0;
26237;-62,2;-7,98;-62,2;-7,98;27,92;3,21;27,92;3,21;0;0;
26254;-13,78;-9,41;-13,78;-9,41;26,31;2,83;26,31;2,83;0;0;
26274;-56,65;-3,01;-56,65;-3,01;24,91;2,8;24,91;2,8;0;0;
26292;-16,14;-12,06;-16,14;-12,06;19,6;2,71;19,6;2,71;0;0;
26310;-16,76;-3,96;-16,76;-3,96;14,94;2,4;14,94;2,4;0;0;
26327;-20,16;-15,61;-20,16;-15,61;10,21;2,55;10,21;2,55;0;0;
26345;-18,64;-3,33;-18,64;-3,33;5,7;2,82;5,7;2,82;0;0;
26362;-21,12;-6,68;-21,12;-6,68;3,78;2,57;3,78;2,57;0;0;
26380;-16,67;-8,15;-16,67;-8,15;2,28;2,52;2,28;2,52;0;0;
26398;-16,54;-6,05;-16,54;-6,05;2,29;2,39;2,29;2,39;0;0;
26421;-16,75;-10,1;-16,75;-10,1;2,39;2,37;2,39;2,37;0;0;
26441;-17,55;-4,36;-17,55;-4,36;2,53;1,93;2,53;1,93;0;0;
26457;-17,55;-4,36;-17,55;-4,36;2,34;1,96;2,34;1,96;0;0;
26474;-18,52;-3,69;-18,52;-3,69;2,24;1,98;2,24;1,98;0;0;
26492;-14,33;-5,63;-14,33;-5,63;2,18;1,99;2,18;1,99;0;0;
26511;-19,13;-11,37;-19,13;-11,37;2,02;2;2,02;2;0;0;
26527;-14,58;-8,4;-14,58;-8,4;2,08;1,81;2,08;1,81;0;0;
26545;-10,99;-9,62;-10,99;-9,62;2,07;1,86;2,07;1,86;0;0;
26562;-19,72;-5,74;-19,72;-5,74;2,28;1,88;2,28;1,88;0;0;
26578;-19,72;-5,74;-19,72;-5,74;2,51;1,9;2,51;1,9;0;0;
26598;-11,63;-6,07;-11,63;-6,07;2,74;1,86;2,74;1,86;0;0;
26616;-13,24;-8,24;-13,24;-8,24;2,73;2,07;2,73;2,07;0;0;
26633;-12,64;-1,28;-12,64;-1,28;2,78;2,55;2,78;2,55;0;0;
26648;-14,68;-11,6;-14,68;-11,6;3,1;2,62;3,1;2,62;0;0;
26665;-25,97;-9,79;-25,97;-9,79;7;2,87;7;2,87;0;0;
26685;-68,3;-13,88;-68,3;-13,88;8,85;3,36;8,85;3,36;0;0;
26702;-66,94;-2,18;-66,94;-2,18;15,68;3,62;15,68;3,62;0;0;
26722;34,37;-6,57;34,37;-6,57;23,66;3,49;23,66;3,49;0;0;
26740;22,3;-13,2;22,3;-13,2;30,93;3,42;30,93;3,42;0;0;
26761;-69,18;-5,84;-69,18;-5,84;44,96;3,47;44,96;3,47;0;0;
26779;-54,09;-2,44;-54,09;-2,44;50,66;3,59;50,66;3,59;0;0;
26795;-54,09;-2,44;-54,09;-2,44;54,68;3,21;54,68;3,21;0;0;
26813;-80,53;-4,86;-80,53;-4,86;53,84;3,27;53,84;3,27;1;0;
26832;-167,7;-2,6;-167,7;-2,6;56,02;3,7;56,02;3,7;1;0;
26850;-14,13;-7,09;-14,13;-7,09;53,92;3,8;53,92;3,8;1;0;
26867;90,43;1,28;90,43;1,28;48,89;3,91;48,89;3,91;1;0;
26884;39,81;-4,21;39,81;-4,21;54,5;4,12;54,5;4,12;1;0;
26902;120,91;2,87;120,91;2,87;57,28;4,03;57,28;4,03;1;0;
26922;-37,13;-5,91;-37,13;-5,91;70,65;3,96;70,65;3,96;1;0;
26939;103,3;-8;103,3;-8;64,51;3,58;64,51;3,58;1;0;
26956;103,3;-8;103,3;-8;65,77;3,66;65,77;3,66;1;0;
26974;86,85;-6,53;86,85;-6,53;64,62;3,31;64,62;3,31;1;0;
26992;-9,59;-4,35;-9,59;-4,35;80,72;3,18;80,72;3,18;1;0;
27014;24,52;2,33;24,52;2,33;73,96;2,9;73,96;2,9;1;0;
27030;31,48;-0,29;31,48;-0,29;61,84;3,17;61,84;3,17;1;0;
27048;-38,86;-8,18;-38,86;-8,18;54,33;3,32;54,33;3,32;1;0;
27064;-20,29;-8,9;-20,29;-8,9;48,41;3,09;48,41;3,09;1;0;
27084;-17,61;-12,51;-17,61;-12,51;28,22;3,23;28,22;3,23;1;0;
27100;-18,39;-5,52;-18,39;-5,52;14,17;3,49;14,17;3,49;1;0;
27119;-11,3;-15,4;-11,3;-15,4;8,81;4,28;8,81;4,28;1;0;
27138;-11,3;-15,4;-11,3;-15,4;3,98;4,66;3,98;4,66;1;0;
27153;-15,77;-7,3;-15,77;-7,3;2,84;4,88;2,84;4,88;1;0;
27168;-15,31;-0,9;-15,31;-0,9;2,37;4,94;2,37;4,94;0;0;
27186;-11,07;-5,19;-11,07;-5,19;2,44;4,81;2,44;4,81;0;0;
27203;-25,18;-7,01;-25,18;-7,01;2,79;4,54;2,79;4,54;0;0;
27221;-20;-3,59;-20;-3,59;2,81;3,81;2,81;3,81;0;0;
27243;-18,5;-4,75;-18,5;-4,75;2,9;2,78;2,9;2,78;0;0;
27263;-9,54;-5,95;-9,54;-5,95;3,02;2,69;3,02;2,69;0;0;
27282;17,51;4,8;17,51;4,8;5,75;2,92;5,75;2,92;0;0;
27300;-111,32;-25,92;-111,32;-25,92;9,54;3,6;9,54;3,6;0;0;
27316;-111,32;-25,92;-111,32;-25,92;13,26;4,47;13,26;4,47;0;0;
27332;-178,18;0,4;-178,18;0,4;22,06;4,9;22,06;4,9;0;0;
27350;55,08;-4,1;55,08;-4,1;38;5,43;38;5,43;0;0;
27367;-28,52;-16,87;-28,52;-16,87;40,85;5,58;40,85;5,58;0;0;
27385;-16,87;-2,27;-16,87;-2,27;47,53;5,51;47,53;5,51;0;0;
27408;42,47;-1,49;42,47;-1,49;48,95;4,69;48,95;4,69;0;0;
27430;-16,73;-10,33;-16,73;-10,33;45,09;4,37;45,09;4,37;0;0;
27446;40,48;-6,05;40,48;-6,05;35,45;4,36;35,45;4,36;0;0;
27464;16,47;-3,14;16,47;-3,14;28,32;4,53;28,32;4,53;0;0;
27483;-48,64;-6,95;-48,64;-6,95;28,93;4,16;28,93;4,16;1;0;
27499;-55,5;-2,56;-55,5;-2,56;35,02;4,19;35,02;4,19;1;0;
27515;-55,5;-2,56;-55,5;-2,56;40,81;4,16;40,81;4,16;1;0;
27532;9,99;-1,62;9,99;-1,62;42,98;3,23;42,98;3,23;1;0;
27551;-27,12;-7,05;-27,12;-7,05;47,64;2,8;47,64;2,8;1;0;
27573;54,11;2,46;54,11;2,46;58,56;3,43;58,56;3,43;1;0;
27590;-96,24;-6,27;-96,24;-6,27;54,34;3,62;54,34;3,62;1;0;
27609;-76,63;-6,69;-76,63;-6,69;53,69;3,57;53,69;3,57;1;0;
27627;-5,78;-0,84;-5,78;-0,84;57,36;3,81;57,36;3,81;1;0;
27645;136,81;-5,35;136,81;-5,35;60,91;3,9;60,91;3,9;1;0;
27663;-2,07;-9,35;-2,07;-9,35;69,98;4,18;69,98;4,18;1;0;
27681;-56,7;-1,54;-56,7;-1,54;66,56;3,43;66,56;3,43;1;0;
27699;-39,2;-16,23;-39,2;-16,23;69,27;3,64;69,27;3,64;1;0;
27718;-39,2;-16,23;-39,2;-16,23;69,81;4,21;69,81;4,21;1;0;
27739;108,79;-6,52;108,79;-6,52;73,23;4;73,23;4;1;0;
27757;108,79;-6,52;108,79;-6,52;70,12;4,09;70,12;4,09;1;0;
27776;-17,83;-6,38;-17,83;-6,38;64,15;3,65;64,15;3,65;1;0;
27794;26,62;-10,71;26,62;-10,71;66,67;4;66,67;4;1;0;
27812;61,9;-10,45;61,9;-10,45;64,87;3,71;64,87;3,71;1;0;
27828;-21,45;-5,23;-21,45;-5,23;59,37;3,06;59,37;3,06;1;0;
27845;-4,96;-5,33;-4,96;-5,33;50,21;2,81;50,21;2,81;0;0;
27862;-10,62;-4,08;-10,62;-4,08;36,75;2,95;36,75;2,95;0;0;
27882;-27,44;0,67;-27,44;0,67;25,61;2,99;25,61;2,99;0;0;
27905;-18,44;-3,7;-18,44;-3,7;16,33;2,44;16,33;2,44;0;0;
27925;-16,74;-5,85;-16,74;-5,85;10,89;2,61;10,89;2,61;0;0;
27940;-15,14;-3,77;-15,14;-3,77;6,03;2,71;6,03;2,71;0;0;
27962;-9,84;-3,75;-9,84;-3,75;3,73;2,59;3,73;2,59;0;0;
27979;-21,89;-3,25;-21,89;-3,25;4,25;2,64;4,25;2,64;0;0;
27995;-21,89;-3,25;-21,89;-3,25;4,46;2,57;4,46;2,57;0;0;
28015;-13,51;-6,41;-13,51;-6,41;4,54;2,46;4,54;2,46;0;0;
28032;-18,67;-3,76;-18,67;-3,76;4,32;2,32;4,32;2,32;0;0;
28055;-22,18;-6,67;-22,18;-6,67;4,66;2,36;4,66;2,36;0;0;
28073;-18,1;1,38;-18,1;1,38;4,79;2,82;4,79;2,82;0;0;
28090;-17,73;-11,08;-17,73;-11,08;4,16;3,35;4,16;3,35;0;0;
28108;-19,54;-11,83;-19,54;-11,83;3,56;3,72;3,56;3,72;0;0;
28126;-15,28;-4,64;-15,28;-4,64;3,78;3,72;3,78;3,72;0;0;
28144;-15,79;-9,11;-15,79;-9,11;4,3;3,97;4,3;3,97;0;0;
28162;-19,92;-5,47;-19,92;-5,47;3,72;3,61;3,72;3,61;0;0;
28178;-19,92;-5,47;-19,92;-5,47;4;3,08;4;3,08;0;0;
28196;-11,46;-0,54;-11,46;-0,54;3,91;3,14;3,91;3,14;0;0;
28218;-11,58;-14,47;-11,58;-14,47;4,23;3,46;4,23;3,46;0;0;
28234;-20,99;-7,31;-20,99;-7,31;3,91;3,64;3,91;3,64;0;0;
28251;-17,49;-0,78;-17,49;-0,78;3,52;3,8;3,52;3,8;0;0;
28267;-18,63;-6,44;-18,63;-6,44;3,2;4,15;3,2;4,15;0;0;
28284;-18,93;-0,42;-18,93;-0,42;3,16;4,32;3,16;4,32;0;0;
28302;-17,95;-1,56;-17,95;-1,56;2,99;3,9;2,99;3,9;0;0;
28319;-19,28;-6,44;-19,28;-6,44;2,65;3,37;2,65;3,37;0;0;
28335;-19,28;-6,44;-19,28;-6,44;2,67;3,19;2,67;3,19;0;0;
28353;-18,12;-3,92;-18,12;-3,92;2,69;2,95;2,69;2,95;0;0;
28374;-20,27;-4,34;-20,27;-4,34;2,52;2,92;2,52;2,92;0;0;
28391;-18,6;-7,29;-18,6;-7,29;2,32;2,63;2,32;2,63;0;0;
28407;-16,73;-8,76;-16,73;-8,76;2,24;2,54;2,24;2,54;0;0;
28425;-17,63;-6,4;-17,63;-6,4;2,09;2,46;2,09;2,46;0;0;
28441;-17,46;-4,32;-17,46;-4,32;1,99;2,63;1,99;2,63;0;0;
28460;-17,43;-7,63;-17,43;-7,63;2,44;2,52;2,44;2,52;0;0;
28478;-17,43;-7,63;-17,43;-7,63;2,76;2,83;2,76;2,83;0;0;
28493;-13,98;-4,67;-13,98;-4,67;3;2,83;3;2,83;0;0;
28510;-20,72;-2,14;-20,72;-2,14;3,16;2,74;3,16;2,74;0;0;
28532;-11,37;-5,02;-11,37;-5,02;3,32;2,65;3,32;2,65;0;0;
28549;-15,93;-5,71;-15,93;-5,71;3,29;2,7;3,29;2,7;0;0;
28567;-14;-0,49;-14;-0,49;3,21;2,36;3,21;2,36;0;0;
28583;-18,27;-7,16;-18,27;-7,16;3,47;2;3,47;2;0;0;
28600;-35,42;-4,51;-35,42;-4,51;4,81;2,42;4,81;2,42;0;0;
28619;-35,42;-4,51;-35,42;-4,51;6,25;2,89;6,25;2,89;0;0;
28638;-16,27;-2,14;-16,27;-2,14;6,55;2,98;6,55;2,98;0;0;
28656;-16,57;-8,19;-16,57;-8,19;6,54;3,2;6,54;3,2;0;0;
28673;-17,1;-4,7;-17,1;-4,7;6,26;3,57;6,26;3,57;0;0;
28693;-13,98;-8,41;-13,98;-8,41;5,98;3,28;5,98;3,28;0;0;
28711;0,3;-7,84;0,3;-7,84;7,78;2,99;7,78;2,99;0;0;
28730;60,93;-10,37;60,93;-10,37;12,44;2,75;12,44;2,75;1;0;
28747;-134,5;-18,81;-134,5;-18,81;28,51;3,17;28,51;3,17;1;0;
28765;30,22;1,03;30,22;1,03;38,47;3,41;38,47;3,41;1;0;
28780;-2,54;-10,33;-2,54;-10,33;42,27;3,67;42,27;3,67;1;0;
28798;-2,54;-10,33;-2,54;-10,33;45,15;4,2;45,15;4,2;0;0;
28819;-88,03;-9,86;-88,03;-9,86;52,47;4,3;52,47;4,3;0;0;
28839;-70,51;-4,96;-70,51;-4,96;49,3;4,05;49,3;4,05;0;0;
28860;-133,99;-5,15;-133,99;-5,15;44,12;3,62;44,12;3,62;0;0;
28879;31,9;-12,82;31,9;-12,82;43,81;3,5;43,81;3,5;0;0;
28896;31,9;-12,82;31,9;-12,82;47,26;3,23;47,26;3,23;0;0;
28912;-58,62;-18,7;-58,62;-18,7;51,75;3,18;51,75;3,18;0;0;
28930;55,2;-4,65;55,2;-4,65;50,13;3,63;50,13;3,63;0;0;
28948;-58,65;-5,64;-58,65;-5,64;54,41;3,35;54,41;3,35;0;0;
28965;33,76;-9,74;33,76;-9,74;50,55;3,54;50,55;3,54;0;0;
28984;-155,52;0,29;-155,52;0,29;53,48;3,77;53,48;3,77;0;0;
29001;-44,66;-5,21;-44,66;-5,21;54,8;3,91;54,8;3,91;0;0;
29022;-182,16;3,22;-182,16;3,22;60,3;3,71;60,3;3,71;0;0;
29040;2,52;-4,72;2,52;-4,72;62,45;4,67;62,45;4,67;0;0;
29056;2,52;-4,72;2,52;-4,72;67,09;5,7;67,09;5,7;0;0;
29074;29,06;-3,72;29,06;-3,72;66,79;5,61;66,79;5,61;0;0;
29092;-5,49;-0,25;-5,49;-0,25;59,88;5,46;59,88;5,46;0;0;
29109;-24,81;-10,46;-24,81;-10,46;53,01;5,29;53,01;5,29;0;0;
29128;-12,24;-2,28;-12,24;-2,28;35,01;4,08;35,01;4,08;0;0;
29145;-17,52;-2,73;-17,52;-2,73;23,44;3,08;23,44;3,08;0;0;
29162;-19,16;-0,07;-19,16;-0,07;17,21;2,74;17,21;2,74;0;0;
29182;-19,16;-0,07;-19,16;-0,07;6;2,34;6;2,34;0;0;
29199;-12,96;-5,34;-12,96;-5,34;3,39;2,41;3,39;2,41;0;0;
29217;-12,96;-5,34;-12,96;-5,34;2,47;2,64;2,47;2,64;0;0;
29235;-18,8;-2,64;-18,8;-2,64;2,69;2,57;2,69;2,57;0;0;
29252;-18,71;-11,43;-18,71;-11,43;2,94;2,74;2,94;2,74;0;0;
29270;-15,82;-7,08;-15,82;-7,08;2,89;2,89;2,89;2,89;0;0;
29286;-21,78;-6,11;-21,78;-6,11;2,77;2,89;2,77;2,89;0;0;
29304;-22,24;3,33;-22,24;3,33;2,84;2,94;2,84;2,94;0;0;
29320;-15,12;-7,69;-15,12;-7,69;2,55;2,89;2,55;2,89;0;0;
29343;-16,3;2,34;-16,3;2,34;2,47;3,19;2,47;3,19;0;0;
29359;-14,62;-5,35;-14,62;-5,35;2,45;3,23;2,45;3,23;0;0;
29376;-14,62;-5,35;-14,62;-5,35;2,57;3,59;2,57;3,59;0;0;
29393;-17,63;-0,97;-17,63;-0,97;2,65;3,73;2,65;3,73;0;0;
29408;-17,63;-0,97;-17,63;-0,97;2,34;3,8;2,34;3,8;0;0;
29427;-14,99;-10,86;-14,99;-10,86;2,33;3,88;2,33;3,88;0;0;
29443;-19,72;-13;-19,72;-13;2,45;3,77;2,45;3,77;0;0;
29460;-14,9;9,71;-14,9;9,71;2,53;4,96;2,53;4,96;0;0;
29478;-20,58;-10,73;-20,58;-10,73;2,48;5,71;2,48;5,71;0;0;
29503;-12,63;-2,3;-12,63;-2,3;2,38;5,7;2,38;5,7;0;0;
29520;-18,13;-6,3;-18,13;-6,3;2,29;5,7;2,29;5,7;0;0;
29537;-18,13;-6,3;-18,13;-6,3;2,25;5,72;2,25;5,72;0;0;
29554;-10,48;-6,34;-10,48;-6,34;2,39;4,65;2,39;4,65;0;0;
29571;-32,29;-5,47;-32,29;-5,47;2,69;2,9;2,69;2,9;0;0;
29587;-41,35;-5,71;-41,35;-5,71;4,75;2,64;4,75;2,64;0;0;
29605;-17,23;-5,09;-17,23;-5,09;5,6;2,52;5,6;2,52;0;0;
29622;-15,18;-7,87;-15,18;-7,87;5,66;2,23;5,66;2,23;0;0;
29639;-21,81;-6,63;-21,81;-6,63;5,48;2,49;5,48;2,49;0;0;
29660;-16,05;-3,37;-16,05;-3,37;5,29;2,79;5,29;2,79;0;0;
29677;-16,05;-3,37;-16,05;-3,37;4,33;2,91;4,33;2,91;0;0;
29694;-18,59;-5,43;-18,59;-5,43;2,08;3,14;2,08;3,14;0;0;
29712;-15,57;-3,46;-15,57;-3,46;1,83;2,85;1,83;2,85;0;0;
29730;-20,82;-6,17;-20,82;-6,17;2,2;2,52;2,2;2,52;0;0;
29749;-23,35;-5,85;-23,35;-5,85;2,28;2,22;2,28;2,22;0;0;
29765;-20,83;-10,73;-20,83;-10,73;2,2;2,02;2,2;2,02;0;0;
29780;-16,28;-4,89;-16,28;-4,89;2,12;2,05;2,12;2,05;0;0;
29795;-16,28;-4,89;-16,28;-4,89;2,05;2,15;2,05;2,15;0;0;
29814;-18,58;-8,23;-18,58;-8,23;1,99;2,17;1,99;2,17;0;0;
29831;-19,56;-6,67;-19,56;-6,67;1,74;2,09;1,74;2,09;0;0;
29848;-15,53;-8,73;-15,53;-8,73;1,68;2,17;1,68;2,17;0;0;
29866;-13,4;-5,22;-13,4;-5,22;1,76;2,15;1,76;2,15;0;0;
29883;-11,57;-4,54;-11,57;-4,54;2;1,92;2;1,92;0;0;
29900;-11,56;-7,45;-11,56;-7,45;2,12;1,89;2,12;1,89;0;0;
29915;-11,56;-7,45;-11,56;-7,45;2,28;1,79;2,28;1,79;0;0;
29933;-18,47;-0,45;-18,47;-0,45;2,2;2,01;2,2;2,01;0;0;
29951;-20,61;-3,04;-20,61;-3,04;2,43;1,98;2,43;1,98;0;0;
29975;-16,87;-4,61;-16,87;-4,61;2,42;2,21;2,42;2,21;0;0;
29990;-13,89;-5,58;-13,89;-5,58;2,83;2,4;2,83;2,4;0;0;
30008;-13,6;-9,65;-13,6;-9,65;2,62;2,41;2,62;2,41;0;0;
30025;-12,35;-4,24;-12,35;-4,24;2,71;2,32;2,71;2,32;0;0;
30042;-12,35;-4,24;-12,35;-4,24;2,59;2,04;2,59;2,04;0;0;
30058;-12,35;-4,24;-12,35;-4,24;2,62;1,8;2,62;1,8;0;0;
30074;-17;-4,49;-17;-4,49;2,28;1,5;2,28;1,5;0;0;
30090;-17,72;-0,94;-17,72;-0,94;2,31;1,42;2,31;1,42;0;0;
30108;-17,55;-7,83;-17,55;-7,83;2,53;1,58;2,53;1,58;0;0;
30131;-16,96;-3,3;-16,96;-3,3;2,49;1,91;2,49;1,91;0;0;
30150;-13,04;-8,42;-13,04;-8,42;2,35;2,09;2,35;2,09;0;0;
30169;-20,91;-3,88;-20,91;-3,88;2,49;2,32;2,49;2,32;0;0;
30187;-19,08;-3,06;-19,08;-3,06;2,57;2,44;2,57;2,44;0;0;
30203;-19,08;-3,06;-19,08;-3,06;2,59;2,6;2,59;2,6;0;0;
30221;-14,56;-4,45;-14,56;-4,45;2,41;2,59;2,41;2,59;0;0;
30239;-17,34;-7,86;-17,34;-7,86;2,75;2,4;2,75;2,4;0;0;
30257;-17,34;-7,86;-17,34;-7,86;2,96;2,36;2,96;2,36;0;0;
30274;-15,6;-1,64;-15,6;-1,64;2,74;2,25;2,74;2,25;0;0;
30294;-19,76;-6,37;-19,76;-6,37;2,65;2,42;2,65;2,42;0;0;
30311;-13,95;-2,47;-13,95;-2,47;2,39;2,19;2,39;2,19;0;0;
30327;-19,16;-5,46;-19,16;-5,46;2,34;2,44;2,34;2,44;0;0;
30345;-11,47;-5,36;-11,47;-5,36;1,92;2,36;1,92;2,36;0;0;
30362;-16,18;-3,51;-16,18;-3,51;1,77;2,36;1,77;2,36;0;0;
30380;-15,24;-5,23;-15,24;-5,23;1,97;2,27;1,97;2,27;0;0;
30394;-15,24;-5,23;-15,24;-5,23;2,26;2,39;2,26;2,39;0;0;
30413;-13,79;-11,75;-13,79;-11,75;2,44;2,29;2,44;2,29;0;0;
30429;-15,05;-5,89;-15,05;-5,89;2,57;2,43;2,57;2,43;0;0;
30452;-24,91;-9,75;-24,91;-9,75;3,01;2,3;3,01;2,3;0;0;
30468;-8,43;-6,07;-8,43;-6,07;3,22;2,27;3,22;2,27;0;0;
30484;-13,95;-6,31;-13,95;-6,31;3,13;2,42;3,13;2,42;0;0;
30503;-14,39;-5,32;-14,39;-5,32;3;2,5;3;2,5;0;0;
30522;-20,06;-3,56;-20,06;-3,56;3,07;2,95;3,07;2,95;0;0;
30540;-14,84;-4;-14,84;-4;3,59;3;3,59;3;0;0;
30556;-14,84;-4;-14,84;-4;3,6;2,99;3,6;2,99;0;0;
30575;-15,86;13,16;-15,86;13,16;3,42;4,81;3,42;4,81;0;0;
30593;-28,17;-22,54;-28,17;-22,54;4,41;7,59;4,41;7,59;0;0;
30614;-24,58;14;-24,58;14;5,22;13,38;5,22;13,38;0;0;
30631;-16,68;-23,57;-16,68;-23,57;5;18,25;5;18,25;0;0;
30649;-13,15;-0,5;-13,15;-0,5;6,66;21,54;6,66;21,54;0;0;
30668;-11,77;-11,23;-11,77;-11,23;7,68;25,74;7,68;25,74;0;0;
30684;-3,65;-5,19;-3,65;-5,19;9,51;26,4;9,51;26,4;0;0;
30703;-23,63;45,41;-23,63;45,41;9,89;27,26;9,89;27,26;0;0;
30721;-41,84;33,32;-41,84;33,32;11,25;26,51;11,25;26,51;0;0;
30739;-10,11;-32,79;-10,11;-32,79;11,86;27,38;11,86;27,38;0;0;
30756;-10,11;-32,79;-10,11;-32,79;12,67;26,73;12,67;26,73;0;0;
30780;-13,79;-26,94;-13,79;-26,94;12,1;29,09;12,1;29,09;0;0;
30799;-13,58;2,15;-13,58;2,15;9,8;29,66;9,8;29,66;0;0;
30816;-13,58;2,15;-13,58;2,15;9,2;28,53;9,2;28,53;0;0;
30832;-11,57;-14,09;-11,57;-14,09;8,92;24,46;8,92;24,46;0;0;
30849;-21,24;16,14;-21,24;16,14;7,23;20,99;7,23;20,99;0;0;
30866;-18,98;-16,86;-18,98;-16,86;6,73;19,1;6,73;19,1;0;0;
30881;-23,08;4,76;-23,08;4,76;6,64;16,91;6,64;16,91;0;0;
30899;-16,11;-57,08;-16,11;-57,08;7,39;18,23;7,39;18,23;0;0;
30915;-16,11;-57,08;-16,11;-57,08;6,28;19,19;6,28;19,19;0;0;
30935;-20,25;1,24;-20,25;1,24;6,09;19,49;6,09;19,49;0;0;
30953;-12,09;-10,36;-12,09;-10,36;6,41;18,86;6,41;18,86;0;0;
30972;-14,69;-1,6;-14,69;-1,6;6,18;16,47;6,18;16,47;0;0;
30990;-17,88;-38,25;-17,88;-38,25;5,45;15,77;5,45;15,77;0;0;
31007;-10,55;5,99;-10,55;5,99;4,78;13,55;4,78;13,55;0;0;
31024;-13,32;-16,74;-13,32;-16,74;4,82;10,51;4,82;10,51;0;0;
31046;-13,76;-12,85;-13,76;-12,85;4,16;10,3;4,16;10,3;0;0;
31063;-18,48;-10,94;-18,48;-10,94;3,73;10,79;3,73;10,79;0;0;
31080;-6,07;-3,31;-6,07;-3,31;3,75;11,39;3,75;11,39;0;0;
31101;-15,18;-8,65;-15,18;-8,65;4;8,07;4;8,07;0;0;
31119;-22,26;4,17;-22,26;4,17;3,28;7,05;3,28;7,05;0;0;
31136;-22,26;4,17;-22,26;4,17;3,38;7,13;3,38;7,13;0;0;
31153;-13,62;-1,01;-13,62;-1,01;3,27;6,42;3,27;6,42;0;0;
31169;-16,99;-4,96;-16,99;-4,96;3,55;5,49;3,55;5,49;0;0;
31186;-21,19;-9,33;-21,19;-9,33;3,59;5,22;3,59;5,22;0;0;
31230;-16,44;-9,14;-16,44;-9,14;3,58;4,95;3,58;4,95;0;0;
31251;-13,62;-8,98;-13,62;-8,98;3,33;5,09;3,33;5,09;0;0;
31267;-16,52;-8,53;-16,52;-8,53;3,32;4,6;3,32;4,6;0;0;
31285;-18,38;-8,71;-18,38;-8,71;2,85;4,27;2,85;4,27;0;0;
31302;-14,03;-5,86;-14,03;-5,86;2,69;4,16;2,69;4,16;0;0;
31317;-14,03;-5,86;-14,03;-5,86;2,4;3,83;2,4;3,83;0;0;
31334;-15,75;-5,71;-15,75;-5,71;2,54;2,99;2,54;2,99;0;0;
31351;-25,12;-4,94;-25,12;-4,94;3,06;2,45;3,06;2,45;0;0;
31373;-13,57;-9,85;-13,57;-9,85;3,31;2,47;3,31;2,47;0;0;
31396;-15,43;-5,26;-15,43;-5,26;3,56;3,85;3,56;3,85;0;0;
31424;-11,89;-34,51;-11,89;-34,51;3,78;4,56;3,78;4,56;0;0;
31443;-46,77;38,31;-46,77;38,31;5,42;9,23;5,42;9,23;0;0;
31463;-20,09;-19,98;-20,09;-19,98;8,17;12,2;8,17;12,2;0;0;
31484;-33,02;4,54;-33,02;4,54;8,31;13,08;8,31;13,08;0;0;
31506;-23,16;-4,38;-23,16;-4,38;11,72;12,28;11,72;12,28;0;0;
31527;-27,24;-10,23;-27,24;-10,23;12,31;10,07;12,31;10,07;0;0;
31550;7,08;-31,87;7,08;-31,87;11,24;5,54;11,24;5,54;0;0;
31574;-24,76;-16,19;-24,76;-16,19;11,98;5,29;11,98;5,29;0;0;
31589;-31,07;-11,43;-31,07;-11,43;11,77;6,06;11,77;6,06;0;0;
31607;2,53;-9,36;2,53;-9,36;18,29;6,56;18,29;6,56;0;0;
31623;-59,87;-0,83;-59,87;-0,83;22,89;6,97;22,89;6,97;0;0;
31639;-80,95;4,07;-80,95;4,07;30,16;7,58;30,16;7,58;0;0;
31656;-80,95;4,07;-80,95;4,07;35,42;6,63;35,42;6,63;0;0;
31673;44,52;-12,14;44,52;-12,14;45,95;5,73;45,95;5,73;0;0;
31690;6,81;-7,15;6,81;-7,15;47,72;4,7;47,72;4,7;0;0;
31708;8,34;-4,35;8,34;-4,35;45,61;4,55;45,61;4,55;0;0;
31730;26,12;-4,67;26,12;-4,67;45,95;4,07;45,95;4,07;0;0;
31747;-102,52;-6,71;-102,52;-6,71;46,9;3,44;46,9;3,44;0;0;
31763;74,64;-9,83;74,64;-9,83;44,69;3,09;44,69;3,09;0;0;
31782;-46,78;-3,36;-46,78;-3,36;40,74;3;40,74;3;0;0;
31799;-31,48;-6,48;-31,48;-6,48;47,13;3,36;47,13;3,36;0;0;
31815;-31,48;-6,48;-31,48;-6,48;48,12;3,35;48,12;3,35;0;0;
31830;-89,69;-2,51;-89,69;-2,51;49,24;3,37;49,24;3,37;0;0;
31848;31,86;-4,49;31,86;-4,49;47,95;3,55;47,95;3,55;0;0;
31871;-39,88;-7,81;-39,88;-7,81;43,59;3,59;43,59;3,59;0;0;
31898;-3,74;-3,24;-3,74;-3,24;41,65;3,27;41,65;3,27;0;0;
31914;-150,67;-8,97;-150,67;-8,97;39,45;2,88;39,45;2,88;0;0;
31933;-20,37;-4,11;-20,37;-4,11;32,49;2,99;32,49;2,99;0;0;
31951;-24,76;-4,06;-24,76;-4,06;27,61;2,82;27,61;2,82;0;0;
31971;-29,34;-5,09;-29,34;-5,09;24,96;2,73;24,96;2,73;0;0;
31987;-15,25;-6,87;-15,25;-6,87;22,06;2,72;22,06;2,72;0;0;
32004;-16,93;-8,11;-16,93;-8,11;20,26;2,98;20,26;2,98;0;0;
32020;-24,24;-2,52;-24,24;-2,52;16,14;2,8;16,14;2,8;0;0;
32037;-24,24;-2,52;-24,24;-2,52;15,68;2,93;15,68;2,93;0;0;
32056;-82,86;-2,71;-82,86;-2,71;14,06;3,02;14,06;3,02;0;0;
32074;10,79;-7,33;10,79;-7,33;18,6;2,94;18,6;2,94;0;0;
32092;-18,6;-4,61;-18,6;-4,61;20,15;2,74;20,15;2,74;0;0;
32109;-19,3;-2,55;-19,3;-2,55;16,41;3,11;16,41;3,11;0;0;
32126;-17,79;-8,88;-17,79;-8,88;13,84;2,97;13,84;2,97;0;0;
32144;-22,65;-4,19;-22,65;-4,19;13,2;2,82;13,2;2,82;0;0;
32163;-14,66;-11,02;-14,66;-11,02;8,03;2,97;8,03;2,97;0;0;
32180;-14,48;-7,64;-14,48;-7,64;3,99;3,4;3,99;3,4;0;0;
32199;-17,79;-4,81;-17,79;-4,81;2,7;3,42;2,7;3,42;0;0;
32221;-19,07;-3,27;-19,07;-3,27;2,69;3,04;2,69;3,04;0;0;
32238;-19,07;-3,27;-19,07;-3,27;2,42;2,98;2,42;2,98;0;0;
32255;-10,12;5,3;-10,12;5,3;2,31;3,64;2,31;3,64;0;0;
32273;-10,12;5,3;-10,12;5,3;2,52;3,67;2,52;3,67;0;0;
32291;-15,38;-14,65;-15,38;-14,65;2,64;4,11;2,64;4,11;0;0;
32309;-19,42;-8,25;-19,42;-8,25;2,93;4,17;2,93;4,17;0;0;
32327;-20,68;-4,7;-20,68;-4,7;2,98;4,4;2,98;4,4;0;0;
32344;-16,97;-8,03;-16,97;-8,03;3,4;4,49;3,4;4,49;0;0;
32364;-20,98;-7,5;-20,98;-7,5;3,52;4,35;3,52;4,35;0;0;
32384;-20,55;-4,96;-20,55;-4,96;3,4;4,15;3,4;4,15;0;0;
32403;-16,76;-4,48;-16,76;-4,48;3,32;3,73;3,32;3,73;0;0;
32420;-18,96;-5,36;-18,96;-5,36;2,9;3,67;2,9;3,67;0;0;
32438;-18,96;-5,36;-18,96;-5,36;2,3;3,56;2,3;3,56;0;0;
32454;-17,36;-5,83;-17,36;-5,83;2,07;3,25;2,07;3,25;0;0;
32474;-14,23;-0,96;-14,23;-0,96;2,31;2,94;2,31;2,94;0;0;
32492;-19,2;-3,27;-19,2;-3,27;2,3;2,94;2,3;2,94;1;0;
32510;-20,55;-6,89;-20,55;-6,89;11,16;3,08;11,16;3,08;1;0;
32528;-20,55;-6,89;-20,55;-6,89;20,03;3,14;20,03;3,14;1;0;
32550;18,58;-11,82;18,58;-11,82;29,99;2,86;29,99;2,86;1;0;
32568;-6,78;-6,58;-6,78;-6,58;36,48;2,91;36,48;2,91;1;0;
32585;-4,16;-9,11;-4,16;-9,11;43,85;2,78;43,85;2,78;1;0;
32605;-40,14;-3,46;-40,14;-3,46;47,57;2,84;47,57;2,84;0;0;
32625;-25,75;3,09;-25,75;3,09;45,07;3,17;45,07;3,17;0;0;
32644;-80,41;0,92;-80,41;0,92;50,21;3,53;50,21;3,53;0;0;
32666;-32,8;-1,3;-32,8;-1,3;45,22;3,85;45,22;3,85;0;0;
32683;-140,47;-6,13;-140,47;-6,13;42,64;3,71;42,64;3,71;0;0;
32706;21,55;-3,78;21,55;-3,78;44,61;3,75;44,61;3,75;0;0;
32725;-50,05;3,86;-50,05;3,86;39,01;3,89;39,01;3,89;0;0;
32742;8,5;-7,38;8,5;-7,38;30,14;4,18;30,14;4,18;0;0;
32758;95,23;-8,08;95,23;-8,08;42,47;3,93;42,47;3,93;0;0;
32775;95,23;-8,08;95,23;-8,08;51,8;3,59;51,8;3,59;0;0;
32791;-156,81;-3,42;-156,81;-3,42;52,48;3,39;52,48;3,39;0;0;
32808;-46,88;-12,64;-46,88;-12,64;55,45;4,12;55,45;4,12;0;0;
32826;-107,35;-18,66;-107,35;-18,66;69,33;4,22;69,33;4,22;0;0;
32845;-3,19;-9,72;-3,19;-9,72;73,7;4,29;73,7;4,29;0;0;
32864;41,19;-1,55;41,19;-1,55;64,36;4,61;64,36;4,61;0;0;
32882;-4,28;-2,5;-4,28;-2,5;61,69;4,87;61,69;4,87;0;0;
32900;-4,48;-15,7;-4,48;-15,7;62,5;4,86;62,5;4,86;0;0;
32916;-4,48;-15,7;-4,48;-15,7;60,6;4,45;60,6;4,45;0;0;
32933;6,74;-6,19;6,74;-6,19;56,72;3,96;56,72;3,96;0;0;
32951;22,18;-8,59;22,18;-8,59;57,77;3,62;57,77;3,62;0;0;
32969;59,79;-8,17;59,79;-8,17;53,7;3,69;53,7;3,69;0;0;
32985;-100,03;-12,29;-100,03;-12,29;54,64;3,95;54,64;3,95;0;0;
33002;-46,06;-2,23;-46,06;-2,23;51,15;3,85;51,15;3,85;0;0;
33023;-13,6;-2,77;-13,6;-2,77;42,45;3,79;42,45;3,79;0;0;
33039;-22,29;-6,92;-22,29;-6,92;31,8;3,63;31,8;3,63;0;0;
33055;-22,29;-6,92;-22,29;-6,92;25,63;3,36;25,63;3,36;0;0;
33073;-16,84;-3,33;-16,84;-3,33;17,48;2,93;17,48;2,93;0;0;
33089;-13,41;-10,1;-13,41;-10,1;8,32;2,65;8,32;2,65;0;0;
33106;-13,41;-10,1;-13,41;-10,1;4,78;2,52;4,78;2,52;0;0;
33122;-18,13;-3,07;-18,13;-3,07;4,25;2,47;4,25;2,47;0;0;
33141;-19,08;-11,46;-19,08;-11,46;4,02;2,68;4,02;2,68;0;0;
33157;-19,08;-11,46;-19,08;-11,46;3,7;2,87;3,7;2,87;0;0;
33178;-15,48;-10,22;-15,48;-10,22;3,67;2,98;3,67;2,98;0;0;
33195;-20,12;-4,71;-20,12;-4,71;3,34;2,73;3,34;2,73;0;0;
33214;-18,35;-3,94;-18,35;-3,94;2,93;2,79;2,93;2,79;0;0;
33232;-19,59;-17,21;-19,59;-17,21;2,6;3;2,6;3;0;0;
33247;-15,76;8,35;-15,76;8,35;2,67;3,79;2,67;3,79;0;0;
33266;-18,17;-9,91;-18,17;-9,91;2,98;4,21;2,98;4,21;0;0;
33284;-17,07;-4,94;-17,07;-4,94;3,18;4,55;3,18;4,55;0;0;
33301;-14,19;-2,06;-14,19;-2,06;2,78;5,2;2,78;5,2;0;0;
33316;-14,19;-2,06;-14,19;-2,06;2,4;5,78;2,4;5,78;0;0;
33337;-16,22;-4,64;-16,22;-4,64;2,2;5,09;2,2;5,09;0;0;
33352;-14,53;-3,27;-14,53;-3,27;2,18;4,11;2,18;4,11;0;0;
33368;-18,34;3,2;-18,34;3,2;1,93;4,27;1,93;4,27;0;0;
33385;-18,08;-11,05;-18,08;-11,05;1,87;4,72;1,87;4,72;0;0;
33402;-16,96;-11,57;-16,96;-11,57;2,17;5;2,17;5;0;0;
33420;-16,78;-6,46;-16,78;-6,46;2,21;4,68;2,21;4,68;0;0;
33436;-16,78;-6,46;-16,78;-6,46;2,05;4,22;2,05;4,22;0;0;
33452;-16,41;-4,7;-16,41;-4,7;1,99;4,17;1,99;4,17;0;0;
33469;-15,69;-3,73;-15,69;-3,73;2,13;2,89;2,13;2,89;0;0;
33489;-21,17;-3,67;-21,17;-3,67;2,43;2,72;2,43;2,72;0;0;
33506;-14,12;-9,4;-14,12;-9,4;2,48;2,07;2,48;2,07;0;0;
33522;-22,65;-6,89;-22,65;-6,89;2,62;2,24;2,62;2,24;0;0;
33540;-22,65;-6,89;-22,65;-6,89;2,67;2,29;2,67;2,29;0;0;
33555;-22,65;-6,89;-22,65;-6,89;2,78;2,34;2,78;2,34;0;0;
33572;-13,91;-4,98;-13,91;-4,98;2,63;2,44;2,63;2,44;0;0;
33588;-19,55;-6,4;-19,55;-6,4;2,41;2,98;2,41;2,98;0;0;
33607;-6,03;1;-6,03;1;3,29;5,5;3,29;5,5;0;0;
33626;-23,9;18,28;-23,9;18,28;3,78;7,27;3,78;7,27;0;0;
33645;-14,27;4,39;-14,27;4,39;4,06;8,35;4,06;8,35;0;0;
33663;-8,46;8,11;-8,46;8,11;4,44;10,41;4,44;10,41;0;0;
33681;-19,89;-11,05;-19,89;-11,05;4,68;11,67;4,68;11,67;0;0;
33697;-19,89;-11,05;-19,89;-11,05;4,59;12,68;4,59;12,68;0;0;
33714;-12,5;-6,56;-12,5;-6,56;3,99;10,41;3,99;10,41;0;0;
33730;-15,3;-4,8;-15,3;-4,8;3,78;8,3;3,78;8,3;0;0;
33749;-39,14;-10,11;-39,14;-10,11;4,03;7,16;4,03;7,16;0;0;
33764;19,17;-6,19;19,17;-6,19;8,14;4,74;8,14;4,74;0;0;
33784;-15,72;-5,18;-15,72;-5,18;8,85;2,97;8,85;2,97;0;0;
33804;-11,58;-3,88;-11,58;-3,88;9,14;2,27;9,14;2,27;0;0;
33821;-13,29;-10,8;-13,29;-10,8;9,28;2,25;9,28;2,25;0;0;
33837;-13,29;-10,8;-13,29;-10,8;9,12;2,25;9,12;2,25;0;0;
33856;-12,09;-3,05;-12,09;-3,05;7,18;2,19;7,18;2,19;0;0;
33871;-14,13;-5,56;-14,13;-5,56;3,1;2,25;3,1;2,25;0;0;
33890;-12,48;-7,43;-12,48;-7,43;3,15;2,55;3,15;2,55;0;0;
33907;-22,34;-5,33;-22,34;-5,33;2,72;2,66;2,72;2,66;0;0;
33924;-14,73;-7,6;-14,73;-7,6;2,94;2,76;2,94;2,76;0;0;
33941;-22,11;-21,19;-22,11;-21,19;3,23;3,3;3,23;3,3;0;0;
33960;-20,05;22,76;-20,05;22,76;3,38;5,85;3,38;5,85;0;0;
33977;-20,05;22,76;-20,05;22,76;3,37;8,11;3,37;8,11;0;0;
33992;-17,7;-17,9;-17,7;-17,9;3,45;10,51;3,45;10,51;0;0;
34010;-20,99;-8,13;-20,99;-8,13;3,27;10,98;3,27;10,98;0;0;
34027;-20,69;6,64;-20,69;6,64;3,41;11,26;3,41;11,26;0;0;
34042;-15,07;-4,64;-15,07;-4,64;3,31;10,97;3,31;10,97;0;0;
34059;-16,87;-7,18;-16,87;-7,18;3,11;8,84;3,11;8,84;0;0;
34075;-16,87;-7,18;-16,87;-7,18;2,81;6,25;2,81;6,25;0;0;
34093;-14,87;-10,38;-14,87;-10,38;2,76;4,48;2,76;4,48;0;0;
34114;-22,73;-8,24;-22,73;-8,24;2,61;4,49;2,61;4,49;0;0;
34129;-18,99;-5,73;-18,99;-5,73;2,68;3,72;2,68;3,72;0;0;
34148;-17,51;-5,33;-17,51;-5,33;2,6;2,9;2,6;2,9;0;0;
34169;-16,59;-9,1;-16,59;-9,1;2,46;2,45;2,46;2,45;0;0;
34185;-18,67;-2,68;-18,67;-2,68;2,44;1,96;2,44;1,96;0;0;
34201;-20,73;-2,37;-20,73;-2,37;2,67;2,03;2,67;2,03;0;0;
34219;-21,21;-2,36;-21,21;-2,36;2,53;1,91;2,53;1,91;0;0;
34233;-21,21;-2,36;-21,21;-2,36;2,55;2,02;2,55;2,02;0;0;
34248;-16,35;-7,7;-16,35;-7,7;2,63;2,72;2,63;2,72;0;0;
34270;-19,33;-12,43;-19,33;-12,43;2,73;2,95;2,73;2,95;0;0;
34290;-11,83;9,23;-11,83;9,23;2,87;4,14;2,87;4,14;0;0;
34307;-14,06;-18,43;-14,06;-18,43;4,45;7,03;4,45;7,03;0;0;
34322;-10,13;4,62;-10,13;4,62;4,9;10,02;4,9;10,02;0;0;
34339;-3,5;5,87;-3,5;5,87;6,05;11,3;6,05;11,3;0;0;
34353;-3,5;5,87;-3,5;5,87;7,26;12,57;7,26;12,57;0;0;
34370;-25,84;29,86;-25,84;29,86;8,41;15,81;8,41;15,81;0;0;
34387;-25;-6,58;-25;-6,58;9,02;18,51;9,02;18,51;0;0;
34405;-27,02;-15;-27,02;-15;8,43;18,81;8,43;18,81;0;1;
34426;-20,53;-33,14;-20,53;-33,14;8,52;20,04;8,52;20,04;0;1;
34442;-21,41;-14,24;-21,41;-14,24;8,53;19,8;8,53;19,8;0;1;
34459;-8,18;47,02;-8,18;47,02;9,03;18,69;9,03;18,69;0;1;
34476;-8,18;47,02;-8,18;47,02;9,37;15,64;9,37;15,64;0;1;
34494;-8,39;1,5;-8,39;1,5;8,94;12,97;8,94;12,97;0;1;
34511;-7,97;-17,28;-7,97;-17,28;10,14;13,33;10,14;13,33;0;1;
34526;-30,06;-7,22;-30,06;-7,22;11,56;11,38;11,56;11,38;0;1;
34542;-22,43;-15,83;-22,43;-15,83;9,8;13,53;9,8;13,53;0;1;
34558;-26,92;13,89;-26,92;13,89;8,86;14,74;8,86;14,74;0;1;
34581;-27,75;-15,03;-27,75;-15,03;9,08;15,79;9,08;15,79;0;1;
34600;-9,97;26,84;-9,97;26,84;9,56;19,43;9,56;19,43;0;1;
34616;-9,97;26,84;-9,97;26,84;8,32;22,04;8,32;22,04;0;1;
34632;-21,23;0,76;-21,23;0,76;9,08;24,07;9,08;24,07;0;1;
34649;-22,12;2,08;-22,12;2,08;9,52;23,5;9,52;23,5;0;1;
34667;-11,75;-4,54;-11,75;-4,54;8,83;24,79;8,83;24,79;0;1;
34685;-30,12;-43,6;-30,12;-43,6;8,07;24,06;8,07;24,06;0;1;
34702;-15,35;-8,16;-15,35;-8,16;7,58;21,16;7,58;21,16;0;1;
34722;-21,21;4,07;-21,21;4,07;6,61;15,8;6,61;15,8;0;1;
34743;-16,56;-20,6;-16,56;-20,6;5,62;15,54;5,62;15,54;0;1;
34760;-14,71;7,74;-14,71;7,74;5,25;13,75;5,25;13,75;0;0;
34776;-14,71;7,74;-14,71;7,74;5,07;13,63;5,07;13,63;0;0;
34792;-11,64;13,08;-11,64;13,08;3,74;12,47;3,74;12,47;0;0;
34809;-19,59;-15,67;-19,59;-15,67;3,75;13,4;3,75;13,4;0;0;
34826;-14,26;-8,24;-14,26;-8,24;3,55;12,4;3,55;12,4;0;0;
34842;-17,45;-5,79;-17,45;-5,79;3,25;10,57;3,25;10,57;0;0;
34861;-16,61;-7,52;-16,61;-7,52;3;8,58;3;8,58;0;0;
34878;-23,58;-42,05;-23,58;-42,05;3,27;8,77;3,27;8,77;0;0;
34902;7,22;-14,65;7,22;-14,65;4,19;8,76;4,19;8,76;0;0;
34923;-17,5;17,92;-17,5;17,92;4,52;10,35;4,52;10,35;0;0;
34942;-23,15;24,93;-23,15;24,93;5,73;17,04;5,73;17,04;0;0;
34959;-11,34;-7,93;-11,34;-7,93;6,17;18,15;6,17;18,15;0;0;
34977;-11,34;-7,93;-11,34;-7,93;6,26;18,12;6,26;18,12;0;0;
34993;-10,25;-12,42;-10,25;-12,42;6,1;16,68;6,1;16,68;0;0;
35011;-19,4;-4,1;-19,4;-4,1;4,91;15,83;4,91;15,83;0;0;
35028;-12,5;-1,07;-12,5;-1,07;4,44;12,89;4,44;12,89;0;0;
35044;-15,36;-3,53;-15,36;-3,53;3,92;7,57;3,92;7,57;0;0;
35066;-18,56;1,42;-18,56;1,42;3,96;6,36;3,96;6,36;0;0;
35083;-19,28;-4,02;-19,28;-4,02;4,1;5,04;4,1;5,04;0;0;
35099;-11,51;-2,7;-11,51;-2,7;3,69;4,42;3,69;4,42;0;0;
35117;-11,51;-2,7;-11,51;-2,7;3,38;4,1;3,38;4,1;0;0;
35135;-13,31;-7,46;-13,31;-7,46;2,92;4,11;2,92;4,11;1;0;
35151;-14,06;-7,02;-14,06;-7,02;2,31;4,09;2,31;4,09;1;0;
35167;-22,71;-11,59;-22,71;-11,59;2,53;4,3;2,53;4,3;1;0;
35186;-19,82;-6,84;-19,82;-6,84;2,14;4,05;2,14;4,05;1;0;
35202;-2,11;-2,15;-2,11;-2,15;3,07;3,67;3,07;3,67;1;0;
35224;-9,23;-10,96;-9,23;-10,96;3,43;3,62;3,43;3,62;1;0;
35240;-52,44;-5,36;-52,44;-5,36;4,6;3,41;4,6;3,41;1;0;
35256;-52,44;-5,36;-52,44;-5,36;5,58;2,76;5,58;2,76;1;0;
35273;-7,84;-6,12;-7,84;-6,12;8,46;2,6;8,46;2,6;1;0;
35290;-27,06;-8,75;-27,06;-8,75;9,62;2,26;9,62;2,26;1;0;
35307;14,65;-0,08;14,65;-0,08;11,82;2,25;11,82;2,25;1;0;
35326;-17,59;-83,04;-17,59;-83,04;18,38;4,09;18,38;4,09;1;0;
35343;-61,19;45,1;-61,19;45,1;21,54;18;21,54;18;1;0;
35360;-2,64;-23,81;-2,64;-23,81;32,59;20,41;32,59;20,41;1;0;
35379;-32,57;-1,97;-32,57;-1,97;37,94;21,1;37,94;21,1;1;0;
35395;-32,57;-1,97;-32,57;-1,97;44,98;21,8;44,98;21,8;1;0;
35413;-23,72;-0,84;-23,72;-0,84;49,41;22,08;49,41;22,08;0;0;
35436;-54,97;-19,32;-54,97;-19,32;55,02;15,81;55,02;15,81;0;0;
35453;-19,34;-37,39;-19,34;-37,39;66,04;6,71;66,04;6,71;0;0;
35470;5,69;1,77;5,69;1,77;62,31;5,92;62,31;5,92;0;0;
35487;111,92;-11,23;111,92;-11,23;62,4;6,56;62,4;6,56;0;0;
35503;48,82;-8,13;48,82;-8,13;68,86;6,56;68,86;6,56;0;0;
35520;-2,28;-20,56;-2,28;-20,56;68,69;6,91;68,69;6,91;0;0;
35542;-1,11;-12,26;-1,11;-12,26;66,65;7,01;66,65;7,01;0;0;
35561;53,61;-4,09;53,61;-4,09;61,41;6,67;61,41;6,67;0;0;
35577;53,61;-4,09;53,61;-4,09;58,34;6,35;58,34;6,35;0;0;
35593;-12,46;-15,82;-12,46;-15,82;51,97;6,41;51,97;6,41;0;0;
35610;-61,76;-2,29;-61,76;-2,29;42,21;6,13;42,21;6,13;0;0;
35626;-146,22;0,87;-146,22;0,87;48,16;5,76;48,16;5,76;0;0;
35643;-48,61;0,55;-48,61;0,55;47,3;5,63;47,3;5,63;0;0;
35660;-9,78;-15,21;-9,78;-15,21;48,2;5,25;48,2;5,25;0;0;
35682;-22,68;-8,31;-22,68;-8,31;44,01;4,77;44,01;4,77;0;0;
35702;3,36;8,01;3,36;8,01;52,23;4,21;52,23;4,21;0;0;
35722;-69,48;-10,81;-69,48;-10,81;50,23;4,33;50,23;4,33;0;0;
35737;-69,48;-10,81;-69,48;-10,81;42,1;4,77;42,1;4,77;0;0;
35753;37,21;-4,1;37,21;-4,1;44,66;4,3;44,66;4,3;0;0;
35772;115,59;-0,81;115,59;-0,81;45,68;4,07;45,68;4,07;0;0;
35792;75,28;-6,8;75,28;-6,8;48,2;4,44;48,2;4,44;0;0;
35810;-56,28;-1,67;-56,28;-1,67;47,63;3,67;47,63;3,67;0;0;
35827;29,46;-9,8;29,46;-9,8;45,41;3,16;45,41;3,16;0;0;
35842;1,73;-3,45;1,73;-3,45;45,74;3,12;45,74;3,12;0;0;
35864;24,76;-8,57;24,76;-8,57;46,41;3,39;46,41;3,39;0;0;
35880;86,6;-10,46;86,6;-10,46;41,94;3,4;41,94;3,4;0;0;
35897;86,6;-10,46;86,6;-10,46;38,3;3,68;38,3;3,68;0;0;
35913;-86,39;-5,21;-86,39;-5,21;41,29;3,66;41,29;3,66;0;0;
35933;-27,67;-7,24;-27,67;-7,24;34,66;4,09;34,66;4,09;0;0;
35950;-9,38;-2,96;-9,38;-2,96;29,1;4,44;29,1;4,44;0;0;
35966;-13,27;-2,13;-13,27;-2,13;25,17;4,54;25,17;4,54;0;0;
35986;-17,65;-9,39;-17,65;-9,39;18,7;4,39;18,7;4,39;0;0;
36004;-33,72;-2,04;-33,72;-2,04;11,11;4,21;11,11;4,21;0;0;
36025;-14,57;-13,26;-14,57;-13,26;5,05;4,17;5,05;4,17;0;0;
36042;-29,82;-3,51;-29,82;-3,51;9,01;4,25;9,01;4,25;0;0;
36061;-12,15;-8,19;-12,15;-8,19;9,59;3,79;9,59;3,79;0;0;
36078;-12,15;-8,19;-12,15;-8,19;9,59;3,44;9,59;3,44;0;0;
36095;-16,22;-0,16;-16,22;-0,16;9,63;4,12;9,63;4,12;0;0;
36109;-18,79;-1,94;-18,79;-1,94;9,01;4,79;9,01;4,79;0;0;
36126;-12,01;-4,71;-12,01;-4,71;8,31;4,68;8,31;4,68;0;0;
36144;-7,62;4,85;-7,62;4,85;4,82;5,59;4,82;5,59;0;0;
36161;-21,07;-19,48;-21,07;-19,48;4,26;6,84;4,26;6,84;0;0;
36181;-22,74;-26,3;-22,74;-26,3;4,72;8,24;4,72;8,24;0;0;
36199;-18,62;-0,29;-18,62;-0,29;5,49;10,34;5,49;10,34;0;0;
36216;-18,62;-0,29;-18,62;-0,29;5,99;12,29;5,99;12,29;0;0;
36232;-6,91;-11,05;-6,91;-11,05;6,54;14,03;6,54;14,03;0;0;
36247;-23,92;16,78;-23,92;16,78;6,38;15,69;6,38;15,69;0;0;
36264;-27,55;3,18;-27,55;3,18;7,95;18,86;7,95;18,86;0;0;
36281;-13,85;13,49;-13,85;13,49;7,41;19,1;7,41;19,1;0;0;
36298;-16,69;5,51;-16,69;5,51;7,26;18,53;7,26;18,53;0;1;
36316;-16,69;5,51;-16,69;5,51;7,28;18,37;7,28;18,37;0;1;
36339;-10,78;-19,51;-10,78;-19,51;6,77;16,77;6,77;16,77;0;1;
36357;-10,78;-19,51;-10,78;-19,51;6,45;14,63;6,45;14,63;0;1;
36374;-30,34;28,29;-30,34;28,29;5,88;12,17;5,88;12,17;0;1;
36390;-7,37;18,24;-7,37;18,24;6,26;12,53;6,26;12,53;0;1;
36408;-17,24;21,29;-17,24;21,29;5,77;12,61;5,77;12,61;0;1;
36426;-26,48;23,96;-26,48;23,96;6,17;13,96;6,17;13,96;0;1;
36445;-23,67;-4,83;-23,67;-4,83;6,77;14,85;6,77;14,85;0;1;
36463;-24,33;4,88;-24,33;4,88;7,24;16,27;7,24;16,27;0;1;
36477;-24,33;4,88;-24,33;4,88;7,35;15,73;7,35;15,73;0;1;
36497;-20,41;-6,47;-20,41;-6,47;7,26;14,02;7,26;14,02;0;1;
36513;-13,68;-21,79;-13,68;-21,79;6,74;12,81;6,74;12,81;0;1;
36530;-14,69;-18,37;-14,69;-18,37;6,15;11,29;6,15;11,29;0;1;
36547;-26,97;-11,35;-26,97;-11,35;4,87;11,47;4,87;11,47;0;1;
36563;-16,06;-2,68;-16,06;-2,68;3,89;10,44;3,89;10,44;0;1;
36581;-15,89;-22,06;-15,89;-22,06;3,42;8,88;3,42;8,88;0;1;
36597;-15,89;-22,06;-15,89;-22,06;3,23;7,79;3,23;7,79;0;1;
36613;-17,68;-11,36;-17,68;-11,36;3,16;7,02;3,16;7,02;0;1;
36630;-20,63;-11,4;-20,63;-11,4;3,18;6,8;3,18;6,8;0;1;
36651;-19,71;2,86;-19,71;2,86;2,63;6,06;2,63;6,06;0;1;
36669;-24,11;-1,73;-24,11;-1,73;2,94;7,48;2,94;7,48;0;0;
36688;-13,73;-8,53;-13,73;-8,53;2,98;7,31;2,98;7,31;0;0;
36706;-16,59;-1,49;-16,59;-1,49;3,02;6,53;3,02;6,53;0;0;
36727;-15,4;-9,12;-15,4;-9,12;2,64;5,82;2,64;5,82;0;0;
36747;-19,58;-7,33;-19,58;-7,33;2,59;5,4;2,59;5,4;0;0;
36765;-17,04;1,91;-17,04;1,91;2,46;5,03;2,46;5,03;0;0;
36782;-17,29;-5,56;-17,29;-5,56;2,25;3,36;2,25;3,36;0;0;
36806;-15,36;-5,91;-15,36;-5,91;2,13;3,34;2,13;3,34;0;0;
36826;-17,34;-2,65;-17,34;-2,65;2,16;3,22;2,16;3,22;0;0;
36843;-22,82;-10,09;-22,82;-10,09;2,41;3,33;2,41;3,33;0;0;
36860;-6,97;-7,06;-6,97;-7,06;2,61;2,95;2,61;2,95;0;0;
36877;-6,97;-7,06;-6,97;-7,06;2,72;2,17;2,72;2,17;0;0;
36894;-9,4;-8,6;-9,4;-8,6;3,77;2,18;3,77;2,18;0;0;
36910;-13,68;-9,87;-13,68;-9,87;6,36;2,3;6,36;2,3;0;0;
36928;-27,25;-7,87;-27,25;-7,87;10,19;2,3;10,19;2,3;0;0;
36948;7,67;-12,03;7,67;-12,03;15,64;2,51;15,64;2,51;0;0;
36970;-79,45;-30,28;-79,45;-30,28;21,73;7,95;21,73;7,95;0;0;
36985;14,58;-21,25;14,58;-21,25;30,36;13,2;30,36;13,2;0;0;
37001;-82,66;0,41;-82,66;0,41;41,15;13,63;41,15;13,63;0;0;
37020;20,12;3,12;20,12;3,12;41,98;13,87;41,98;13,87;0;0;
37036;20,12;3,12;20,12;3,12;42,3;14,04;42,3;14,04;0;0;
37052;26,99;-2,54;26,99;-2,54;43,71;9,9;43,71;9,9;0;0;
37070;35,63;-0,15;35,63;-0,15;41,17;6;41,17;6;0;0;
37087;-61,96;17,12;-61,96;17,12;43,14;6,52;43,14;6,52;0;0;
37104;-134,77;-17,02;-134,77;-17,02;41,7;7,59;41,7;7,59;0;0;
37124;23,37;-0,48;23,37;-0,48;52,25;7,84;52,25;7,84;0;0;
37143;-2,72;-6,24;-2,72;-6,24;48,63;8,03;48,63;8,03;0;0;
37162;85,17;-12,78;85,17;-12,78;55,8;8,32;55,8;8,32;0;0;
37178;-35,43;-9,14;-35,43;-9,14;59,03;7,85;59,03;7,85;0;0;
37194;-35,43;-9,14;-35,43;-9,14;57,18;4,06;57,18;4,06;0;0;
37216;-23,06;-14,15;-23,06;-14,15;48,22;3,52;48,22;3,52;0;0;
37232;63,34;-6,56;63,34;-6,56;47,28;3,84;47,28;3,84;0;0;
37249;-16,63;-5,86;-16,63;-5,86;51,33;3,32;51,33;3,32;0;0;
37268;-28,6;-8,41;-28,6;-8,41;37,88;2,92;37,88;2,92;0;0;
37287;-19,87;-2,8;-19,87;-2,8;31,74;3,2;31,74;3,2;0;0;
37303;-17,24;-5,94;-17,24;-5,94;29,58;3,29;29,58;3,29;0;0;
37320;21,62;-5,98;21,62;-5,98;29,36;2,67;29,36;2,67;0;0;
37337;21,62;-5,98;21,62;-5,98;20,67;2,8;20,67;2,8;0;0;
37352;-17,46;-7,3;-17,46;-7,3;19,51;2,66;19,51;2,66;0;0;
37367;-59,44;-3,96;-59,44;-3,96;21,8;2,75;21,8;2,75;0;0;
37385;-38,4;-3,11;-38,4;-3,11;23,08;2,49;23,08;2,49;0;0;
37402;-47,76;-6,18;-47,76;-6,18;21,82;2,77;21,82;2,77;0;0;
37421;-25,98;-2,47;-25,98;-2,47;20,26;2,91;20,26;2,91;0;0;
37443;-19,3;-1,97;-19,3;-1,97;16,61;2,82;16,61;2,82;0;0;
37458;-26,11;-11,11;-26,11;-11,11;14,44;2,84;14,44;2,84;0;0;
37475;-26,11;-11,11;-26,11;-11,11;11,47;2,84;11,47;2,84;0;0;
37491;4,22;-7,04;4,22;-7,04;11,39;2,75;11,39;2,75;0;0;
37510;-0,81;-4,37;-0,81;-4,37;12,82;2,62;12,82;2,62;0;0;
37526;-23,66;-5,07;-23,66;-5,07;11,73;2,47;11,73;2,47;0;0;
37543;-20,53;-4,72;-20,53;-4,72;11,8;2,41;11,8;2,41;0;0;
37562;-10,6;-7,49;-10,6;-7,49;11,41;2,83;11,41;2,83;0;0;
37580;-15,21;-8,87;-15,21;-8,87;8,54;2,8;8,54;2,8;0;0;
37598;-15,21;-8,87;-15,21;-8,87;5,19;2,88;5,19;2,88;0;0;
37614;-17,2;-9,91;-17,2;-9,91;3,17;2,92;3,17;2,92;0;0;
37630;-18;-3,62;-18;-3,62;2,85;3,2;2,85;3,2;0;0;
37645;-15,35;-4,27;-15,35;-4,27;2,86;3,53;2,86;3,53;0;0;
37662;-12,46;-2,43;-12,46;-2,43;2,85;3,34;2,85;3,34;0;0;
37677;-12,46;-2,43;-12,46;-2,43;2,84;3,38;2,84;3,38;0;0;
37693;-18,94;-8,74;-18,94;-8,74;2,62;3,27;2,62;3,27;0;0;
37709;-21,04;-3,86;-21,04;-3,86;2,22;3,42;2,22;3,42;0;0;
37728;-23,08;-1,55;-23,08;-1,55;2,3;3,09;2,3;3,09;0;0;
37746;-15,88;-0,43;-15,88;-0,43;2,51;3,08;2,51;3,08;0;0;
37765;-17,81;-4,18;-17,81;-4,18;2,54;2,83;2,54;2,83;0;0;
37782;-11,65;-6,04;-11,65;-6,04;3,06;2,66;3,06;2,66;0;0;
37797;-11,65;-6,04;-11,65;-6,04;3,52;2,57;3,52;2,57;0;0;
37814;-14,08;-4,09;-14,08;-4,09;3,66;2,51;3,66;2,51;0;0;
37829;-15,53;-2,46;-15,53;-2,46;3,63;2,53;3,63;2,53;0;0;
37844;-12,81;-7,8;-12,81;-7,8;3,43;2,57;3,43;2,57;0;0;
37861;-13,97;-4,76;-13,97;-4,76;3,64;2,75;3,64;2,75;0;0;
37879;-21,83;-11,34;-21,83;-11,34;3,45;2,8;3,45;2,8;0;0;
37897;-21,83;-11,34;-21,83;-11,34;3,19;2,98;3,19;2,98;0;0;
37916;-14,85;-6,22;-14,85;-6,22;3,33;3,08;3,33;3,08;0;0;
37933;-17,51;-4,44;-17,51;-4,44;3,11;2,95;3,11;2,95;0;0;
37950;-14,95;-0,8;-14,95;-0,8;2,94;2,65;2,94;2,65;0;0;
37967;-20,52;-5,56;-20,52;-5,56;8,06;2,63;8,06;2,63;0;0;
37982;2,53;-14,5;2,53;-14,5;15,32;2,67;15,32;2,67;0;0;
37998;13,03;-10,64;13,03;-10,64;22,97;3,02;22,97;3,02;0;0;
38016;13,03;-10,64;13,03;-10,64;30,6;3,69;30,6;3,69;0;0;
38030;9,81;-7,68;9,81;-7,68;35,14;3,75;35,14;3,75;0;0;
38047;-62,72;-5,49;-62,72;-5,49;48,5;3,88;48,5;3,88;0;0;
38067;-75,09;-7,98;-75,09;-7,98;49,13;4,3;49,13;4,3;0;0;
38082;-42,98;-2,36;-42,98;-2,36;42,3;4;42,3;4;0;0;
38099;-72,92;-13,43;-72,92;-13,43;39,85;3,77;39,85;3,77;0;0;
38116;-72,92;-13,43;-72,92;-13,43;39,41;3,84;39,41;3,84;0;0;
38135;-2,48;-5,31;-2,48;-5,31;40,21;3,93;40,21;3,93;1;0;
38155;40;-5,72;40;-5,72;35,77;3,98;35,77;3,98;1;0;
38172;-67,16;-9,27;-67,16;-9,27;38,57;3,85;38,57;3,85;1;0;
38189;24,39;-4,83;24,39;-4,83;41,54;4,03;41,54;4,03;1;0;
38207;-8,51;-5,11;-8,51;-5,11;41,41;4,08;41,41;4,08;1;0;
38229;-108,58;-4,82;-108,58;-4,82;46,64;3,97;46,64;3,97;1;0;
38245;141,08;-0,31;141,08;-0,31;48,83;3,68;48,83;3,68;1;0;
38263;24,54;2,7;24,54;2,7;56,69;3,97;56,69;3,97;1;0;
38279;28,04;-9,4;28,04;-9,4;62,53;4,17;62,53;4,17;1;0;
38295;28,04;-9,4;28,04;-9,4;67,84;3,9;67,84;3,9;1;0;
38310;39,9;-1,3;39,9;-1,3;67,38;4,2;67,38;4,2;1;0;
38326;-21,5;-4,24;-21,5;-4,24;56,05;3,72;56,05;3,72;1;0;
38344;-45,49;-3,13;-45,49;-3,13;41,26;3,83;41,26;3,83;1;0;
38363;30,96;-2,84;30,96;-2,84;44,68;4,85;44,68;4,85;1;0;
38383;-20,82;-11,33;-20,82;-11,33;33,25;4,6;33,25;4,6;1;0;
38403;-14,12;-6,18;-14,12;-6,18;25,41;4,18;25,41;4,18;1;0;
38419;-15,62;-3,02;-15,62;-3,02;21,25;4;21,25;4;1;0;
38434;-15,62;-3,02;-15,62;-3,02;21,17;4,19;21,17;4,19;1;0;
38451;-58,84;-7,16;-58,84;-7,16;13,96;2,98;13,96;2,98;1;0;
