Time;EMG1;EMG2;EMG3;EMG4;EMG1_F;EMG2_F;EMG3_F;EMG4_F;Note_R;Note_V;;Level 3;Joueur;Score;Notes hit;% Reussite R;Offset EMG1;Onset EMG1;% Reussite V;Offset EMG2;Onset EMG2
12;-25,85;-38,37;-16,52;-8,41;14,16;1,92;1,51;2,02;0;0;;;1;9300;88;50,50505;-17,12333;50;38,38384;-39,56405;16,00777
33;-22,54;-40,62;-17,81;-3,25;13,17;1,91;1,61;2,28;0;0;;;2;2400;24;15,15152;-24,00817;50;9,090909;-39,56405;3
53;-24,6;-42,22;-11,02;-6,12;9,41;1,91;1,84;2,62;0;0;
73;-20,8;-41,59;-19,23;-8,07;4,27;1,68;1,97;2,71;0;0;
92;21,74;-46,36;-17,55;-6,44;7,75;1,61;2,15;2,58;0;0;
113;-22,96;-41,34;-17,44;-8,88;8,27;1,69;2,35;2,4;0;0;
133;-19,51;-39,84;-17,75;-3,89;8,47;1,72;2,6;2,4;0;0;
167;-25,97;-40,74;-13,07;-5,81;8,49;1,82;2,53;2,09;0;0;
190;-21,27;-40,39;-20,13;-4,99;8,59;1,75;2,33;1,95;0;0;
207;-75,1;-37,32;-16,68;-3,49;8,61;1,76;2,04;1,68;0;0;
232;-31,85;-40,61;-19,69;-3,99;6,24;1,6;1,99;1,83;0;0;
251;-23,85;-45,64;-20,88;-7,43;6,23;1,65;1,7;1,71;0;0;
270;-21,47;-40,32;-18,3;-7,19;6,24;1,66;1,67;1,53;0;0;
289;-28,02;-39,68;-17,04;-3,54;6,27;1,76;1,57;1,81;0;0;
317;-27,28;-40,79;-15,21;-9,11;6,32;1,7;1,78;1,8;0;0;
334;-27,02;-40,07;-17,23;-7,67;3,55;1,85;1,85;2,07;0;0;
353;-35,94;-39,76;-15,66;-5,15;7,66;1,84;2,01;2,11;0;0;
375;-35,3;-39,13;-15,42;-10,6;9,76;1,78;2,03;2,37;0;0;
395;-24,34;-40,32;-17,51;-7,38;10,02;1,65;2,21;2,38;0;0;
416;-23,65;-40,37;-15;-5,21;10,31;1,56;2,28;2,3;0;0;
433;-21,26;-40,77;-14,96;-5,31;10,06;1,53;2,03;2,24;0;0;
453;-22,99;-40,24;-18,44;-6,24;8,65;1,37;1,93;1,85;0;0;
470;-74,92;-43,98;-19,87;-6,79;6,14;1,55;1,84;1,81;0;0;
488;-40,22;-42,45;-16,66;-8,95;9,63;1,75;1,91;1,67;0;0;
508;-25,39;-40,2;-13,83;-6,06;9,73;1,72;1,79;1,74;0;0;
529;-16,53;-41,96;-14,04;-7,21;9,73;1,77;1,77;1,61;0;0;
551;-26,75;-41,96;-13,39;-3,49;9,61;1,78;1,88;1,69;0;0;
570;-23,21;-43,31;-14,49;-7,77;9,4;2,01;2,03;1,81;0;0;
587;-45,53;-39,75;-17,73;-9,63;5,3;1,91;2,26;1,88;0;0;
607;-41,57;-37,67;-16,76;-2,19;8,83;1,8;2,06;1,8;0;0;
626;-18,89;-41,16;-17,25;-5,71;9,57;1,78;2,08;2;0;0;
646;-18,61;-37,69;-18,68;-6,5;9,54;1,87;2,18;1,89;0;0;
667;-27,15;-42,69;-19,95;-2,64;9,75;2,15;2,08;1,87;0;0;
688;-24,58;-39,14;-13,95;-5,44;9,78;2,08;2,12;1,98;0;0;
706;-76,29;-37,56;-17,45;-6,43;7,69;2,24;2,13;1,99;0;0;
724;-36,51;-39;-15,55;-7,75;9,36;2,37;2,17;1,95;0;0;
746;-29,39;-35,96;-18,23;-10,36;10,73;2,35;1,89;2,09;0;0;
766;-26,07;-37,8;-18,04;-5,95;10,42;2,29;2,02;2,39;0;0;
787;-25,12;-37,1;-14,02;-4,35;10,37;2,11;2,14;2,45;0;0;
806;-25,87;-40,8;-15,68;-8,42;10,23;1,95;1,94;2,46;0;0;
825;-28,48;-39,16;-20,92;-1,42;6,89;1,74;2,06;2,66;0;0;
844;-72,23;-39,23;-18,82;-4,93;4,32;1,55;2,01;2,52;0;0;
863;-43,51;-43,49;-15,48;-4,12;9;1,72;1,96;2,23;0;0;
881;-25,49;-35,9;-18,59;-5,32;9,34;1,62;1,92;2,19;0;0;
898;-25,49;-35,9;-18,59;-5,32;9,57;1,59;1,69;2,17;0;0;
917;-24,51;-40,28;-14,22;-6,24;9,51;1,63;1,63;1,96;0;0;
935;-22,79;-37,94;-20,35;-5,83;9,26;1,61;1,63;1,89;0;0;
954;-22,84;-37,47;-18,44;-6,63;5,15;1,64;1,6;1,8;0;0;
979;-3,76;-39,87;-19,41;-4,44;8,1;1,61;1,52;1,64;0;0;
997;-32,27;-36,23;-13,11;-7,11;9,83;1,87;1,76;1,41;0;0;
1015;-21,32;-40,88;-17,47;-6,42;9,98;1,79;1,78;1,44;0;0;
1035;-26,66;-40,61;-14,92;-5,82;10,13;1,94;1,76;1,51;0;0;
1054;-19,3;-43,05;-13,98;-10,09;10,12;2,08;1,86;1,54;0;0;
1073;-34,55;-41,32;-17,57;-2,63;9,42;2,05;1,92;1,72;0;0;
1102;-32,1;-39,52;-18,33;-4,22;4,51;2,14;1,9;1,77;0;0;
1122;-31,91;-37,19;-15,34;-10,53;5,37;2;1,7;1,99;0;0;
1140;-22,39;-43,07;-18,75;-5,43;5,83;1,95;1,79;2,1;0;0;
1159;-22,39;-43,07;-18,75;-5,43;6,35;2,08;1,78;2,21;0;0;
1178;-22,16;-41,04;-10,15;-8,78;5,35;1,83;1,66;2,3;0;0;
1197;-22,15;-38,25;-13,83;-8,98;4,92;1,95;1,85;2,22;0;0;
1217;-28,07;-39;-16,08;-6,07;3,88;1,89;1,89;2,2;0;0;
1234;-22,89;-34,97;-18,13;-10,33;2,43;2,03;1,94;2,07;0;0;
1264;-41,37;-40,09;-17,42;-8,39;7,01;1,88;1,85;1,93;0;0;
1281;-28,18;-42,83;-15,59;-6,7;8,61;1,96;1,96;1,97;0;0;
1302;-34,3;-36,44;-15,91;-9,39;8,7;1,86;1,8;1,86;0;0;
1320;-34,3;-36,44;-15,91;-9,39;8,87;1,87;1,88;1,9;0;0;
1338;-21,98;-40,13;-12,01;-8,33;9,2;1,87;2,03;1,92;0;0;
1357;-22,67;-39,16;-15,79;-4,96;5,8;1,69;2,01;2,04;0;0;
1375;-26,92;-39,51;-15,03;-7,03;2,76;1,67;1,97;2,05;0;0;
1393;-39,04;-36,87;-21,32;-5,45;6,07;1,43;2,06;2,02;0;0;
1411;-27,91;-39,3;-18,62;-10,1;6,85;1,45;2,2;1,96;0;0;
1430;-22,77;-40,87;-16,66;-6,42;6,55;1,59;2,18;1,85;0;0;
1451;-21,93;-35,98;-17,14;-6,92;6,58;1,53;2,02;1,88;0;0;
1469;-23,17;-39,62;-17,33;-9,57;7,08;1,73;2,04;1,78;0;0;
1486;-29,45;-37,89;-11,84;-6,48;4,87;1,85;2,16;1,88;0;0;
1505;-24,4;-38,52;-16,35;-3,84;2,82;1,79;1,86;2,12;0;0;
1523;4,04;-43,02;-16,78;-9,01;6,3;1,77;1,87;1,96;0;0;
1547;-25,06;-40,24;-15,41;-8,42;6,96;1,72;1,88;1,9;0;0;
1568;-21,54;-42,67;-20,05;-7,05;6,53;1,76;1,86;1,94;0;0;
1593;-24,51;-40,27;-19,3;-6,07;7,04;1,64;2,01;1,78;0;0;
1613;-21,02;-37,94;-17,9;-3,51;6,83;1,72;1,98;1,62;0;0;
1632;-26,9;-36,68;-18,5;-6,77;2,73;1,77;2,14;1,88;0;0;
1650;-23,67;-39,63;-12,61;-8,24;2,65;1,87;2,26;1,9;0;0;
1670;-19,36;-40,99;-22,19;-3,01;4,84;1,73;2,44;1,99;0;0;
1687;-44,19;-39,9;-18,73;-10,11;9,17;1,68;2,29;2,16;0;0;
1708;-18;-36,92;-20,56;-5,7;9,43;1,7;2,43;2,13;0;0;
1729;-25,74;-39,08;-14,69;-13,67;9,73;1,51;2,34;2,08;0;0;
1746;-27,9;-39,04;-18,8;-6,85;9,67;1,66;2,28;2,1;0;0;
1765;-24,91;-39,61;-15,33;-5,86;10,62;1,61;2,3;2,05;0;0;
1782;-33,77;-37,56;-13,23;-4,61;5,87;1,61;2,14;1,91;0;0;
1803;-19,51;-36,73;-14,39;-6,6;4,42;1,73;2,02;2,03;0;0;
1820;-19,51;-36,73;-14,39;-6,6;4,48;1,85;2,11;2,15;0;0;
1838;-27,66;-40,6;-19,9;-10,34;6,43;1,91;2,09;2,2;0;0;
1856;-21,69;-39,66;-14,1;-6,93;6,29;2,01;2,23;2,37;0;0;
1875;-20,35;-43,62;-17,86;-4,64;5,52;1,9;2,29;2,4;0;0;
1892;-27,3;-40,75;-14,05;-4,8;4,84;1,91;2,34;2,32;0;0;
1909;-19,75;-36,47;-17,4;-8,45;4,48;1,75;2,11;2,15;0;0;
1928;-22,69;-41,05;-13,94;-5,94;3,3;1,71;2,15;2,02;0;0;
1947;-26,84;-40,33;-17,03;-8,47;2,57;1,66;1,97;1,9;0;0;
1966;7,82;-38,13;-13,8;-8,8;4,81;1,79;1,83;1,66;0;0;
1988;-25,36;-41,8;-15,96;-4,19;5,47;1,8;1,86;1,61;0;0;
2005;-19,86;-41,1;-19,04;-4,3;5,7;1,77;1,71;1,61;0;0;
2023;-25,89;-41,61;-18,42;-1,9;5,69;1,75;1,76;1,67;0;0;
2042;-21,89;-38,77;-14,31;-4,68;5,97;1,73;1,68;1,61;0;0;
2062;-29,82;-40,23;-17,58;-7,51;6,26;1,6;1,89;1,55;0;0;
2081;-21,01;-38,53;-15,79;-5,89;3,37;1,54;2,01;1,65;0;0;
2099;-21,01;-38,53;-15,79;-5,89;3,39;1,47;1,88;1,68;0;0;
2116;-40,72;-39,35;-22,6;-9,9;7,82;1,5;2,18;1,77;0;0;
2134;-29,3;-36,96;-17,28;-3,35;9,43;1,47;2,13;1,8;0;0;
2154;-45,89;-40,13;-16,77;-9,75;11,5;1,47;1,96;1,88;0;0;
2171;-29,07;-40,16;-12,23;-4,73;13,85;1,62;2,1;1,89;0;0;
2189;-47,97;-40,7;-16,47;-3,74;14,28;1,75;2,2;1,88;0;0;
2208;-3;-38,52;-19,51;-5,11;15,12;1,78;2,05;1,95;0;0;
2226;-25,96;-39,02;-16,17;-6,07;12;1,99;1,96;1,79;0;0;
2247;-29,88;-40,99;-17,81;-6,68;10,64;1,88;2,15;1,57;0;0;
2266;-15,69;-41,61;-18,02;-8,96;14,2;1,95;2,11;1,52;0;0;
2288;-24,87;-42,84;-18,06;-4,25;13,43;1,95;1,93;1,65;0;0;
2308;-21,71;-38,73;-17,16;-8,13;10,57;2,12;1,75;1,49;0;0;
2326;-23,99;-37,91;-17,86;-10,58;9,14;2,04;1,76;1,53;0;0;
2345;-27,13;-42,48;-15,84;-3,21;9,1;1,97;1,67;1,99;0;0;
2363;-27,2;-43,76;-16,88;-4,27;6,73;2,2;1,72;2,17;0;0;
2381;12,63;-37,58;-17,16;-6,39;7,99;2,52;1,79;2,06;0;0;
2401;-36,23;-41,11;-17,03;-7,21;11,04;2,37;1,63;2,09;0;0;
2420;-36,23;-41,11;-17,03;-7,21;14,01;2,31;1,54;2,14;0;0;
2438;-22,97;-36,96;-17,59;-3,73;13,97;2,24;1,66;2,05;0;0;
2457;-24,89;-36,82;-16,16;-3,02;13,7;2,14;1,6;1,84;0;0;
2475;-32,21;-36,82;-17,93;-8,5;12,46;1,6;1,55;1,84;0;0;
2492;30,21;-39,64;-18,08;-8,43;10,18;1,68;1,62;1,83;0;0;
2512;-20,46;-38,13;-13,81;-6,99;8;1,76;1,69;1,86;0;0;
2531;-22,79;-39,26;-16,6;-2,01;6,98;1,82;1,83;1,92;0;0;
2549;-23,49;-44,16;-15,28;-5,79;6,95;1,86;1,8;1,82;0;0;
2568;-28,17;-37,44;-16,63;-7,16;6,63;1,81;1,77;1,76;0;0;
2587;-24,16;-38,91;-16,76;-5,32;6,05;1,84;1,79;1,96;0;0;
2608;-37,45;-39,63;-16,47;-7,88;8,27;1,78;1,81;1,86;0;0;
2627;-26,32;-41,85;-17,42;-6,8;10,58;1,84;1,57;1,84;0;0;
2647;-28,18;-35,74;-15,78;-4,6;10,51;1,94;1,61;1,81;0;0;
2664;-21,54;-39,41;-14,83;-7,03;10,58;1,99;1,49;1,74;0;0;
2682;-20,83;-39,67;-17,47;-3,67;7,82;1,97;1,66;1,72;0;0;
2699;-20,83;-39,67;-17,47;-3,67;3,29;1,91;1,81;1,67;0;0;
2719;-20,32;-41,26;-16,66;-5,85;2,17;1,94;1,71;1,84;0;0;
2738;-49,76;-41,57;-14,85;-4,54;7,5;2,08;1,89;1,86;0;0;
2758;-25,84;-40,97;-19,03;-8,74;9,91;1,95;2,01;1,73;0;0;
2776;-22,04;-38,34;-11,55;-5,7;10,07;2,01;1,88;1,91;0;0;
2795;-22,27;-44,71;-17,85;-5,88;10,05;2,31;1,9;1,86;0;0;
2812;-24,65;-40,09;-15,46;-8,89;9,96;2,07;1,82;1,72;0;0;
2830;-22,4;-41,08;-13,82;-5,91;6,34;1,93;1,86;1,7;0;0;
2852;-22,36;-39,52;-17,13;-8,3;2,59;1,82;1,94;1,69;0;0;
2870;47,91;-38,64;-15,15;-6,05;6,88;1,73;2,03;1,58;0;0;
2889;-33,06;-39,52;-20,16;-2,38;9,89;1,48;2,16;1,67;0;0;
2906;-27,15;-41,68;-21,28;-8,04;10,22;1,57;2,07;1,74;0;0;
2925;-24,98;-38,95;-18,53;-6,44;10,32;1,65;2,14;1,73;0;0;
2947;-22,52;-42,28;-18,76;-4,68;10,24;1,75;2,21;1,82;0;0;
2966;-23,51;-37,69;-16,23;-1,66;9;1,78;2,12;1,83;0;0;
2984;-65,42;-38,61;-21,99;-6,17;8,09;1,69;1,91;1,89;0;0;
3004;-51,73;-39,11;-17,54;-2,98;10,53;1,61;2,06;1,94;0;0;
3023;-26,11;-40,52;-19,82;-5,71;12,25;1,48;2,1;1,84;0;0;
3039;-26,11;-40,52;-19,82;-5,71;14,31;1,6;1,99;1,74;0;0;
3057;-13,75;-42,11;-15,73;-8,35;15,93;1,54;1,96;1,79;0;0;
3075;-16,44;-41,95;-13,54;-7,93;16,28;1,51;2,32;1,9;0;0;
3093;-27,16;-37,69;-16,58;-0,22;11,74;1,55;2,24;1,7;0;0;
3112;-10,69;-37,42;-19,03;-7,79;8,44;1,48;2,22;1,79;0;0;
3131;-43,25;-38,27;-15,19;-2,39;7,19;1,41;2,26;2;0;0;
3150;-30,04;-40,27;-17,97;-4,73;7,82;1,46;2,29;2,13;0;0;
3167;-25,48;-39,51;-14,4;-5,71;6,43;1,42;2,42;2,19;0;0;
3196;-23,06;-40,33;-18,22;-6,42;5,32;1,47;2,36;2;0;0;
3217;-21,47;-39,91;-17,63;-4,97;5,09;1,59;2,3;2,01;0;0;
3236;-23,35;-36,12;-18,29;-7,26;4,79;1,69;2,24;1,82;0;0;
3256;-28,62;-36,39;-14;-10,48;3,06;1,74;2,21;1,8;0;0;
3276;-39,88;-39,89;-19,38;-7,4;7,81;1,91;2,16;1,94;0;0;
3296;-26,17;-41,79;-18,36;-9,64;9,84;1,94;1,89;2,07;0;0;
3314;-20,37;-39,11;-16,26;-7,04;9,97;1,83;1,95;2,08;0;0;
3334;-32;-41,61;-17,93;-5,87;9,65;1,82;1,96;2,03;0;0;
3364;-16,86;-39,45;-15,44;-5,43;10,28;1,62;2;1,89;0;0;
3385;-20,12;-36,2;-15,46;-6,7;7,71;1,65;1,98;1,91;0;0;
3402;-73,23;-43,3;-20,1;-7,66;4,44;1,7;1,81;1,89;0;0;
3420;-73,23;-43,3;-20,1;-7,66;4,65;1,89;1,56;1,77;0;0;
3439;-23,52;-41,58;-14,06;-7,22;4,67;1,95;1,76;1,9;0;0;
3459;-27,93;-40,75;-15,11;-6,29;4,58;1,98;1,95;1,81;0;0;
3476;-25,35;-38,35;-18,96;-5,32;4,07;1,73;2,09;1,85;0;0;
3495;-25,49;-41,79;-16,97;-4,24;3,65;1,53;2,12;1,89;0;0;
3513;-34,04;-40,5;-16,87;-3,93;3,07;1,27;2;1,87;0;0;
3533;-73,96;-38,91;-17,25;1,48;3,62;1,21;1,79;1,88;0;0;
3556;-24,46;-41,25;-18,61;-5,53;5,54;1,32;1,51;1,92;0;0;
3575;-27,67;-39,87;-17,12;-6,08;5,46;1,32;1,28;1,83;0;0;
3593;-20,36;-43,69;-18,35;-7,1;5,76;1,44;1,2;1,72;0;0;
3610;-22,42;-39,15;-17,5;-7,02;5,88;1,64;1,24;1,58;0;0;
3628;-25,85;-43,14;-13,16;-7,99;5,41;1,67;1,36;1,58;0;0;
3647;-23,59;-42,57;-12,23;-8,66;3,04;1,62;1,59;1,57;0;0;
3666;-28,53;-37,92;-14,69;-3,82;2,37;1,7;1,83;1,71;0;0;
3685;19,1;-38,57;-15,65;-7,91;4,59;1,72;1,95;1,87;0;0;
3703;-26,49;-37,44;-16,88;-6,5;6,07;1,71;1,92;1,93;0;0;
3723;-23,72;-37,2;-15,39;-3,1;6,04;1,71;1,89;2,11;0;0;
3742;-21,76;-38,78;-12,71;-3,81;6,02;1,89;1,85;1,97;0;0;
3759;-21,76;-38,78;-12,71;-3,81;5,95;1,94;1,66;1,89;0;0;
3777;-25,7;-40;-19,01;-8,2;6,03;1,95;1,83;1,73;0;0;
3794;-22,68;-38,31;-15,99;-4,34;2,79;1,89;1,85;1,92;0;0;
3814;-23,15;-37,83;-15,74;-4,31;2,86;2,01;1,96;1,81;0;0;
3840;-30,84;-39,14;-15,79;-4,54;4,95;1,89;2,03;1,8;0;0;
3858;-19,53;-39,22;-13,6;-6,19;5,27;1,81;2,03;1,71;0;0;
3876;-22,5;-38,53;-17,01;-9,74;5,67;1,68;2;1,81;0;0;
3894;-27,86;-42,31;-19,81;-5,94;5,75;1,79;1,85;1,83;0;0;
3913;-20,51;-40,79;-19,37;-8,05;4,66;1,68;1,93;1,75;0;0;
3932;-25,18;-39,71;-13,31;-4,71;3,83;1,71;1,86;1,74;0;0;
3950;-25,39;-40,82;-19,98;-4,69;2,72;1,65;2,11;1,81;0;0;
3968;-29,47;-40,64;-16,91;-5,58;2,47;1,53;2,03;2,06;0;0;
3996;-31,94;-36,92;-17,19;-2,65;2,67;1,59;1,8;2,31;0;0;
4013;-21,76;-38,67;-18,17;-6,64;2,96;1,46;1,62;2,13;0;0;
4036;-18,29;-40,1;-13,81;-8,94;3,37;1,38;1,57;2,51;0;0;
4056;-19,27;-39,77;-15,6;-7,06;3,6;1,44;1,37;2,55;0;0;
4074;-21,99;-40,62;-17,37;-3,75;3,83;1,46;1,27;2,31;0;0;
4095;-41,2;-39,81;-15,65;-7,52;8,6;1,48;1,36;2,39;0;0;
4114;-23,44;-38,52;-16,08;-6,93;10,26;1,61;1,61;2,34;0;0;
4133;-25,98;-38,98;-17,77;-5,72;10,12;1,64;1,84;2,27;0;0;
4153;-21,75;-41,96;-15,54;-8,42;10,02;1,58;1,87;2,03;0;0;
4171;-26,22;-38,58;-15,03;-7,78;9,6;1,75;2,03;1,94;0;0;
4189;32,23;-38,1;-17,19;-7,29;9,75;1,67;2,03;1,69;0;0;
4206;-35,59;-37,91;-19,49;-8,09;10,31;1,72;2,17;1,52;0;0;
4224;-27,45;-37,19;-17,12;0,08;10,49;1,8;2,28;1,74;0;0;
4242;-28,06;-37,58;-18,96;-9,87;10,39;1,91;2,2;1,87;0;0;
4263;-22,96;-38,86;-17,45;-1,16;10,54;1,94;2,21;2,2;0;0;
4289;-27,72;-37,37;-26,91;-5,93;10,27;1,94;2,76;2,4;0;0;
4308;27;-40,69;-15,89;-6,19;9,86;1,9;2,91;2,62;0;0;
4327;-24,6;-41,79;-15,96;-6,57;8,38;1,78;3,07;2,65;0;0;
4349;-27,99;-39,08;-33,6;-9,43;8,41;1,7;4,15;2,45;0;0;
4366;-24,13;-35,59;-17,13;-6,42;8,12;1,72;4,93;2,43;0;0;
4383;-21,63;-40,75;-6,55;-6,87;8,01;1,68;5,69;2,32;0;0;
4402;-57,71;-40,24;9,69;-4,47;7,94;1,64;6,89;2,28;0;0;
4419;-57,71;-40,24;9,69;-4,47;5,49;1,61;8,53;2,31;0;0;
4441;-9,48;-36,2;-17,83;-6,1;6,17;1,51;7,4;2,36;0;0;
4459;-9,48;-36,2;-17,83;-6,1;6,71;1,52;6,51;2,15;0;0;
4477;-23,65;-41,81;-18,6;-3,19;7,3;1,47;6,03;2,03;0;0;
4495;16,61;-39,1;-13,44;-6,36;10,73;1,48;4,69;1,86;0;0;
4515;-27,17;-41,82;-16,63;-4,62;9,83;1,58;2,94;1,94;0;0;
4536;-21,92;-41,1;-13,84;-7,86;7,91;1,71;1,75;2,18;0;0;
4557;-22,8;-35,04;-12,65;-9,37;7,21;1,72;1,58;2,25;0;0;
4573;-24,17;-40,85;-15,91;-6,13;6,08;1,65;1,47;2,31;0;0;
4593;-42,67;-42,19;-14,26;-3;11,09;1,66;1,58;2,39;0;0;
4619;-19,22;-37,23;-19,06;-6,05;7,28;1,82;1,51;2,37;0;0;
4638;-25,25;-42,16;-15,67;-8,6;6,88;1,8;1,5;2,05;0;0;
4658;-21,81;-36,28;-15,04;-9,39;6,75;1,92;1,45;1,99;0;0;
4676;-1,53;-41,59;-18,84;-8,4;10,22;2,04;1,53;2,05;0;0;
4695;-43;-40,78;-17,74;-5,2;10,73;1,99;1,52;1,95;0;0;
4713;-15,32;-39,87;-18,96;-5,13;9,76;1,91;1,51;1,91;0;0;
4732;-21,69;-41,7;-14,75;-5,41;10,27;1,82;1,59;1,97;0;0;
4752;-22,72;-41,98;-14,39;-8,97;10,12;1,81;1,73;2,23;0;0;
4779;-33,71;-38,42;-18,56;-5,88;11,91;1,94;1,79;2,06;0;0;
4798;-22,55;-41,36;-20;-4,97;7,06;1,77;2,04;2,13;0;0;
4815;-21,82;-36,03;-17,63;-5,22;5,08;1,86;2,12;2,23;0;0;
4834;-24,61;-42,77;-16,78;-10,12;4,19;1,92;2,15;2,05;0;0;
4853;-15,73;-41,27;-11,36;-8,3;6,2;1,75;2,3;1,99;0;0;
4871;-44,78;-40,98;-17,01;-8,16;10,34;1,56;2,26;1,92;0;0;
4889;-23,54;-42,6;-18,86;-7,49;10,43;1,55;2,09;1,79;0;0;
4908;-22,48;-37,65;-16,26;-7,41;10,48;1,49;2,22;1,77;0;0;
4926;-26,08;-40,22;-17,77;-4,65;10,69;1,46;2,16;2,13;0;0;
4944;-19,54;-41,57;-16,21;-3,88;11,06;1,5;2,04;2,28;0;0;
4962;-42,28;-41,33;-15,31;-5,97;10,42;1,65;1,84;2,25;0;0;
4979;-42,28;-41,33;-15,31;-5,97;12,82;1,83;1,73;2,23;0;0;
4996;-18,04;-39,9;-12,44;-3;12,45;1,66;1,63;2,18;0;0;
5013;-26,93;-40,26;-20,37;-8,09;12,25;1,76;1,8;2,2;0;0;
5031;-23,72;-38,48;-19,63;-6,18;12,32;2,09;1,94;1,99;0;0;
5050;-44,2;-39,07;-14,9;-6,35;14,22;2,15;2,07;2,02;0;0;
5070;-28,66;-41,18;-18,76;-9,53;11,45;2,03;2,06;2,04;0;0;
5090;-22,42;-38,93;-19,38;-12,43;10,09;2,04;2,07;2,28;0;0;
5109;-23,87;-41,37;-16,5;-6,8;9,93;2,18;1,82;2,19;0;0;
5127;-25,83;-41,95;-16,43;-7,15;9,85;2,47;1,74;2,22;0;0;
5147;-23,04;-40,01;-15,16;-8,04;7,3;2,35;1,89;2,17;0;0;
5165;-11,72;-41,36;-15,41;-4,57;8,63;2,22;1,77;2,09;0;0;
5184;-21,62;-42,1;-17,12;-6,45;7,89;2,22;1,71;2,25;0;0;
5204;-16,19;-39,09;-17,35;-9,26;7,87;2,34;1,48;1,94;0;0;
5222;-29,27;-39,38;-12,8;-4,41;8,61;1,97;1,51;2,17;0;0;
5249;33,82;-41,35;-14,81;-4,3;12,43;1,89;1,38;2,2;0;0;
5267;-25,51;-41,48;-14,39;-6,79;10,27;1,91;1,53;2,27;0;0;
5286;-21,5;-40,22;-16,34;-5,32;6,78;1,88;1,6;2,23;0;0;
5304;-22,77;-38,93;-16,27;-7,39;6,63;1,85;1,62;2,22;0;0;
5322;-21,83;-40,84;-16,67;-7,68;6,09;2,09;1,65;2,07;0;0;
5339;-21,83;-40,84;-16,67;-7,68;5,05;2,22;1,64;1,9;0;0;
5358;-20,13;-40,61;-13,87;-6,94;2,03;2,23;1,73;1,64;0;0;
5377;-20,13;-40,61;-13,87;-6,94;2,49;2,2;1,76;1,46;0;1;
5405;-3,64;-38,31;-14,54;-6,46;9,84;2,44;1,71;1,36;0;1;
5424;-26,36;-42,68;-15,6;-5,35;12,06;2,45;1,94;1,52;0;1;
5443;-22,43;-37,71;-16,44;-4,46;12,31;2,32;2,22;1,68;0;1;
5459;-22,43;-37,71;-16,44;-4,46;12,23;2,23;2,51;1,89;0;1;
5477;-27,31;-36,6;-16,92;-5,58;11,86;2,48;2,33;2,05;0;1;
5496;42,23;-41,57;-17,99;-5,18;13,53;2,3;2,16;2,13;0;1;
5515;-20,24;-37,49;-18,6;-3,6;8,45;2,2;2,21;2,24;0;1;
5534;-23,79;-39,78;-15,66;-3,43;8,01;2,39;2,08;2,25;0;1;
5555;-22,73;-39,14;-13,45;-11,51;8,15;2,22;1,84;2,19;0;1;
5573;44,81;-39,82;-14,55;-8,87;12,63;1,95;1,89;2,15;0;1;
5596;-23,54;-39,6;-15,49;-9,39;12,58;1,84;1,91;2,25;0;1;
5616;-23,32;-37,85;-18,22;-6,28;8,51;2,14;1,98;2,13;0;1;
5634;-22,42;-41,73;-14,25;-6,55;8,68;1,99;2,1;2,21;0;1;
5653;34,48;-36,33;-16,87;-6,43;10,98;1,92;2,11;2,06;0;1;
5672;-18,35;-43,1;-16;-7,8;11,46;1,99;2,06;1,91;0;1;
5690;-19,63;-42,46;-18,48;-3,39;7,33;2,26;1,92;1,8;0;1;
5708;-34,53;-39,01;-15,86;-6,56;7,6;2,01;1,83;1,62;0;0;
5726;-23,26;-35,77;-19,33;-3,18;7,9;2,18;1,66;1,79;0;0;
5743;-33,18;-37,23;-15,95;-5,33;10,07;2,36;1,62;1,62;0;0;
5766;-25,24;-38,35;-14,16;-6,04;6,46;2,3;1,64;1,67;0;0;
5783;-21,55;-37,95;-16,25;-5,73;5,89;2,06;1,61;1,81;0;0;
5807;-43,55;-39,14;-15,03;-5,06;8,46;2,27;1,64;1,89;0;0;
5830;-41,85;-37,2;-16,78;-3,26;11,93;2,15;1,66;1,9;0;0;
5851;-28,74;-39,64;-19,45;-9,57;11,07;2,06;1,79;1,96;0;0;
5874;-23,58;-37,31;-15,35;-5,91;10,17;1,96;1,79;2,21;0;0;
5896;-20,75;-41,83;-20,93;-10,54;11,84;2,22;1,91;2,1;0;0;
5915;-52,68;-38,16;-15,25;-2,03;17,56;2,34;2,19;1,98;0;0;
5934;-20,11;-41,72;-18,26;-7,66;13,25;2,14;2,14;2,01;0;0;
5955;-24,16;-35,42;-19,79;-9,01;11,43;2,31;2,12;2,02;0;0;
5973;-27,26;-41,01;-17,71;-7,16;10,87;2,32;2,21;1,65;0;0;
5994;-67,84;-38,67;-19,29;-2,6;12,48;2,02;2,05;1,94;0;0;
6012;-26,96;-40,63;-17,47;-5,42;8,71;1,73;2,03;2,08;0;0;
6042;-28,57;-35,74;-15,1;-10,43;6,86;1,72;1,97;1,88;0;0;
6059;-28,57;-35,74;-15,1;-10,43;6,9;1,61;2,03;1,75;0;0;
6078;30,82;-40,61;-18,44;-9,57;12,25;1,56;1,94;1,82;0;0;
6096;-43,98;-38,8;-18,86;-1,37;16,01;1,62;1,67;1,81;0;0;
6116;-14,74;-37,53;-11,87;-6,92;13,61;1,63;1,87;1,59;0;0;
6136;-20,11;-38,36;-12,25;-4,6;12,25;1,64;2,14;1,7;0;0;
6156;-25,44;-39,42;-16,73;-8,21;11,26;1,63;2,25;1,7;0;0;
6176;-7,93;-38,39;-17,53;-3,19;11,7;1,6;2,38;1,74;0;0;
6203;-34,54;-39,09;-12,23;-4,33;9,98;1,53;2,26;1,7;0;0;
6221;-17,78;-38,83;-19,3;-9,87;9,86;1,56;2,27;1,8;0;0;
6239;-17,78;-38,83;-19,3;-9,87;10,3;1,6;2,22;1,81;0;0;
6257;-30,9;-37,91;-21,47;-9,74;10,53;1,67;2,5;1,8;0;0;
6275;-37,37;-43,3;-16,39;-6,19;14,12;1,74;2,26;1,87;0;0;
6295;-22,27;-43,73;-16,97;-7,04;10,33;1,84;2,25;1,77;0;0;
6312;-38,3;-37,13;-16,01;-5,43;10,19;1,85;2,18;1,74;0;0;
6332;-19,58;-39,91;-18,53;-5,3;9,61;1,92;2,21;1,67;0;0;
6350;-25,93;-41,59;-11,8;-4,22;9,52;2,11;2;1,53;0;0;
6368;30,36;-36,95;-16,89;-4,97;12,51;2,04;1,84;1,47;0;0;
6387;-30,04;-41,58;-15,32;-7,15;9,58;2,09;1,8;1,46;0;0;
6405;-24,77;-38,48;-15,77;-3,71;9,6;1,78;1,98;1,58;0;0;
6425;-24,69;-37,65;-16,45;-7,47;9,13;1,86;1,96;1,97;0;0;
6442;-24,69;-37,65;-16,45;-7,47;8,7;1,79;1,91;2,2;0;0;
6463;-0,36;-42,57;-20,71;-5,53;12,83;1,79;1,82;2,41;0;0;
6484;-23,49;-35,4;-15,59;-6,92;8,64;1,72;2,02;2,41;0;0;
6502;-24,68;-36,28;-17,7;-4,74;8,22;1,89;1,84;2,36;0;0;
6521;-23,42;-40,81;-16,54;-0,77;8,03;1,98;1,93;2,39;0;0;
6540;-23,42;-40,81;-16,54;-0,77;7,97;2,04;2,06;2,27;0;0;
6559;-23,63;-35;-18,92;-3,38;6,93;2,2;2,06;2,14;0;0;
6578;-29,39;-38,84;-15,81;-3,5;4,38;2,14;2,08;2,21;0;0;
6596;-23,17;-34,64;-17,16;-6,62;4,63;2,28;1,9;2,22;0;0;
6614;-20,68;-40,26;-14,94;-3,15;4,74;2,25;1,94;2,35;0;0;
6635;-27,7;-36,59;-16,95;-4,98;4,95;2,3;1,79;2,21;0;0;
6653;-25,37;-37,91;-18,38;-5,71;4,73;2,25;1,62;2,17;0;0;
6675;-46,65;-36,03;-15,85;-4,16;8,43;2,25;1,68;2,08;0;0;
6695;-34,77;-36,25;-15,42;-6,19;9,02;2,55;1,56;2,03;0;0;
6715;-27,05;-40,47;-17,06;-4,1;9,07;2,72;1,55;2,03;0;0;
6735;-27,55;-41,33;-14,39;-5,83;8,75;2,42;1,42;1,81;0;0;
6754;44,63;-39,27;-19,49;-2,52;13,91;2,53;1,64;1,84;0;0;
6772;-40,08;-43,04;-12,35;-1,41;13,95;2,6;1,49;1,74;0;0;
6789;-23,18;-38,28;-23,48;-6,71;12,29;2,82;1,72;1,71;0;0;
6807;-22,6;-40,62;-11,19;-9,01;12,36;2,57;1,96;2;0;0;
6824;-25,13;-40,36;-14,23;-3,02;12,43;2,37;2,13;2,23;0;0;
6845;-27,08;-40,11;-16,27;-7,42;14,05;2,63;2,07;2,28;0;0;
6865;-27,08;-40,11;-16,27;-7,42;10,78;2,94;2,01;2,18;0;0;
6884;-27,47;-40,16;-18,92;-1,17;8,7;2,72;1,99;2,3;0;0;
6900;-27,47;-40,16;-18,92;-1,17;7,93;2,32;2,01;2,42;0;0;
6920;-46,7;-45,36;-14,67;-13,87;10,25;2,52;1,81;2,41;0;0;
6944;-27,05;-39,73;-20,37;-6,68;8,67;2,43;2,21;2,55;0;0;
6962;-21,56;-44,46;-14,28;-14,11;5,98;2,15;2,44;3,56;0;0;
6982;-24,51;-39,09;-6,37;-0,95;5,25;2,11;2,54;4,33;0;0;
6999;-24,51;-39,09;-6,37;-0,95;5,48;2,33;2,74;5,05;0;0;
7020;-30;-37,19;-14,92;-26,61;8,03;2,26;2,97;6,14;0;0;
7038;-20,82;-38,5;-23,25;-22,25;5,87;2,22;3,18;8,26;0;0;
7059;-19,99;-40,55;-26,17;8,36;6,17;2,41;3,9;9,45;0;0;
7077;-20,34;-36,31;-3,93;-3,28;6,61;2,32;5,37;9,94;0;0;
7098;34,43;-40,27;2,55;-12,88;11,55;2,24;6,59;10,66;0;0;
7115;-28,33;-39,51;3,98;-16,26;13,22;2,18;8,15;13,02;0;0;
7133;-24,48;-36,77;-24,24;-6,19;11,51;2,14;8,12;13,12;0;0;
7151;-24,87;-39,12;-18,18;0,64;11,6;2,11;7,92;12,13;0;0;
7169;-21,84;-40,73;-14,48;2,35;12;2,08;6,92;10,43;0;0;
7188;-57,82;-35,21;-17,06;-1,01;13,18;1,83;5,74;9,35;0;0;
7209;-41,96;-36,28;-16,26;-9,11;12,35;1,98;3,46;7,02;0;0;
7257;-24,02;-40,07;-21,18;-5,72;11,04;2,01;2,4;4,39;0;0;
7277;-22,8;-38,91;-15,22;1,2;10,85;1,78;1,9;4,14;0;0;
7297;11,99;-40,09;-22,86;-5,24;14,37;1,65;2;3,29;0;0;
7314;-33,5;-42,59;-16,43;-15,75;16,72;1,81;2,16;3,32;0;0;
7332;-24,86;-37,53;-14,72;-4,75;11,37;1,8;2,41;3,01;0;0;
7352;-32,53;-40,81;-15,35;-8,42;9,6;1,41;2,43;2,96;0;0;
7369;-16,96;-36,23;-14,6;-1,03;9,91;1,82;2,38;2,95;0;0;
7392;2,93;-34,06;-12,92;-7,71;14,94;2,04;2,56;3,19;0;0;
7411;-20,79;-40,13;-10,16;-1,98;10,6;2,26;2,42;3,87;0;0;
7428;-28,35;-37,57;-18,41;-7,98;9,04;2,36;2,22;3,6;0;0;
7446;-24,6;-37,05;-14,21;-13,92;9,18;2,45;2,18;4,17;0;0;
7465;-38,85;-36,39;-18,33;-21,62;9,59;2,79;2,35;4,94;0;0;
7484;-30,63;-43,06;-16,04;-5,72;8,63;2,69;2,29;4,68;0;0;
7502;-16,63;-41,49;-12,26;-4,05;5,37;2,58;2,42;4,38;0;0;
7520;-20,19;-37,93;-5,7;2,92;5,41;2,34;3,02;4,35;0;0;
7539;-20,19;-37,93;-5,7;2,92;5,62;2,06;3,81;4,47;0;0;
7558;-35,05;-45,01;-18,71;36,11;9,56;1,85;4,36;8,61;0;0;
7578;-14,51;-35,52;-18,08;17,11;9,66;1,93;4,27;9;0;0;
7598;-18,5;-40,91;-28,92;-14,22;13,55;1,99;4,71;10,99;0;0;
7615;-70,93;-37,88;-3,59;-8,77;15,11;2,28;4,98;11,26;0;0;
7635;-47,09;-41,21;-11,6;-9,8;20,62;2,53;4,96;11,53;0;0;
7653;-24,69;-37,88;-13,6;-10,11;20,37;2,69;4,19;10,6;0;0;
7672;-17,01;-42,2;-2,66;-5,2;17,39;2,62;4,47;9,14;0;0;
7691;-20,34;-40,48;-12,14;-4,85;16,52;2,74;5,15;10,03;0;0;
7710;34,61;-43,69;-30,33;-8,27;20,93;2,54;5,47;9,83;0;0;
7729;-17,88;-38,29;-18,19;-1,79;18,17;2,41;4,73;11,41;0;0;
7747;-20,68;-41,52;-13,39;-10,28;14,2;2,35;5,2;11,46;0;0;
7767;-21,32;-38,99;-19,74;-41,39;14,5;2,32;6,64;13,39;0;0;
7785;-25,84;-39,28;-22,74;-9,62;13,72;2,14;6,53;13,74;0;1;
7802;18,54;-36,94;-22,48;9,88;16,74;1,79;6,28;13,29;0;1;
7822;-23,74;-35,49;-13,26;-34,7;8,51;1,82;6,24;14,88;0;1;
7841;-23,74;-35,49;-13,26;-34,7;7,96;1,93;6,41;16,81;0;0;
7860;-33,3;-36,11;-30,32;-15,78;11,03;1,85;6,3;17,3;0;0;
7885;-25,29;-41,11;-8,86;-5,6;10,78;1,7;6,97;16,92;0;0;
7907;7,87;-34,83;-23,17;-2,96;12,93;1,85;7,68;16,15;0;0;
7929;-23,33;-38,1;-20,65;-9,19;10,56;1,76;7,51;16,4;0;0;
7948;-31,16;-41,97;-15,74;-4,39;10,75;1,61;7,7;14,25;0;0;
7966;-26,46;-40,61;-25,52;6,14;8,28;1,7;8,63;12,08;0;0;
7986;-54,51;-40,82;-28,93;-41,09;12,64;1,7;7,14;12,44;0;0;
8005;-44,75;-39,89;-19,47;5,64;17,68;1,84;6,26;13,09;0;0;
8023;-14,18;-34,97;-17,79;11,14;14,77;1,8;8,06;12,29;0;0;
8043;-23,19;-40,61;-39,99;14,67;14,9;2,02;8,75;13,69;0;0;
8062;-29,87;-38,41;-16,44;-17,53;14,47;2,05;10;13,15;0;0;
8079;-29,87;-38,41;-16,44;-17,53;13,66;2,01;10,54;11,93;0;0;
8098;-42,19;-40,09;-19,1;29,16;9,08;1,91;10,3;10,45;0;0;
8114;-27,43;-32,67;-17,13;-8,4;6,16;1,93;9,48;10,17;0;0;
8135;-21,53;-42,71;-2,48;-9,21;5,33;2,1;7,84;9,22;0;0;
8156;37,91;-35,11;-9,84;-3,37;10,05;2,06;6,31;10,49;0;0;
8174;-42,22;-37,63;-20,41;13,35;14,93;2,1;5,65;13,17;0;0;
8192;-22,48;-40,46;-2,65;36,82;14,22;2,1;5,48;15,4;0;0;
8212;-41,26;-35,97;-8,99;-17,97;16,9;2,26;7,01;16,05;0;0;
8244;8,75;-41,07;-0,3;-17,71;23,64;1,98;8,62;16,07;0;0;
8266;-21,97;-38,31;-11,67;7,85;25,01;2,03;8,86;18,12;0;0;
8286;-9,22;-41,08;-12,27;-14,74;18,5;2,03;9,33;15,81;0;0;
8304;50,05;-40;-27,02;18,5;20,75;1,75;10,33;15,86;0;0;
8330;-37,8;-43,22;-15,24;-8,11;18,55;1,87;9,23;12,64;0;0;
8350;-26,4;-37,92;-16,18;-6,93;15,84;1,73;7,18;11,43;0;0;
8369;-38,63;-39,15;-24,45;-10,01;11,62;1,73;6,18;9,6;0;0;
8396;-21,86;-37,02;34,2;-2,25;14,21;1,63;11,58;6,16;0;0;
8413;-23,46;-38,91;-16,92;-0,3;17,38;1,93;11,99;3,55;0;0;
8431;-30,98;-40,23;-18,28;-4,35;15,26;1,8;11,92;2,58;0;0;
8448;-28,88;-39,64;-9,7;3,62;15,65;1,73;11,97;2,92;0;0;
8465;-17,9;-40,75;-21,6;-13,83;16,74;1,73;12,39;3,23;0;0;
8484;-16,18;-40,33;-0,55;-4,22;20,23;1,67;9,83;3,41;0;0;
8502;-46,57;-41,47;-18,89;3,74;22,08;1,56;6,66;3,53;0;0;
8522;-17,44;-35,6;-83,18;-15,5;20,71;1,53;10,62;3,9;1;0;
8543;-27,33;-35,33;-39,84;-8,9;19,58;1,79;13,57;4,53;1;0;
8565;-34,96;-37,38;-60,15;1,76;19,47;1,88;31,11;4,59;1;0;
8583;-107,72;-40,43;88,93;-8,05;22,2;1,83;40,78;5,07;1;0;
8602;-22,84;-41,69;-76,55;-10,89;16,38;2,14;51,86;5;1;0;
8620;-22,84;-41,69;-76,55;-10,89;18,28;2,35;63,74;4,55;0;0;
8643;-18,89;-38,68;114,12;8,12;19,2;2,42;76,4;5,46;0;0;
8665;-31,56;-40,64;-11,55;8,95;18,84;2,27;83,22;6,44;0;0;
8688;-63,32;-40,96;116,22;-10,35;24,5;2,2;87,51;6,04;0;0;
8710;-24,26;-35,25;-39,61;-8,99;19,21;2,39;91,61;6,16;0;0;
8732;-25,95;-40,98;-4,99;0,58;15,97;2,18;88,71;6,41;0;0;
8751;3,38;-38,91;18,26;-6,49;16,73;2,06;72,8;6,01;0;0;
8769;7,27;-39,39;24,06;-0,25;20,79;1,83;65,98;4,49;0;0;
8788;-50,2;-37,94;53,89;-8,63;20,16;1,75;60,74;4,86;0;0;
8809;-12,5;-40,62;53,67;2,6;17,94;1,68;67,39;5,93;0;0;
8828;-39,38;-38,6;-121,57;6;21,79;1,49;68,3;5,89;0;0;
8848;-31,09;-40,02;-72,46;-8,81;26,98;1,3;64,22;6,16;0;0;
8868;-32,71;-39,53;-59,17;-14,53;29,15;1,49;69,45;6,06;0;0;
8887;-18,74;-40,26;-120,03;-16,58;27,72;1,74;66,06;5,87;0;0;
8905;16,42;-40,03;37,15;-10,71;37,55;1,95;54,86;5,52;0;0;
8926;-120,19;-42,33;-56,95;-2,08;49,54;1,9;51,56;4,8;0;0;
8945;-69,61;-40,07;24,44;-10,34;50,68;1,88;47,28;5,77;0;0;
8969;0,23;-30,68;50,79;-8,01;48,24;2,09;47,07;5,79;0;0;
8993;50,45;-39,64;-27,92;-7,95;52;2,05;44,8;5,52;0;0;
9012;-3,65;-39,37;10,38;-7,41;51,64;2,03;46,85;5,55;0;0;
9044;17,27;-35,23;-10,78;-8,06;36,38;1,98;40,97;5,55;0;0;
9067;-12,85;-40,07;-34,65;-9,9;26,95;1,95;41,4;5,23;0;0;
9088;-4,57;-36,79;8,94;4,87;29,9;2;40,97;4,68;0;0;
9107;-34,6;-40,62;-10,55;-29,51;29,68;1,6;28,79;6,73;0;0;
9125;-29,48;-38,39;-21,09;21,58;30,46;1,58;24,08;8,25;0;0;
9143;12,28;-37,95;-9,14;-6,9;40,97;1,62;19,57;8,46;0;0;
9160;12,28;-37,95;-9,14;-6,9;51,08;1,76;9,3;8,3;0;0;
9177;-23,75;-35,35;-11,33;-11,79;48,74;2,01;6,28;7,99;0;0;
9203;-45,59;-41,97;-20,07;-14,23;40,22;2,13;5,93;8,45;0;0;
9222;-37,63;-40,77;-38,75;-12,09;44,53;2,18;9,12;7,21;0;0;
9241;-57,12;-41,34;-17,23;0,24;41,6;2,15;9,59;5,16;0;0;
9259;-57,12;-41,34;-17,23;0,24;33,67;2,04;9,18;5,03;0;0;
9277;29,43;-41,24;5,28;-7,1;33,16;1,77;10,89;5,3;0;0;
9296;-24,68;-35,32;-71,39;-12,15;35,79;1,78;17,76;3,73;0;0;
9315;-68,44;-33,51;-65,7;-8,58;38,29;1,84;24,34;3,31;0;0;
9337;31,77;-37,96;-0,41;-5,69;38,08;1,93;26,78;3,11;0;0;
9356;-81,54;-38,84;-17,18;-8,84;40,17;2,04;26,52;3,1;0;0;
9375;-64,55;-36,32;-18,92;-23,07;41,19;2,16;25,27;4,15;0;0;
9393;18,45;-38,32;-23,39;1,79;41,69;1,99;21,62;5,57;0;0;
9411;87,76;-39,9;-16,53;-10,9;42;1,97;12,01;5,65;0;0;
9430;-73,33;-34,44;-11,02;-9,07;44,86;2,08;5,73;5,8;0;0;
9449;-78,81;-42,71;-17,53;-6,34;54,89;1,99;3,31;5,38;0;0;
9467;-35,01;-39,4;-30,75;-4,7;58,09;2,09;4,24;4,88;0;0;
9484;-141,46;-37,43;220,1;1,89;57,33;2,13;23,66;3,96;0;0;
9504;-85,66;-38,8;-197,6;-4,22;55,88;1,99;44,41;3,79;0;0;
9524;-20,74;-41,99;-6,88;-7,95;56,28;1,88;57,82;3,51;0;0;
9546;64,88;-44,56;83,96;-1,15;45,49;2,04;68,73;3,81;0;0;
9564;175,74;-38,59;112;-11,55;46,9;1,93;80,25;4,78;0;0;
9581;-105,67;-43,93;95,04;-2,3;53,09;1,91;82,27;4,8;0;0;
9599;-105,67;-43,93;95,04;-2,3;59,24;1,84;66,41;4,23;0;0;
9619;-129,31;-44,49;-41,59;-10,19;56,58;1,93;52,47;4,2;0;0;
9638;-95,97;-36,96;-101,8;-11,5;61,61;2;50,06;4,61;0;0;
9656;-1,37;-40,8;13,42;-11,78;57,62;1,71;49,5;4,3;0;0;
9678;-53,38;-42,35;54,14;-1,41;51,01;1,98;48,81;3,76;0;0;
9697;-32,87;-37,05;-74,53;-7,92;46,03;2,37;43,9;4,4;0;0;
9716;-29,75;-40,75;-26,38;-13,26;39,58;2,41;55,5;4,45;1;0;
9733;-5,73;-41,21;13,77;-4,21;37,1;2,42;57,95;4,94;1;0;
9752;-96,59;-40,44;39,22;-14,9;37,88;2,35;54,88;4,79;1;0;
9772;-56,98;-37,41;8,43;-1,86;40,77;2,36;56,89;5,15;1;0;
9791;-39,12;-40,02;-184,56;-1,24;36,18;2,1;57,78;4,39;1;0;
9809;-35,12;-43,94;24,16;-0,78;34,38;2,12;60,7;5,23;1;0;
9837;-36,09;-43,19;-95,04;-5,47;36,34;2,37;53,22;4,68;1;0;
9856;-18,21;-38,41;-54,23;-2,36;41,35;2,37;56,96;4,59;1;0;
9873;-52,13;-36,57;-8,33;2,25;39,03;2,46;57,13;4,51;1;0;
9891;22,99;-36,31;29,32;-6,21;36,65;2,31;57,14;5,06;1;0;
9912;-21,8;-36,58;-34,68;-1,55;35,42;2,32;49,64;4,65;1;0;
9930;-26,58;-40,1;-8,07;-1,2;37,95;2,33;51,04;4,41;1;0;
9948;51,35;-41,82;-17,23;-9,89;42,31;2,04;48,77;4,09;1;0;
9966;-5,09;-39,58;-75,14;-2,38;39,13;2,08;37,96;3,88;1;0;
9993;-140,67;-40,25;27,16;-3,11;37,77;2,4;40,41;3,7;1;0;
10013;2,48;-41,6;-42,19;-1,42;51,05;2,37;35,32;3,34;1;0;
10031;-44,11;-38,65;115,26;-7,68;52,52;2,28;48,09;3,82;1;0;
10049;4,34;-36,04;-11,93;-2,19;48,54;2,46;54,04;3,52;0;0;
10066;6,14;-42,6;11,72;-11,01;44,13;2,38;57,82;4,11;0;0;
10084;-15,21;-38,75;-32,45;-5,14;43,97;2,1;56,82;4,36;0;0;
10102;-92,7;-39,25;-91,7;-6,71;35,35;2,12;64,21;4,3;0;0;
10121;-11,91;-40,93;-13,46;-6,41;29,59;2,08;57,74;3,65;0;0;
10146;-157,48;-39,62;110,45;-7,51;41,15;1,82;48,79;3,87;0;0;
10169;-30,49;-38,31;-23,2;-4,47;41,85;1,97;48,42;4,18;0;0;
10188;-24,36;-38,33;-16,99;-8,46;41,68;1,99;48,34;4,11;0;0;
10206;-88,96;-37,57;-61,38;-11,2;40,55;1,94;64,05;4,37;0;0;
10225;-7,61;-37,41;114,64;-5,53;44,43;1,7;57,22;4,24;0;0;
10242;40,34;-40,07;-118,55;-5,46;41,63;1,71;64,61;4,56;0;0;
10260;-70,33;-44,69;-14,79;-5,81;35,12;1,86;61,35;4,19;0;0;
10278;-70,33;-44,69;-14,79;-5,81;35,04;1,95;65,5;4,23;0;0;
10295;-119,03;-39,49;-8,78;-3,83;44;2,06;57,58;3,74;0;0;
10314;63,88;-41,17;-13,52;-3,84;47,48;2,21;45,73;3,64;0;0;
10332;9,8;-36,24;-17,54;-1,16;46,09;2,32;35,84;3,41;0;0;
10350;-68,52;-38,23;-14,39;-15,38;43,75;2,24;22,64;2,95;0;0;
10367;97,09;-40,44;-35,24;-7,44;43,79;2,04;14,51;3,04;0;0;
10385;-39,31;-36,97;-30,17;-8,82;41,49;2;9,45;2,66;0;0;
10403;-70,56;-39,62;-15,67;-6,91;35,96;2,09;4,13;2,3;0;0;
10422;-24,72;-36,54;-16,16;-9,25;29,79;2,21;3,8;2,44;0;0;
10441;70,74;-36,95;-47,8;-8,26;31,62;2,03;7,31;2,59;0;0;
10468;25,61;-41,47;-42,22;-11,94;42,96;1,9;11,49;2,52;0;0;
10485;-91,57;-37,44;53,46;-5,93;47,46;2,22;15,99;2,44;0;0;
10505;-44,37;-39,12;-17,35;-8,5;44,25;2,02;16,32;2,45;0;0;
10524;-39,9;-41,7;-8,44;-6,93;46,47;1,88;16,72;2,62;0;0;
10543;-55,79;-38,28;-17,03;-8,05;48,32;1,84;15,92;2,36;0;0;
10563;36,18;-37,38;-15,49;-1,37;44,89;1,86;12,47;2,1;0;0;
10582;-53,61;-43,17;-16,87;-6,93;31,54;1,96;8,75;1,83;0;0;
10601;-65,31;-39,64;-24,38;-5,72;31,71;1,8;4,34;1,78;0;0;
10627;13,42;-40,44;-15,66;-7,56;42,96;1,77;4,88;1,94;0;0;
10645;-59,41;-35,33;-37,23;-3,51;43,12;1,79;5;2,12;0;0;
10665;-26;-36,71;-20,41;-12,79;42,2;1,81;6,71;2,41;0;0;
10684;-4,18;-38,64;-12,2;-6,71;45,17;1,89;7,7;2,55;0;0;
10701;-41,63;-36,68;-14,55;-0,94;43;1,93;7,24;2,61;0;0;
10721;-8,04;-39,14;-22,46;-6,53;37,09;2,1;7,37;2,74;0;0;
10738;-8,04;-39,14;-22,46;-6,53;32,15;2,14;7,89;2,61;0;0;
10757;-3,21;-39,27;-16,18;-6,71;36,68;2,12;6,87;2,58;0;0;
10776;-2,01;-39,24;-19,41;-1,27;33,52;2;4,96;2,24;0;0;
10797;-36,6;-36,93;-21,85;-9,38;33,72;1,88;4,29;2,17;0;0;
10819;-98,67;-39,13;-12,71;-7,63;33,44;1,79;3,74;2,01;0;0;
10836;-55,3;-44,49;-19,37;0,15;38,54;1,8;3,32;2,01;0;0;
10853;-38,21;-40,49;-18,22;-5,43;35,77;1,67;2,64;2,03;0;0;
10873;-20,63;-35,4;-19,62;-3,99;33,43;1,73;2,43;1,79;0;0;
10892;-47,59;-40,26;-17,12;-2,04;35,15;1,89;2,51;2,06;0;0;
10910;-42,14;-33,97;-17,06;-6,08;35,12;2,13;2,42;2,12;0;0;
10930;-77,39;-37,33;-14,69;-7,41;32,7;2,19;1,88;2,06;0;0;
10949;-95,92;-40,98;-19,28;-7,65;39,3;2,47;1,97;2,07;0;0;
10967;-5,39;-37,29;-20,36;-7,44;39,14;2,64;1,89;2,02;0;0;
10990;-26,94;-43,33;-14,68;-8,05;31,65;2,44;1,95;1,86;0;0;
11007;65,38;-39,3;-16,05;-6,91;31,81;2,36;2,11;1,6;0;0;
11025;-73,64;-36,43;-13,21;-7,73;29,74;2,05;2,08;1,68;0;0;
11043;16,02;-35,95;-13,28;-7,58;29,24;2,01;1,95;1,65;0;0;
11063;-49,73;-42,55;-11,12;-7,02;23,37;1,85;1,88;1,73;0;0;
11083;-20,64;-40,52;-18,59;-4,49;22,42;1,95;2,1;1,61;0;0;
11102;-34,35;-40,23;-16,43;-1,19;28,25;2,12;1,95;1,88;0;0;
11119;-34,35;-40,23;-16,43;-1,19;26,09;2,29;1,89;2,36;0;0;
11138;1,07;-41,12;-14,3;-5,04;26,04;2,4;2,19;2,65;0;0;
11157;-42,82;-39,11;-21,1;-6,43;24,12;2,38;2,32;2,66;0;0;
11173;-24,38;-37,93;-11,01;-8,41;24,34;2,34;2,29;2,62;0;0;
11191;-49,85;-44,3;126,87;-5,34;22,5;2,23;12,66;2,53;0;0;
11212;-59,69;-43,67;-60,94;-2,71;18,54;2,45;22,53;2,31;0;0;
11232;-39,69;-42,01;-68,25;-8,16;19,83;2,69;26,51;2,05;0;0;
11249;22,36;-36,83;22;-11,22;23,65;2,74;35,59;2,43;0;0;
11267;-101,07;-41,01;9,58;-9,07;28,01;2,71;37,16;2,68;0;0;
11288;5,35;-37,14;-43,86;-8,45;31,87;2,67;45,3;3,04;0;0;
11307;-36,88;-41,08;-6,94;-6,25;34,35;2,29;37,22;2,85;0;0;
11325;-47,65;-39,03;-46,68;-4,86;33,12;1,89;34,28;3,03;0;0;
11341;-37,62;-39,28;-76,82;-0,67;35,57;1,73;35,52;2,91;0;0;
11364;-46,45;-42,5;-59,17;-0,32;33,61;1,78;34,12;2,51;0;0;
11383;52,15;-40,01;5,68;-9,4;32,91;1,89;38,05;2,79;0;0;
11402;-74,72;-34,61;35,89;-3,56;31,64;1,93;37,13;2,95;0;0;
11420;-74,72;-34,61;35,89;-3,56;32,98;2,04;41,54;3,16;0;0;
11438;-71,26;-41,79;-27,85;0,93;35,56;2,11;40,21;3,81;0;0;
11456;-15,15;-38,74;-108,91;-4,57;35,85;2,17;42,73;4,17;0;0;
11475;-31,95;-39,88;41,94;-2,15;36,27;1,97;48,32;4,12;0;0;
11493;-22,59;-41,29;-23,73;-0,42;33,01;2,13;49,95;4,15;0;0;
11511;2,23;-39,88;110,6;-12,33;32,3;2,06;52,04;4,11;0;0;
11530;-29,01;-40,7;-136,65;-3,72;33,86;1,88;59,38;4,89;0;0;
11553;-37,46;-35,85;-104,14;-13,6;30,92;2;65,39;4,9;0;0;
11571;99,55;-44,11;-54,77;-15,6;31,2;2,15;69,71;5,1;1;0;
11588;-100,21;-39,29;42,28;-4,55;29,27;2,22;67,38;4,89;1;0;
11607;-124,95;-42,59;-73,21;-9,65;38,34;2,13;61,4;4,82;1;0;
11629;-100,8;-40,38;-3,02;-10,22;40,31;2,24;60,67;3,98;1;0;
11646;-49,09;-38,9;29,09;-5;49,62;2,07;50,72;3,42;1;0;
11665;63,64;-40,83;-3,5;-5,68;54,78;2,01;41,55;3,29;1;0;
11682;-57,6;-37,74;33,3;-7,03;60,44;1,76;38,16;2,83;1;0;
11701;-53,11;-41,62;-13,61;5,55;52,52;1,81;35,83;2,86;1;0;
11720;-53,11;-41,62;-13,61;5,55;46,27;1,79;33,22;2,95;1;0;
11738;-84,65;-37,64;-111,01;-5,12;44,89;1,91;31,99;2,97;1;0;
11758;-44,86;-41,35;-16,69;-1,37;36,62;1,99;35,62;2,9;1;0;
11775;0;-43,04;-8,78;-2,43;29,58;1,86;40,28;3,07;1;0;
11793;-102,6;-39,08;-57,87;-4,07;30,06;1,98;46,42;3,61;1;0;
11811;-48,59;-41,06;52,32;-10,92;43,59;1,93;51,42;3,51;1;0;
11829;-48,59;-41,06;52,32;-10,92;52,63;1,86;58,41;3,43;1;0;
11846;-63;-39,09;-16,91;-4,11;56,65;1,87;66,97;3,68;1;0;
11866;-31,01;-36,28;74,19;-2,4;59,65;1,93;64,12;3,89;1;0;
11884;54,52;-40,06;-146,66;-11,39;60,79;1,71;66,66;4;1;0;
11901;-2,18;-38,56;-15,68;-7,06;62,6;1,67;68,32;4,14;1;0;
11922;-42,35;-41,8;7,92;-7,44;52,06;1,76;65,79;4,08;0;0;
11941;-56,1;-42,34;70,73;-4,01;49,27;1,56;62,09;3,82;0;0;
11959;-56,1;-42,34;70,73;-4,01;51,72;1,49;58,58;3,79;0;0;
11977;-104,61;-36,6;-83,39;-7,63;49,26;1,61;55,58;3,21;0;0;
11996;-33,8;-38,91;-108,22;-10,46;46,23;1,71;51,07;2,89;0;0;
12015;2,64;-35,33;42,17;-5,02;39,78;1,7;49,28;3,29;0;0;
12039;-68,68;-38,91;-23,08;-7,83;39,1;1,67;49,34;3,31;0;0;
12064;-2,27;-37,93;-12,32;-9,13;37,78;1,73;40,53;2,97;0;0;
12088;15,53;-41,81;-18,36;0,95;43,12;1,67;32,77;2,9;0;0;
12105;-65,67;-40,58;-15,48;-12,95;42,85;1,56;24,58;3,01;0;0;
12128;47,49;-37,44;-19,39;-3,69;42,09;1,54;13,23;2,24;0;0;
12149;-51,87;-40,08;-18,76;-3,89;38,56;1,53;3,51;2,11;0;0;
12168;-71,41;-39,47;-16,92;-12,33;38;1,6;2,35;2,31;0;0;
12188;29,3;-37,19;-15,01;-4,08;40,54;1,66;2,08;2,45;0;0;
12208;-27,78;-32,78;-18,2;-7,48;33,24;1,82;2,15;2,26;0;0;
12227;-39,73;-40,06;-5,17;-8,77;32,19;2,1;3,15;2,24;0;0;
12246;-17,68;-34,73;-30,51;-8,3;32,7;2,24;3,99;2,5;0;0;
12264;-106,32;-39,22;-50,38;-5,38;35,13;2,22;7,73;2,83;0;0;
12282;-49,95;-37,8;24,79;-3,57;32,74;2,46;12,88;2,68;0;0;
12301;-21,96;-38;-33,32;-8,15;28,93;2,4;14,05;2,61;0;0;
12319;-21,96;-38;-33,32;-8,15;32,94;2,07;14,66;2,61;0;0;
12338;-40,94;-40,11;-7,98;-6,2;32,84;1,9;15,77;2,48;0;0;
12362;-52,7;-40,51;-25,89;-3,38;31,06;1,65;14,96;1,82;0;0;
12380;-52,7;-40,51;-25,89;-3,38;30,85;1,46;10,72;1,6;0;0;
12397;-72,71;-40,19;-10,36;-10,36;31,88;1,44;7,82;1,54;0;0;
12414;-17,27;-40,46;-14,57;-8,94;32,32;1,56;6,99;1,81;0;0;
12432;-46,64;-41,21;-15,64;-5,54;29,64;1,61;5,9;1,9;0;0;
12449;-31,65;-35,35;-21,76;-10,09;27,29;1,87;4,57;2,22;0;0;
12467;-40,12;-39,28;-21,54;-2,1;25,36;2,03;4,2;2,35;0;0;
12487;-41,23;-39,65;-14,96;-5,15;24,03;1,94;3,36;2,46;0;0;
12504;-61,11;-39,96;-16,72;-2,03;20,8;1,88;3,01;2,38;0;0;
12525;-93,82;-39,17;-4,69;-5,86;21,77;1,84;3,17;2,51;0;0;
12545;-29,58;-40,47;-51,19;-5,67;23,05;1,99;10,39;2,57;0;0;
12563;-28,98;-40,74;-74,46;0,24;21,76;1,73;14,8;2,74;0;0;
12582;-78,23;-35,01;14,48;-4,14;21,4;1,83;18,05;2,79;0;0;
12601;-14,85;-38,78;52,24;-5,69;25,37;1,87;24,3;2,86;0;0;
12621;-32,75;-37,34;-75,65;-1,91;25,43;1,97;29,19;2,73;0;0;
12638;-32,75;-37,34;-75,65;-1,91;23,42;1,99;29,94;2,66;0;0;
12656;-91,21;-37,91;39,76;-6,3;26,4;1,94;32,18;2,63;0;0;
12677;-20,4;-38,28;8,5;-4,97;26,88;2,04;30,27;2,89;0;0;
12695;-117,83;-41,23;-27,24;-10,63;26,63;1,85;36,99;2,7;0;0;
12713;-12,61;-35,38;-60,43;-9,03;24,75;1,83;35,57;3,15;0;0;
12731;-39,12;-39,62;64,38;-0,8;26,28;1,88;35,24;3,18;0;0;
12750;-56,91;-41,36;-111,36;-3,93;29,53;1,99;35,44;3,08;0;0;
12769;-111,06;-39,5;-71,2;-5,35;32,77;2,17;41,46;2,96;0;0;
12785;15,27;-40,02;-57,59;-6,52;34,14;2,23;41,36;3,37;0;0;
12803;26,31;-40,08;-77,03;-6,4;36,6;2,25;44,35;3,04;0;0;
12821;29,43;-38,75;103,7;-2,94;34,22;2,27;48,06;2,96;0;0;
12839;29,43;-38,75;103,7;-2,94;33,03;2,32;50,88;3,25;0;0;
12857;108,67;-37,48;-102,75;-15,36;35,14;1,95;54,76;3,16;0;0;
12874;-106,74;-38,57;-0,05;-8,85;37,01;2,08;52,31;3,15;0;0;
12893;-3,48;-44,72;48,72;-4,36;35,05;2,21;62,05;3,04;0;0;
12910;-3,48;-44,72;48,72;-4,36;33,97;2,45;71,16;3,21;0;0;
12932;32,2;-39,15;15,8;-10,7;33,76;2,35;68,89;3,05;0;0;
12950;-53,8;-39,64;11,68;-6,22;35,75;2,22;59,5;3,34;0;0;
12970;-24,89;-40,62;-2,91;-8,77;31,39;2,25;55,2;3,55;0;0;
12991;-3,18;-40,6;87,1;-14,41;30,93;2,06;61,35;3,74;0;0;
13009;-8,36;-38,25;-33,49;-4,71;30,13;1,79;59,25;3,67;0;0;
13029;3,3;-40,72;-116,35;-2,49;29,38;1,69;58,98;3,66;0;0;
13047;-93,49;-40,27;35,31;-4,78;31,67;1,8;59,14;3,71;0;0;
13065;-52,58;-43,31;-151,59;-8,9;32,38;1,83;63,54;3,26;0;0;
13082;3,18;-41,61;-70,23;-2,75;32,98;1,87;69,81;3,04;0;0;
13099;3,18;-41,61;-70,23;-2,75;35,53;1,91;67,48;2,76;0;0;
13116;-48,71;-38,41;-19,26;-8,93;36,06;2,02;56,4;3,06;0;0;
13135;-48,83;-37,93;1,95;-8,4;30,7;1,88;48,81;2,97;0;0;
13154;-15,42;-42,82;-18,65;-8,38;26,99;1,71;42,63;2,73;0;0;
13182;-48,41;-39,29;-17,5;-14,47;28,79;1,74;32,64;2,89;0;0;
13201;-16,37;-41,48;-2,83;-5,47;25,81;1,62;24,23;3,49;0;0;
13219;-16,37;-41,48;-2,83;-5,47;24,04;1,6;19,26;3,92;0;0;
13237;-30,71;-37,67;-19,25;-3,24;24,66;1,72;16,77;3,71;0;0;
13256;-73,42;-42,32;108,91;-1,27;29,1;1,64;19,68;3,78;0;0;
13277;-15,05;-39,64;11,91;-5,86;27,44;1,65;26,47;3,64;0;0;
13296;-69,59;-39,77;-11,71;-10,12;24,69;1,68;27;3,14;0;0;
13314;-15,47;-39,97;15,52;-5,43;23,97;1,73;31,15;2,38;0;0;
13341;11,32;-42,82;-62,5;-7,18;29,76;1,83;33,45;2,38;0;0;
13363;-62,89;-37,63;-51,88;-6,14;31,25;1,79;37,62;2,61;0;0;
13384;-16,22;-36,72;77,34;-18,01;34,8;1,85;39,41;3,15;0;0;
13401;-35,91;-38,29;-0,19;-21,83;35,93;1,78;37,11;3,72;0;0;
13420;-35,91;-38,29;-0,19;-21,83;36,14;1,73;38,5;4,29;0;0;
13439;-5,46;-39,99;-20,97;-2,25;37,62;1,74;37,85;4,39;0;0;
13458;-13,21;-41,97;4,51;-12,07;34,09;1,77;37,01;4,63;0;0;
13477;17,17;-40,98;22,73;-10,33;33;1,82;39,01;4,45;1;0;
13497;-108,53;-38,3;-38,18;-3,88;29,34;1,78;38,59;4,23;1;0;
13514;-25,05;-43,31;-99,55;-5,17;33,47;1,88;39,43;3,79;1;0;
13532;23,03;-39,55;19,74;-8,37;34,91;1,99;35,82;3,35;1;0;
13554;-59,33;-38,99;-80,96;-9,47;34,39;2,12;43,03;3,79;1;0;
13571;29,44;-38,65;-47,35;-10,6;35,11;2,2;41,36;3,87;1;0;
13591;26,16;-36,14;23,22;-8,49;36,25;2,08;41,61;3,75;1;0;
13611;-124,22;-42,58;-14,26;-5,73;38,47;2,13;37,32;3,75;1;0;
13631;-35,62;-41,94;-22,8;-8,85;49,63;1,82;30,89;3,68;1;0;
13651;39,37;-39,97;-15,96;-9,18;51,94;1,76;25,02;2,86;1;0;
13670;-47,12;-43,5;-13,93;-5,32;59,57;1,83;14,26;2,36;1;0;
13693;-27,91;-43,51;-14,37;-6,09;61,87;1,96;9,41;2,1;1;0;
13710;-88,73;-38,9;-14,29;-2,25;64,1;2,13;3,6;2,25;1;0;
13728;55,45;-39,72;-14,57;-8,35;54,18;2,25;2,16;1,95;1;0;
13745;-104,49;-42,31;-16,92;-4,02;60,48;2,37;1,6;2,3;1;0;
13762;-92,12;-41,47;-27,64;-10,55;60,32;2,32;2,64;2,35;1;0;
13781;-17,75;-34,66;-31,63;-4,78;52,74;2,09;4,89;2,35;1;0;
13799;-17,75;-34,66;-31,63;-4,78;45,83;2,04;7,21;2,49;1;0;
13827;23,44;-40,61;-19,72;-4,83;49,77;2,11;7,69;2,24;0;0;
13846;33,46;-40,82;-26,87;-7,36;52,2;2,08;7,95;2,05;0;0;
13866;41,78;-39,9;42,38;-14,25;43,02;2,11;13,66;2,11;0;0;
13884;2,96;-40,96;-29,4;-6,12;42,36;1,99;13,98;2,15;0;0;
13908;-36,3;-40,61;-16,74;-9,06;45;1,92;11,71;2,04;0;0;
13930;-31,39;-41,14;-17,04;-6,21;38,14;1,79;10,73;1,96;0;0;
13950;-33,32;-40,63;-19,8;-8,71;36,85;1,79;10,78;2,01;0;0;
13970;79,99;-42,76;-20,65;-8,97;34,11;1,62;7,98;2,03;0;0;
14001;-62,76;-40,5;-17,19;-7,68;44,14;1,8;3,59;1,79;0;0;
14025;-86,81;-36,08;-14,19;-4,57;45,4;1,82;3,09;2,13;0;0;
14042;34,44;-39,49;-18,17;-10,36;50;2,05;3;2,33;0;0;
14062;-68,94;-40,24;-19,88;-5,31;51,32;1,96;2,75;2,42;0;0;
14082;30,69;-38,32;-15,91;-12,93;56,58;1,81;2,08;2,66;0;0;
14100;30,69;-38,32;-15,91;-12,93;58,19;1,72;2,09;2,97;0;0;
14117;-3,93;-41,63;-17,12;-6,07;52,23;1,66;1,81;2,91;0;0;
14134;-58,9;-40,21;-19,16;-11,1;46,47;1,56;2,09;2,71;0;0;
14152;103,96;-39,14;-19,4;-3,97;44,66;1,53;2,15;2,53;0;0;
14168;-37,01;-40,99;-15,05;-4,06;43,16;1,75;2,07;2,37;0;0;
14188;-52,84;-42,51;-16,26;-4,72;41,97;1,69;2,08;1,94;0;0;
14205;-11,4;-36,21;-23,16;-12;35,14;1,74;5,94;1,53;0;0;
14223;-0,5;-45,72;-79,72;-5,27;34,28;1,96;12,5;2,02;0;0;
14243;40,33;-42,91;36,67;-2,47;36,16;2,21;17,31;2,24;0;0;
14262;-98,29;-43,02;-57,86;-0,48;39,6;2,16;22,82;2,82;0;0;
14280;-98,29;-43,02;-57,86;-0,48;46,63;2,3;28,39;3,43;0;0;
14300;-77,3;-38,64;-74,61;-8,04;40,45;2,41;36,88;3,58;0;0;
14318;-58,8;-41,63;26,18;-3,68;43,67;2,26;37,86;3,57;0;0;
14334;-30,24;-45,15;27,74;-9,01;46,95;2,25;40,85;3,5;0;0;
14353;-60,5;-37,24;6;-8,01;48,28;2,1;38,02;3,69;0;0;
14372;-71,9;-40,25;-85,48;0,5;46,12;1,99;38,7;3,13;0;0;
14390;-48,61;-42,75;49,27;-5,29;44,25;1,94;39,92;3,03;0;0;
14407;-42,34;-36,57;30,01;-11,13;41,59;1,84;40,18;3,17;1;0;
14425;-80,99;-40,24;62,5;-4,66;44,73;2,08;35,51;3,24;1;0;
14446;-30,31;-41,96;-81,72;-4,92;44,46;1,86;39,15;2,88;1;0;
14464;-57,95;-40,05;-40,23;-10,73;43,28;2,08;43,86;2,91;1;0;
14483;2,88;-41,23;47,59;-11,69;42,32;2,37;42,55;3,37;1;0;
14499;2,88;-41,23;47,59;-11,69;44,64;2,51;39,41;3,64;1;0;
14517;-76,8;-39,53;-235,84;-9,63;47,16;2,43;43,96;3,85;1;0;
14539;56,21;-40,6;14,32;-1,74;46,49;2,19;48,54;4,28;1;0;
14562;16,52;-41,67;51,82;-5,8;49,62;2,16;53,02;4,46;1;0;
14582;-41,81;-35,42;4,71;-11,56;49,86;1,93;56,29;4,37;0;0;
14604;-10,36;-38,91;-113,5;-8,83;45,74;1,65;56,39;3,84;0;0;
14626;43,35;-42,17;-16,98;-7,24;47,46;1,6;59,91;3,26;0;0;
14649;-93,98;-40,8;-69,62;-16,75;49,71;1,71;51,01;3,26;0;0;
14672;-69,09;-41,85;-13,38;-7,59;44,79;1,62;29,63;3,09;0;0;
14692;-54,55;-41,59;-16,35;-12,78;43,38;1,52;25,26;2,89;0;0;
14710;-26,23;-37,67;-20,26;-9,54;40,28;1,48;17,27;2,92;0;0;
14728;-88,75;-39,64;-17,6;-7,16;30,52;1,55;10,29;3,53;0;0;
14745;-21,96;-39,4;-15,79;-9;26,78;1,65;6,22;2,88;0;0;
14766;34,7;-41,36;-14,22;-6,4;23,2;1,89;5,31;2,75;0;0;
14783;-12,44;-39,4;-18,99;-5,57;24,66;2,22;3,42;2,85;0;0;
14801;65,41;-39,89;-11,74;-9,71;30,33;2,07;5,12;2,42;0;0;
14819;65,41;-39,89;-11,74;-9,71;37,63;1,84;7,67;1,9;0;0;
14836;37,58;-40,34;-22,31;-8,01;37,05;2,09;10,03;1,68;0;0;
14855;-31,63;-30,82;-14,68;-9,42;38;2,01;11,11;1,73;0;0;
14882;48,53;-41,96;-16,54;-11,12;38,73;1,93;11,78;1,86;0;0;
14903;-80,76;-35,96;-6,72;-4,09;39,22;1,81;11,13;1,85;0;0;
14920;-80,76;-35,96;-6,72;-4,09;35,49;1,89;8,89;1,91;0;0;
14938;-34,21;-40,97;-23,09;-8,48;33,08;1,78;6,83;1,79;0;0;
14961;-78,25;-41,12;-11,02;-10,93;36,11;1,89;4,57;1,89;0;0;
14983;-23,17;-39,87;-13,92;-5,34;37,18;1,85;3,65;2,11;0;0;
15001;-94,3;-41,11;-14,82;-4,21;37,41;2,06;3,44;1,87;0;0;
15023;-3,88;-38,72;-12,45;-4,19;35,34;2,19;3,36;1,97;0;0;
15039;-3,88;-38,72;-12,45;-4,19;32,63;2,29;3,41;2,03;0;0;
15056;-34,17;-41,36;-16,82;-4,68;34,46;2,12;3,16;2,01;0;0;
15074;-53,16;-37,56;-19,47;-7,76;30,98;2,1;3,12;1,82;0;0;
15094;109,63;-40,98;-13,81;-4;32,09;1,81;2,76;1,78;0;0;
15122;-37,72;-38,11;-4,62;-5,73;32,65;1,76;5,28;2,28;0;0;
15142;-35,14;-38,3;-66,47;-1,91;34,12;1,72;12,5;2,77;0;0;
15161;-39,9;-37,41;44,34;-11,21;38,07;1,64;19,46;3,06;0;0;
15178;-39,9;-37,41;44,34;-11,21;33,91;1,61;26,76;3,35;0;0;
15195;-33,99;-35,7;-9,95;-6,87;33,65;1,7;30,62;3,35;0;0;
15213;11,66;-41,63;4,46;-4;33,17;1,93;35,07;3,71;0;0;
15231;-61,55;-37,7;36,6;-9,15;28,79;1,99;39,64;3,71;0;0;
15251;9,71;-37,57;90,11;-6,69;32,27;1,96;42,05;3,41;0;0;
15276;-0,93;-40,97;95,04;-5,42;33,66;1,86;44,19;3,54;0;0;
15294;-38,62;-39,65;-22,92;0,28;35,35;1,97;46,06;3,45;0;0;
15312;-52,36;-37,09;12,55;-6,59;35,42;1,61;49,64;3,3;0;0;
15331;-17,44;-41,33;-9,69;-1,88;33,81;1,85;57,91;2,86;0;0;
15349;-43,65;-35,61;-67,51;-11,38;30,66;2;55,99;2,71;0;0;
15368;47,77;-38,61;-59,28;3,45;31,95;2,01;50,56;2,95;0;0;
15387;-73,01;-41,8;-93,6;-4,59;37,28;2,08;51;2,73;0;0;
15409;-47,02;-38,73;-80,32;-7,17;40,06;2,06;50,86;2,87;1;0;
15426;21,66;-37,39;15,99;-7,43;38,59;1,97;45,59;2,57;1;0;
15442;-30,84;-42,76;119,91;-7,34;37,43;1,87;49,8;2,39;1;0;
15463;105,1;-37,44;36,81;-8,05;41,68;1,8;50,18;2,23;1;0;
15484;5,71;-36,55;23,26;-9,92;29,98;1,98;50,14;2,32;1;0;
15501;-70,21;-37,65;72,69;-9,36;31,59;1,99;56,46;2,68;1;0;
15517;-70,21;-37,65;72,69;-9,36;36,44;2,15;62,54;2,91;1;0;
15535;-43,78;-35,98;-97,81;0,49;38;2,1;70,01;3,76;1;0;
15557;-37,47;-37,92;-13,3;-4,42;43,19;2,12;63,62;4,1;1;0;
15575;0,73;-39,79;-14,66;-10,88;38,36;2,03;60,24;4;1;0;
15594;-31,03;-37,9;-39,65;-12,19;33,37;2,02;55,29;4,28;1;0;
15613;-76,7;-39,63;-17,81;-3,63;31,5;2,03;40,95;4,15;1;0;
15632;24,54;-43,43;-13,39;-9,37;36,01;2,14;23,35;3,52;1;0;
15650;-73,42;-38,58;-16,68;-1,74;34,05;2,1;10,49;2,92;1;0;
15669;-109,4;-39,9;-21,41;-7,66;35,16;2,29;8,17;2,67;1;0;
15687;-23,62;-39,39;-14,79;-7,31;37,58;2,3;5,46;2,54;1;0;
15708;-24,12;-42,32;-10,36;-7,5;37,93;2,32;3,3;1,86;1;0;
15724;-75,25;-39,09;-3,9;-2,76;34,12;2,22;3,4;1,95;1;0;
15742;5,05;-43,3;-51,8;-14,61;29,82;2,26;8,5;2,18;1;0;
15770;-31,9;-36,95;-15,43;-8,04;28,91;1,99;9,23;2,15;0;0;
15790;-86,94;-42,31;-33,15;-6,88;29,9;1,95;10,02;2,06;0;0;
15810;16,62;-40,66;7,4;-10,68;30,88;2,28;12,63;1,98;0;0;
15831;-52,22;-39,83;-14,36;-5,32;33,97;2,08;12,26;2,08;0;0;
15853;-80,89;-42,85;-19,82;-5,16;33,69;2,04;10,2;1,99;0;0;
15875;-87,29;-42,01;-18,83;-7,34;38,15;1,83;6,43;1,9;0;0;
15895;-159,58;-39,9;-14,49;-4,27;37,7;1,84;6,64;1,91;0;0;
15924;-28,04;-38,29;-21,78;-4,68;35,51;1,66;5,02;1,93;0;0;
15946;-50,32;-40,41;-11,98;-6,3;44,97;1,56;2,85;1,81;0;0;
15964;-51,89;-40,19;-17,62;-5,96;42,84;1,71;2,68;1,76;0;0;
15983;-100,2;-34,37;-19,57;-3,22;48,89;1,82;2,62;1,77;0;0;
16002;-94,43;-40,09;-21,41;-7,27;44,81;1,87;2,62;2,03;0;0;
16020;-94,43;-40,09;-21,41;-7,27;41,96;1,95;2,59;2,29;0;0;
16037;-51,08;-40,16;-2,28;-8,32;38,47;2,02;7,68;2,39;0;0;
16057;-27,3;-38,74;-23,36;-6,53;31,99;1,96;10,87;2,48;0;0;
16076;-3,95;-37,17;-6,28;-8,15;26,59;2,09;12,26;2,5;0;0;
16096;-16,96;-41,09;48,72;-9,12;25,56;2,02;21,11;2,03;0;0;
16117;-11,03;-46,91;5,24;-7,89;31,03;2,22;26,62;2,04;0;0;
16134;-30,92;-40,61;-55,98;-4,57;32,31;2,28;28,85;2,24;0;0;
16153;37,01;-40,06;-69,28;-8,14;39,27;2,19;35,27;2,7;0;0;
16171;-25,94;-37,56;-31,86;-6,29;38,72;2,06;37,84;2,53;0;0;
16188;-48,86;-37,12;-1,39;-3,74;39,25;2,05;44,54;2,83;0;0;
16206;-39,33;-41,84;-44,72;-3,14;38,87;1,94;44,08;2,95;0;0;
16224;18,56;-42,53;-2,5;-9,02;41,56;1,78;42,35;2,98;0;0;
16241;-69,55;-41,58;71,86;-8,03;42,56;1,73;45,56;2,6;0;0;
16257;-69,55;-41,58;71,86;-8,03;40,95;1,93;46,33;2,3;0;0;
16276;-51,62;-39,28;-12,23;-0,65;43,42;1,91;49,9;2,56;0;0;
16293;-86,61;-40,26;-46,62;-10,17;43,5;1,93;40,29;2,85;0;0;
16312;-32,24;-38,98;-98,15;-1,01;53,49;1,84;45,52;2,82;0;0;
16334;-2,2;-39,11;-12,96;-10,33;49,26;1,74;48,23;2,74;0;0;
16352;-10,07;-39,6;-19,79;-6,44;45,43;1,67;44,37;3,04;0;0;
16369;104,7;-41,59;34,46;-5,43;42,76;1,82;45,16;3,33;0;0;
16390;11,36;-38,38;-31,46;-6,11;47,22;1,84;49,23;3,22;0;0;
16416;-32,94;-44,49;-65,87;-6,17;39,76;2,08;52,95;3,2;0;0;
16432;-35,09;-39,66;5,18;-8,02;30,8;2,34;46,1;3,38;0;0;
16449;-72,04;-37,92;-33,06;0,05;32,55;2,38;42,84;3,24;0;0;
16466;-78,54;-41,95;-48,85;-5,38;37,6;2,36;46,41;3,18;0;0;
16485;-70,01;-41,58;63,18;-7,41;35,25;2,28;43,17;3,52;0;0;
16502;20,82;-40,73;-0,72;-9,19;31,08;2,55;40,3;3,53;0;0;
16519;20,82;-40,73;-0,72;-9,19;32,57;2,55;37,07;3,6;0;0;
16541;123,54;-40,37;-52,2;-12,05;36,51;2,36;40,22;3,65;0;0;
16568;7,32;-37,01;-66,78;-8,72;31,85;2,4;41,88;3,63;0;0;
16587;-27,58;-40,04;18,02;-4,96;27,55;2,3;33,97;3,12;0;0;
16608;-133,76;-38,54;-66,85;-15,51;29,33;2,02;33,1;2,78;0;0;
16626;-95,78;-41,6;-44,13;-9,6;37,19;1,76;33,86;2,6;0;0;
16644;-37,72;-33,91;73,59;-2,75;41,12;1,86;34,28;2,75;0;0;
16661;-30,37;-39,77;-14,07;-4,5;37,65;1,85;31,84;2,71;0;0;
16679;-30,37;-39,77;-14,07;-4,5;35,26;1,84;31,92;2,57;0;0;
16697;-19,32;-35,94;34,86;-5,57;34,4;1,87;30,58;2,38;0;0;
16715;-29,38;-40,99;-34,77;-2,04;32,14;1,87;28,08;2,36;0;0;
16734;2,33;-44,26;-30,3;-2,33;22,6;1,98;29,19;2,44;0;0;
16752;-16,35;-38,13;-68,59;-6,82;24,76;2,09;30,89;2,64;0;0;
16771;-8,27;-38,1;-21,29;-14,25;24,58;2,29;26,34;2,73;0;0;
16791;-19,51;-38,14;-24,02;-4,46;24,73;2,35;23,96;3,21;0;0;
16812;-32,15;-39,4;-9,89;-11,09;23,48;2,23;21,47;3,47;0;0;
16831;-27,23;-40,61;-17,86;-10,73;24,44;2,23;19,6;3,19;0;0;
16849;-47,35;-38,01;-24,41;-0,3;24,27;2,08;11,23;3,1;0;0;
16867;-105,4;-38,93;-42,08;-8,26;27,48;1,79;12,67;3,22;0;0;
16885;-7,45;-33,41;37,69;-5,93;25,44;1,76;19,41;3,23;0;0;
16905;-45,19;-40,25;-18,07;-10,9;26,29;1,73;18,43;2,9;0;0;
16923;-4,92;-44,49;-15,23;-11;25,32;1,84;16,56;3,27;0;0;
16940;-4,92;-44,49;-15,23;-11;22,49;1,79;15,31;3,57;0;0;
16960;107,8;-42,08;-9,44;-6,17;24,93;1,99;12,79;3,34;0;0;
16979;-27,51;-40,34;-14,89;-11,3;29,71;2,02;7,13;3,04;0;0;
16997;-71,32;-39,67;-19,31;0,42;30,23;1,9;3,23;3,24;0;0;
17014;-5,96;-40,3;-19,17;-5,45;30,16;1,95;5,2;3;0;0;
17034;-12,1;-42,18;-15,55;-4,54;29,09;1,88;6,31;2,52;0;0;
17051;-37,46;-37,29;-10,24;1,95;27,91;1,74;6,56;2,83;0;0;
17070;-99,53;-40,18;-17,11;-14,93;25,78;1,74;6,5;3,25;0;0;
17087;40,36;-37,08;-22,26;-8,79;26,77;1,82;6,1;3,03;0;0;
17105;-9,6;-41,62;-15,88;-6,7;23,34;1,78;4,99;3,07;0;0;
17123;-67,79;-39,64;-18,26;-3,39;30,46;1,71;3,96;3,17;0;0;
17169;63,45;-39,07;-7,91;-10,64;39,79;1,69;3,17;2,9;0;0;
17190;-64,29;-38,43;-26,16;-7,42;46,52;1,77;2,89;2,52;0;0;
17206;-76,85;-39,17;-15,74;-11,08;38,71;1,86;3,4;3;0;0;
17227;105,65;-40,42;-15,72;-0,88;41,89;1,89;3,76;3,07;0;0;
17246;2,27;-41,11;-14,57;-7,65;42,13;2,12;4,13;2,98;0;0;
17264;-24,63;-40,61;-16,69;-12,34;37,78;2,04;4,16;3,05;0;0;
17284;-8,27;-41,1;-44,18;-7,43;34,04;2,1;4,3;3,31;1;0;
17304;-7,63;-41,97;-137,94;-12,88;34,08;2,14;13,03;3,74;1;0;
17323;-93,66;-39,73;79,17;-6,66;35,58;2,04;23,96;3,15;1;0;
17352;52,87;-38,93;-72,49;-2,62;36,52;1,87;29,88;2,96;1;0;
17370;-31,77;-38,82;-58,72;-12,31;39,68;1,91;35,38;3,29;1;0;
17389;-54,94;-37,71;-116,18;-4,69;38,46;1,96;43,13;3,14;1;0;
17407;20,49;-36,03;-157,71;-1,68;40,6;1,81;50,99;2,91;1;0;
17427;-35,98;-38,89;-30,77;-4,33;42,01;1,74;51,03;2,69;0;0;
17447;45,41;-39,4;49,29;0,52;44,44;1,69;45,74;2,75;0;0;
17472;-76,33;-38,11;-76,96;-11,73;42,58;1,6;44,22;3,26;0;0;
17497;-48,36;-38,14;75,84;-3;40,05;1,64;47,52;3,06;0;0;
17531;-18,95;-39,86;6,63;-7,06;43,78;1,48;41,68;3,11;0;0;
17557;-41,13;-40,6;78,15;-3,75;42,56;1,7;37,58;3,2;0;0;
17574;-5,57;-39,24;47,72;-5,57;40,34;1,76;40,01;3,35;0;0;
17593;32,08;-41,84;-125,2;-8,41;41,3;1,91;45,98;3,3;0;0;
17610;34,27;-42,08;25,83;-4,38;44,05;2,1;50,85;3,17;0;0;
17629;-8,56;-36,46;-41,82;-4,71;42,37;2,24;45,39;3,18;0;0;
17648;-11,25;-39,07;41,37;-4,79;40,78;2,02;45,91;2,88;0;0;
17665;-130,7;-38,16;-20,36;-14,16;45,15;2,16;46,07;3,05;0;0;
17689;41,69;-41,12;-13,12;-5,51;48;2,12;36,3;2,68;0;0;
17708;-55,25;-37,93;-31,39;-4,73;43,09;2,13;30,35;2,25;0;0;
17731;0,76;-39,72;35,9;-4,57;44,14;1,87;30,47;2,35;0;0;
17753;18,08;-38,88;-52,94;-5;42,89;1,88;30,44;2,24;0;0;
17771;-72,43;-40,21;-14,54;-6,86;46,39;2,04;22,88;2,09;0;0;
17791;-27,66;-43,3;-19,4;-7,84;45,93;1,92;19,1;2;0;0;
17809;-49,84;-35,76;-9,2;-2,76;46,56;2,07;18,56;2,17;0;0;
17835;-78,85;-46,01;-29,18;-5,47;47,34;2,16;15,68;2,09;0;0;
17857;-18,83;-41,86;6,07;-8,04;54,12;2,27;12,53;1,93;0;0;
17875;-41,73;-38,1;-24,53;-5,92;52,83;2,26;10,52;2,24;0;0;
17896;20,12;-36,1;-32,31;-10,36;45,3;2,25;12,15;2,43;0;0;
17913;-58,85;-40,57;-45,05;-6,07;41,37;2,16;13,62;2,26;0;0;
17931;-89,28;-39,3;-9,48;-9,91;44,2;2,08;15,47;2,17;0;0;
17949;-85,75;-37,93;-21,19;-5,16;39,4;2,44;15,41;2,32;0;0;
17969;-21,24;-41,72;-21,48;-4,72;32,96;2,29;11,78;2,1;0;0;
17997;103,94;-39,01;-24,09;-6,12;43,28;2,07;9,67;1,88;0;0;
18015;103,94;-39,01;-24,09;-6,12;53,14;1,92;8,61;1,73;0;0;
18034;-67,48;-38,66;-14,15;-3,56;50,67;1,82;6,82;1,79;0;0;
18052;116,78;-41,11;-17,37;-8,65;48,92;1,6;4,93;1,88;0;0;
18072;-72,85;-34,84;-20,06;-4,47;51,98;1,45;3,46;1,78;0;0;
18090;34,88;-43,32;-8,96;-1,6;52,2;1,64;3,68;1,87;0;0;
18107;-65,11;-39,15;-42,21;-8,93;49,15;1,68;4,96;2,03;0;0;
18128;-58,83;-38,82;-19,22;-10,39;44,17;1,57;4,76;2,2;0;0;
18154;-12,68;-38,84;-19,67;-5,1;50,6;1,7;5,14;2,15;0;0;
18172;24,24;-41,49;-20,81;-8,82;47,29;1,76;5,19;2,25;0;0;
18190;81,05;-40,64;-22,71;-6,86;49,46;1,76;5,29;2,35;0;0;
18211;59,46;-36,99;-15,81;-4,68;47,3;1,87;4,68;2,67;0;0;
18231;-83,64;-39,62;-12,77;-11,97;44,39;1,97;3,1;2,74;0;0;
18252;-26,51;-37,71;-20,91;-6,56;40,03;2,04;2,92;2,75;0;0;
18272;80,9;-39,63;-16,59;-2,68;39,22;2,07;2,58;2,62;0;0;
18291;-115,22;-39,52;-14,54;-4,96;43,15;2,07;2,61;2,63;0;0;
18309;-4,79;-38,13;-14,84;-3,34;42,38;1,89;2,12;2,74;0;0;
18327;51,31;-36,07;-21,5;-4,86;42,16;1,9;1,97;2,64;0;0;
18344;-8,79;-42,95;-19,18;-2,82;41,4;2,02;2,34;2,61;0;0;
18363;-49,3;-38,91;-15,99;-2,75;39,14;1,95;2,5;3,13;0;0;
18383;-100,37;-42,76;-14,86;-8,14;34,25;1,94;2,41;3,35;0;0;
18401;-36,81;-36,67;-20,1;-7,78;34,72;1,88;2,44;3,38;0;0;
18418;-36,81;-36,67;-20,1;-7,78;37,98;1,66;2,52;3,34;0;0;
18438;-36,3;-40,12;-10,62;10,7;32,1;1,62;2,79;5,23;0;0;
18458;24,93;-40,67;-20,92;-28,71;36,6;1,58;3,3;8,35;0;0;
18478;-42,77;-37,16;-17,45;-3,4;41,31;1,63;3,51;9,29;0;0;
18497;25,34;-40,42;-34,18;-3,37;37,11;1,69;4,73;9,32;0;0;
18513;-26,91;-43,22;-19,3;-5,21;29,27;1,81;5,9;9,03;0;0;
18533;4,23;-38,89;-33,7;-4,71;25,98;2,19;8,35;8,83;0;0;
18552;-60,14;-35,97;-19,8;-6,13;34,97;2,41;8,8;6,1;0;0;
18571;-36,8;-38,58;-14,68;-3,34;37,08;2,41;8,74;3,32;0;0;
18589;-67,02;-41,17;-8,3;-3,49;33,94;2,5;8,64;2,21;0;0;
18607;-53,71;-38,67;-43,73;-6,96;29,83;2,29;12,21;2,18;0;0;
18627;-56,92;-39,9;-53,92;-1,98;40,37;2,14;14,74;2,52;0;0;
18647;112,59;-40,27;-14,63;-0,83;42,8;1,76;13,69;2,3;0;0;
18666;-40,93;-34,85;-15,5;-7,3;37,08;1,74;12,96;2,55;0;0;
18684;-22,16;-40,02;-14,94;-8,73;42,51;1,8;12,27;2,78;0;0;
18703;-30,69;-39,53;-17,06;-7,31;41,9;1,95;9,99;2,69;0;0;
18719;-30,69;-39,53;-17,06;-7,31;35,91;2,09;5,06;2,46;0;0;
18738;106,96;-41,49;-16,27;-8,4;36,89;2,07;2,33;2,32;0;0;
18757;-61,44;-39,79;-19,37;-3,63;29,34;2,17;1,81;2,11;0;0;
18774;-92,06;-40,97;-19,21;-8,44;27,95;1,95;1,83;2,17;0;0;
18793;-53,56;-38,42;-13,7;-0,33;26,4;1,97;1,88;2,32;0;0;
18812;-40,37;-40;-15,52;-25,16;30,51;1,87;2,08;4,1;0;0;
18832;-29,16;-36,45;-14,69;24,86;28,87;2;2,03;7,73;0;0;
18851;14,66;-39,9;-17,12;-21,7;23,84;2,08;2,19;9,31;0;0;
18870;-70,38;-38,85;-11,39;5,36;22,59;2,05;2,55;11,12;0;0;
18889;68,16;-37,66;-16,62;-4,6;25,55;2,13;3;14,55;0;0;
18908;-31,89;-40,1;-17,4;-43,13;24,95;2,15;3,27;16,54;0;0;
18926;-22,3;-38,3;-17,1;-26,5;21,67;2,17;3,26;16,08;0;0;
18945;55,8;-42,81;-19,79;16,56;25,12;1,98;3,52;17,6;0;0;
18962;52,3;-38,97;-21,51;10,89;32,18;1,91;3,68;19,1;0;0;
18981;-34,76;-39,53;-16,6;-27,12;34,74;1,57;3,46;22,09;0;0;
19000;-34,76;-39,53;-16,6;-27,12;33,1;1,46;2,97;23,39;0;0;
19019;-15,24;-36,2;-21,13;6,29;37,28;1,35;3,18;23,56;0;0;
19044;4,3;-43,3;-15,87;-37,05;39,57;1,52;3,23;22,3;0;0;
19064;-48,07;-38,37;-18,13;-8,44;36,13;1,49;2,77;23,47;0;0;
19081;-45,84;-37,01;-17,01;-5,44;30,47;1,61;2,5;21,51;0;0;
19099;-45,84;-37,01;-17,01;-5,44;26,17;1,71;2,38;17,43;0;0;
19117;41,74;-41,6;-25,96;2,96;28,73;1,73;3,32;14,58;0;0;
19135;0,41;-41,84;-15,66;7,62;26,23;1,7;3,11;13,26;0;0;
19153;-23,76;-39,39;-12,1;-6,69;33,27;1,67;3,05;11,33;0;0;
19171;19,57;-39,36;-15,08;-16,3;34,56;1,69;3,02;10,16;0;0;
19191;2,85;-36,81;-19,84;12,9;36,16;1,66;3,12;10,08;0;1;
19211;-49,96;-40,46;-16,59;-6,71;38,74;1,74;2,38;9,63;0;1;
19231;-68,44;-36,08;-19,42;-25,38;39,14;1,68;2,15;10,74;0;1;
19251;-36,66;-41,13;-19,22;-2,22;36,6;1,63;2,09;10,09;0;1;
19277;-53,77;-37,74;-14,2;-13,4;36,16;1,48;2;10,37;0;1;
19295;-42,07;-41,2;-13,69;-8,19;37,52;1,58;2,01;9,67;0;1;
19313;-80,58;-39,12;-13,99;31,18;36,65;1,72;1,77;9,86;0;1;
19331;-37,67;-40,42;-13,82;-11,05;29,4;1,87;2,49;10,7;0;1;
19350;-49,13;-43,44;-19,82;-3,51;32,95;1,93;2,56;9,28;0;1;
19367;-30,34;-37,67;-16,74;-9,16;30,54;2,29;2,51;8,82;0;1;
19387;-63,57;-41,57;-16,84;-1,56;27,45;2,4;2,59;8,41;0;1;
19404;-26,76;-38,44;-12,51;12,67;25,82;2,38;2,82;8,49;0;1;
19432;-72,23;-41,29;-21,37;-16,7;34,25;2,31;2,92;8,23;0;1;
19449;43,18;-33,12;-16,48;-6,19;34,76;2,42;2,35;6,88;0;1;
19467;-33,08;-45,88;-21,85;-2,78;35,49;2,46;2,22;7,48;0;1;
19486;-108,93;-38,93;-12,5;-9,76;43,36;2,26;2,22;7,82;0;1;
19505;-66,04;-40,97;-16,84;-8,62;44,56;2,25;2,31;7,76;0;1;
19524;-45,63;-41,35;-14,3;-6,98;50,88;2,12;2,25;6,22;0;0;
19544;-49,96;-42,67;-18,61;-3,52;43,56;2,16;2,18;4,84;0;0;
19564;-36,67;-40,75;-13,47;-10,38;50,05;1,99;2,47;3,57;0;0;
19583;-134,2;-39,37;-15,71;2,78;48,12;1,78;2,42;3,15;0;0;
19603;-22,27;-40,05;-21,61;-15,22;43,21;1,89;2,25;2,6;0;0;
19629;-54,42;-38,3;-15,65;1,52;48,32;2,01;1,96;2,79;0;0;
19650;-48,37;-43,69;-19,35;-10,1;58,45;1,99;2,04;3,03;0;0;
19670;-27,04;-37,43;-14,51;-18,59;53,25;1,75;1,96;3,78;0;0;
19689;11,69;-43,69;-15,11;-22,28;57,83;1,8;2;5,21;0;0;
19706;-81,86;-38,18;-14,78;2,58;59,32;1,86;2,32;6,18;0;0;
19726;-62,65;-43,79;-13,85;-9,11;56,46;1,54;2,24;6,59;0;0;
19751;-45,64;-38,61;-14,38;-2;46,47;1,54;2,23;6,43;0;0;
19772;-42,01;-38,66;-18,02;4,11;42,52;1,7;2,07;6,79;0;0;
19791;-79,01;-39,15;-13,27;6,35;44,21;1,65;2,42;6,84;0;0;
19810;146,15;-37,91;-12,69;-3,71;44,9;1,57;2,54;7,33;0;0;
19831;-126,51;-39,07;-18,98;-10,7;50,74;1,57;2,59;6,37;0;0;
19849;-37,39;-40,97;-14,04;-8,44;47,32;1,55;2,76;7,17;0;0;
19868;-35,67;-38,36;-12,77;-7,3;61,72;1,44;2,61;8,51;0;0;
19886;19,76;-41,01;43,03;-3,65;67,05;1,71;7,71;6,47;0;0;
19904;-16,03;-39,96;-52,1;-9,99;60,57;1,82;17,63;5,97;1;0;
19922;44,88;-40,88;-25,44;-14,38;55,26;1,76;23,44;5,77;1;0;
19939;44,88;-40,88;-25,44;-14,38;50,54;1,73;29,07;5,68;1;0;
19955;14,36;-38,64;-43,22;-1,05;57,27;1,71;37,63;3,85;1;0;
19971;14,36;-38,64;-43,22;-1,05;63,98;1,67;45,57;4,12;1;0;
19989;104,84;-41,25;26,52;-2,65;62,48;1,53;44,45;4,31;1;0;
20006;16,25;-41,07;-81;-2,22;61,26;1,54;45,89;4,4;1;0;
20025;35,95;-39,28;-11,03;-10,12;67,56;1,7;51,65;4,25;1;0;
20048;7,23;-41,22;93,56;-9,38;72,32;1,73;58,22;4;0;0;
20075;28,1;-40,85;-136,62;-5,95;62,75;1,75;62,54;4,57;0;0;
20104;-57,73;-39,26;22,8;17,32;60,12;1,67;59,37;6,36;0;0;
20133;-29,93;-45,61;-11,02;-13,03;55,4;2,13;64,8;7,22;0;0;
20154;-29,24;-38,01;-15,41;4,34;53,83;2,22;62,93;7,47;0;0;
20175;-49,28;-44,64;-57,68;-5,19;45,6;2,14;57;7,95;0;0;
20198;-112,2;-39,37;89,26;-1,79;48,7;2,24;58,13;8,05;0;0;
20228;-37,57;-40,81;-33,26;-10,45;49,3;2,38;63,42;7,04;0;0;
20253;-32,41;-41,22;-13,92;-2,93;46,45;2,41;59,62;5,37;0;0;
20274;-40,35;-41,71;-40,77;-4,95;52,8;1,96;63,72;5,05;0;0;
20294;-34,78;-40,89;-62,89;-6,34;55,14;2,05;70,1;4,71;0;0;
20315;12,82;-39,68;-0,82;-2,01;50,91;1,96;70,31;4,31;0;0;
20336;-4,89;-43,57;24,37;-8,14;42,72;1,95;59,75;4,28;0;0;
20362;-87,23;-40,36;6,79;0,96;38,61;1,83;46,01;4,25;0;0;
20385;39,17;-41,21;55,15;-0,92;34,15;2,03;51,42;4,2;0;0;
20407;16,13;-37,92;20,42;-11,17;33,78;2,08;50,1;4,07;0;0;
20425;-38,53;-38,64;-49,83;1,3;36,1;1,92;49,3;4,04;0;0;
20448;-64,75;-37,29;69,04;-3,97;36,42;2,06;49,61;3,67;0;0;
20466;33,04;-42,82;-75,46;-0,62;37,75;2,32;50,88;3,59;0;0;
20484;-40,88;-40,14;-206,72;-13,87;36,93;2,29;58,99;4,19;0;0;
20502;-10,71;-35,94;56,33;-6,67;25,48;2,47;64,82;3,35;0;0;
20518;-10,71;-35,94;56,33;-6,67;13,13;2,58;69,49;3,32;0;0;
20537;-28,36;-35,7;-20,38;-3,13;10,11;2,38;60,86;3;0;0;
20560;84,47;-41,49;14,34;-2,15;17,75;2,51;48,03;2,44;0;0;
20580;12,5;-37,28;-2,06;-4,22;21,97;2,25;40,59;2,76;0;0;
20600;-0,11;-40,01;-28,99;-9,99;26,21;2,36;30,17;2,53;0;0;
20620;-31,22;-39,32;-19,22;-4,38;25,97;2,16;16,85;2,73;0;0;
20637;-47,73;-40,77;-16,54;-6,69;31,82;2,16;11,41;2,7;0;0;
20655;-20,4;-38,45;-36,85;-5,72;30,14;2,22;12,86;3,01;0;0;
20674;20,88;-38,55;-1,03;-3,72;26,9;2,13;9,85;2,87;0;0;
20693;-70,63;-37,31;27,56;-3,22;32,9;2,05;9,65;2,8;0;0;
20712;-31,35;-38,61;-16,74;-7,66;32,76;2,23;9,98;2,83;0;0;
20730;-60,4;-37,94;-7,58;-8,48;38,31;1,93;10,22;2,61;0;0;
20748;-20,68;-35,8;-48,57;-13,53;33,95;2,03;10,42;2,52;0;0;
20767;-31,3;-41,23;-14,25;-12,26;30,41;2;9;3,8;0;0;
20785;-5,98;-43,74;-17,06;-8,99;29,68;2,11;6,39;4,41;0;0;
20803;-21,65;-43,79;-17,18;-7,77;24,14;2,01;3,94;4,54;0;0;
20820;4,77;-34,7;-31,47;-7,61;24,38;2;4,63;5,22;0;0;
20840;4,77;-34,7;-31,47;-7,61;22,35;2,07;5,29;5,96;0;0;
20857;-89,96;-39,31;-19,26;-12,45;25,55;1,92;5,22;6,16;0;0;
20875;-36,82;-39,99;-24,41;-6,43;29,39;1,86;5,33;5,01;0;0;
20893;-30,74;-38,78;-26,72;-6,32;28,43;1,8;7,9;4,6;0;0;
20912;-28,06;-39,9;-20,55;-8,4;24,98;1,62;9,62;3,96;0;0;
20931;-27,84;-38,18;37,9;-3,38;23,71;1,52;12,85;3,4;0;0;
20948;-63,14;-45,38;-37,12;-3,75;24,35;1,8;14,98;3,18;0;0;
20966;-40,3;-39,61;-22,51;-9,37;21,4;1,76;18,63;2,57;0;0;
20983;65,12;-37,31;-34,02;-4,24;24,17;1,91;21,43;2,48;0;0;
21002;-54,19;-37,36;-40,64;-6,17;28,64;2,13;21,6;2,46;0;0;
21022;0,12;-38,44;-41,59;-6,67;30,05;2,08;23,57;2,45;0;0;
21038;0,12;-38,44;-41,59;-6,67;28,31;1,91;24,17;2,2;0;0;
21055;-54,6;-38,79;-5,24;-6,44;25,55;1,72;25,01;2,09;0;0;
21072;-20,92;-41,88;-36,19;-1,42;28,51;1,8;24,12;1,95;0;0;
21089;-19,93;-41,11;-94,15;-2,07;20,56;1,85;24,27;2,76;1;0;
21106;-32,12;-41,13;30,61;-4,21;21,26;1,77;30,54;2,82;1;0;
21128;-30;-42,61;-98,45;-13,69;23,35;1,84;34,77;3,93;1;0;
21145;-18,24;-33,74;-16,97;-5,35;22,45;2,22;38,64;4,59;1;0;
21164;-20,35;-36,62;-117,01;1,99;19,34;2,56;44,67;4,91;1;0;
21182;-19,08;-42,33;25,91;-1,06;16,92;2,42;51,8;4,64;1;0;
21203;-25,7;-34,17;157,05;-8,58;18,4;2,46;57,19;4,19;0;0;
21223;-27,91;-42,93;-52,69;0,16;15,69;2,4;57,6;4,11;0;0;
21244;-19,38;-40,07;-78,67;-14,24;12,54;2,13;58,12;3,18;0;0;
21265;-29,85;-41,34;22,16;-9,11;14,65;1,92;53,98;3,29;0;0;
21283;-25,84;-38,15;-133,71;-7,4;17,51;1,79;49,72;3,27;0;0;
21300;-25,84;-38,15;-133,71;-7,4;19,52;1,95;48,65;3,68;0;0;
21319;183,88;-36,44;16,79;2,29;26,06;1,87;47,24;4,19;0;0;
21344;-58,61;-39,17;-125,51;-2,15;35,26;1,82;44,44;4,24;0;0;
21366;-35,26;-39,63;-72,87;-1,84;36,08;1,96;46,48;4,22;0;0;
21384;1,97;-37,78;-4,16;-3,26;32,84;1,79;50,51;4,29;0;0;
21402;-49,69;-41,84;-31,83;-9,01;41,79;1,73;48,05;4;0;0;
21422;-34,09;-37,93;-78,2;-7,08;40,12;1,79;41,15;3,58;0;0;
21442;11,16;-38,12;-6,22;-2,99;30,53;1,69;40,62;3,42;0;0;
21462;-24,42;-38,85;95,99;-9,35;30,84;1,78;45,15;3,31;0;0;
21483;-88,26;-38,88;-21,66;-5,56;38,03;2,03;37,72;2,86;0;0;
21504;18,61;-35,59;-59,19;-8,96;36,41;1,97;36,53;2,63;0;0;
21529;-56,82;-36,6;-9,74;-4,23;35,91;2,09;38,99;2,94;0;0;
21554;-58,36;-40,14;-15,15;-7,52;39,44;2,35;33,96;2,65;0;0;
21571;-31,45;-40,14;-27,49;-0,34;35,58;2,46;25,24;2,74;0;0;
21590;-22,43;-38,67;-20,43;-7,01;35,64;2,55;13,39;3,09;0;0;
21607;-45,26;-40,13;-13,78;-3;39,03;2,64;12,12;3,22;0;0;
21627;-43,6;-37,3;4,78;-6,79;37,59;2,48;7,46;2,84;0;0;
21646;-29,61;-43,41;-23,37;-6,16;32,31;2,29;5,6;2,74;0;0;
21669;-64,86;-38,2;-0,02;-4,85;32,16;2,19;7,82;3,16;0;0;
21692;-29,84;-40,61;-55,84;-2,25;39,48;1,85;10,19;2,69;0;0;
21711;-125,13;-43,94;-12,34;-8,77;43,7;1,77;13,74;2,71;0;0;
21730;-7,28;-38,65;-11,47;-3,73;47,88;1,61;15,45;2,89;0;0;
21751;-6,93;-40,31;-29,61;-8,49;47,67;1,55;14,64;2,82;0;0;
21771;-35,71;-38,25;-15,92;-6,38;52,49;1,44;12,68;2,83;0;0;
21793;-16,94;-40,66;-35,49;-4,37;50,83;1,62;11,33;2,63;0;0;
21812;-83,75;-41,25;-20,52;-3,53;46,16;1,69;7,58;2,84;0;0;
21832;-47,38;-38,75;-15,69;-5,7;38,66;1,7;5,82;2,4;0;0;
21852;-1,7;-41,95;-17,24;-5,11;38,92;1,8;4,04;2,41;0;0;
21869;160,5;-38,91;-14,99;-1,28;46,53;1,78;3,58;2,83;0;0;
21888;30,19;-37,37;-24,79;-3,05;46,91;1,69;3,83;3,34;0;0;
21906;-32,35;-39,97;-16,53;-7,65;42,93;1,83;3,43;3,65;0;0;
21924;27,07;-37,92;-20,39;-7,89;45,04;1,7;3,72;3,9;0;0;
21941;-49,94;-37,92;-17,41;-4,01;51,71;1,69;3,68;4,04;0;0;
21962;-0,22;-38,68;-12,92;-10,8;47,45;1,81;4,06;3,87;0;0;
21980;-0,22;-38,68;-12,92;-10,8;38,19;1,88;4,08;3,37;0;0;
21997;-73,27;-37,58;-21,9;-9,86;35,7;1,78;3,66;2,77;0;0;
22016;-28,79;-39,09;-14,07;-7,31;38,61;1,85;3,16;1,96;0;0;
22037;-50,85;-36,59;-13,2;-8,37;30,27;1,85;2,81;1,86;0;0;
22056;-33,32;-37,54;-20,12;-7,66;29,59;1,8;2,82;1,55;0;0;
22076;-53,96;-39,45;-14,43;-3,72;30,55;1,71;2,42;1,55;0;0;
22094;-8,14;-38,77;-21,35;-8,28;34,13;1,78;2,45;1,63;0;0;
22113;-41;-39,58;42,7;-6,38;33,76;1,65;5,92;1,98;0;0;
22132;17,26;-38,55;-18,48;-5,33;39,31;1,93;6,47;2,02;0;0;
22151;-18,13;-37,78;-11,49;-7,13;35,76;1,96;6,7;2,08;0;0;
22168;-13,7;-39,09;-21,39;-9,58;35,76;1,92;7;2,17;0;0;
22186;-13,7;-39,09;-21,39;-9,58;31,61;1,98;7,18;2,08;0;0;
22202;-21,07;-40,12;-29,5;-7,4;27,11;2,08;7,97;2,02;0;0;
22224;-16,32;-39,1;8,52;-6,76;19,49;2,09;7,25;1,97;0;0;
22242;-11,22;-40,26;-19,9;-3,47;19,82;1,92;10;2,04;0;0;
22259;-11,22;-40,26;-19,9;-3,47;24,17;1,83;12,71;2,13;0;0;
22278;-41,27;-38,66;-21,67;-8,39;27,01;1,71;13,27;2,16;0;0;
22297;10,53;-40,27;-17,82;-5,26;30,74;1,76;12,8;2,21;0;0;
22319;44,07;-40,61;-15,95;-4,83;35,96;1,79;11,08;2,19;0;0;
22336;-27,26;-40,95;11,36;-2,61;37,43;1,88;7,95;2,23;0;0;
22355;-46,45;-42,03;-23,3;-11,71;32,3;1,8;6,39;2,2;0;0;
22374;-22,5;-39,75;-29,67;-9,74;25,9;1,79;5,68;2,11;0;0;
22397;-48,51;-37,1;-18,74;-3,07;25,13;1,91;7,86;1,94;0;0;
22416;-7,12;-43,85;-17,52;-7,94;23,98;1,91;7,68;1,8;0;0;
22434;-7,82;-40,37;-11,53;-4,03;20,79;2,23;7,25;2,02;0;0;
22453;-51,89;-43,5;-16,58;-6,8;20,96;2,23;5,94;2,23;0;0;
22471;5,56;-38,16;-16,51;-4,35;23,88;2,35;5,05;2,29;0;0;
22490;11,72;-40,85;-18,31;-2,65;26,87;2,37;3,76;2,32;0;0;
22507;-50,32;-40,24;-15,53;-1,92;27,94;2,17;2,3;2,57;0;0;
22525;-35,72;-40,25;-14,09;-17;34,09;2,06;2,52;2,86;0;0;
22546;-12,87;-38,58;-15,41;-14,12;31,91;1,86;2,67;3,46;0;0;
22567;-40,57;-38,18;-14,24;-4,48;26,99;1,79;2,88;7,58;0;0;
22588;-72,77;-39,97;-20,67;8,98;26,92;1,78;3,61;9,82;0;0;
22618;5,19;-37,74;-19,17;-21,94;32,33;1,82;4,51;11,5;0;0;
22638;-36;-41,59;-21,59;23,54;32,79;1,84;5,27;16,6;0;0;
22658;-31,13;-40,38;-6,26;34,81;28,16;2,02;6,21;21,81;0;0;
22679;-13,21;-34,67;-11,45;-0,63;29,24;2;6,2;20,77;0;0;
22696;-26,44;-40,02;-14,03;24,62;29,82;2,34;6,37;20,18;0;0;
22714;-87,88;-45,29;-16,19;-61,6;30,02;2,24;7,06;21,09;0;0;
22731;-59,15;-40,8;-16,54;-13,2;27,47;2,2;7,24;21,54;0;0;
22751;-23,37;-38,83;-15,83;61,11;30,65;2,12;6,21;22;0;0;
22768;-51,99;-36,31;-18,97;-35,29;31,58;2,24;5,47;22,94;0;0;
22788;-35,44;-39,57;-21,65;14,32;31,02;2,02;6,07;25,93;0;0;
22805;-29,63;-42,42;-26,8;7,53;30,14;1,95;5,88;25,59;0;0;
22824;-38,48;-44,29;-21,35;-24,41;26,97;2,17;6,3;24,14;0;0;
22841;-10,94;-35,25;-17,44;-22,08;26,98;2,29;6,18;21,13;0;0;
22859;-10,94;-35,25;-17,44;-22,08;28,08;2,35;6,46;17,7;0;0;
22878;-34,63;-38,53;-9,63;14,49;32,69;2,37;6,54;16,66;0;0;
22897;-11,32;-37,31;-14,13;-4,22;25,92;2,42;6,18;16,5;0;0;
22914;-55,24;-39,67;-29,19;14,64;34,35;2,11;5,39;15,36;0;0;
22932;-16,58;-41;-6,63;38,2;30,25;1,93;5,14;18,98;0;0;
22951;37,23;-39,88;2,57;-4,64;28,26;1,85;5,16;18,16;0;0;
22967;-106,26;-39,89;-16,42;-12,21;26,23;1,75;5,88;16,68;0;0;
22987;-45,08;-36,93;-4,91;2,77;28,59;1,52;6,17;14,69;0;1;
23005;9,91;-36,24;-12,84;0,98;38,48;1,42;6,81;14,24;0;1;
23025;-87,9;-39,37;-11,76;-7,6;36,21;1,72;6,55;12,46;0;1;
23043;-17,28;-41,72;-21,95;-4,46;36,52;1,68;6,93;10,39;0;1;
23063;-16,54;-40,09;-16,12;1,49;31,48;1,67;6,18;9,9;0;1;
23081;-20,52;-43,3;-10,49;-11,83;29,77;1,83;5,58;10,74;0;1;
23099;-20,52;-43,3;-10,49;-11,83;27,16;1,98;4,59;10,72;0;1;
23117;79,35;-39,14;-10,65;-0,08;21,03;1,96;4,22;10,51;0;1;
23140;-50,59;-44,64;-18,16;-1,15;30,83;2,1;4,42;10,3;0;1;
23158;-41,38;-39,9;-12,77;-4,43;31,54;1,94;3,52;8,6;0;1;
23176;-11,95;-42,58;-18,76;-3,04;30,37;2,03;3,43;8,58;0;1;
23196;11,08;-40,34;-16,26;-0,46;30,07;1,98;3,12;7,19;0;1;
23212;-33,77;-39,51;-14,56;-3,34;29,99;1,84;2,7;5,56;0;1;
23236;-56,42;-42,28;-17;-3,15;19,44;1,95;2,65;4,74;0;1;
23253;251,78;-38,23;-14,99;-5,18;22,9;1,82;2,52;4,77;0;1;
23274;-50,75;-38,79;-16,26;-16,63;32,49;2,07;2,58;5,25;0;1;
23293;-11,38;-38,29;-10,35;-6,27;35,7;2,01;2,92;4,98;0;1;
23312;-18,66;-40,8;-11,83;-8,04;34,76;1,97;3,27;4,56;0;1;
23333;-52,23;-41,6;-12,92;-6,85;35,83;1,98;3,09;4,08;0;0;
23352;8,96;-36,7;-24,24;-4,96;40,64;1,98;3,14;3,64;0;0;
23368;-49,7;-38,55;-14,92;0,41;28,2;2;3,22;3,79;0;0;
23386;-29,14;-41,98;-21,34;-3,64;27,6;1,93;3,43;3,01;0;0;
23405;-47,19;-39,02;-6,01;-2,41;27,02;2;4,21;2,97;0;0;
23429;-54,84;-37,55;-29,24;-0,99;28,02;2,13;10,83;2,89;0;0;
23458;-56,66;-39,87;-11,32;-7,39;26,86;2,06;14,83;2,76;0;0;
23482;-17,09;-37,94;10,62;-11,68;21,41;1,83;23,91;2,81;0;0;
23501;48,11;-39,28;-106,19;-6,88;24,18;1,82;28,69;2,63;0;0;
23520;-56,78;-39,38;1,6;-6,59;25,55;1,73;32,8;2,67;0;0;
23541;-5,89;-41,61;-63,14;-6,45;28,85;1,46;35,79;2,94;0;0;
23562;-27,25;-40,75;-64,72;-2,61;28,2;1,28;40,93;3,2;0;0;
23583;3,68;-39,35;22,36;-1,33;29,94;1,31;36,46;3,37;0;0;
23610;-98,53;-38,71;47,05;2,29;36,87;1,4;39,22;3,48;0;0;
23631;-16,74;-42,33;26,36;-6,64;31,68;1,42;41,03;3,27;0;0;
23650;-44,08;-40,37;-36,01;-19,89;28,5;1,35;45,7;3,98;0;0;
23670;131,6;-38,69;66,13;-4,59;36,71;1,63;45,18;4,86;0;0;
23688;-40,04;-38,76;42,13;-0,35;42,72;1,97;44,94;5,06;0;0;
23705;-69,44;-38,62;133,13;-3,35;36,81;2,15;59,01;5,59;1;0;
23724;-69,44;-38,62;133,13;-3,35;36,39;2,22;73,31;5,95;0;0;
23745;-99,63;-38,29;-111,2;-14,13;38,14;2,46;77,64;6,68;0;0;
23771;-49,92;-42,21;5,05;-7,14;36,67;2,56;82,36;5,78;0;0;
23794;50,97;-40,26;-41,91;-13,06;29,76;2,35;85,29;5,26;0;0;
23812;-6,7;-40,07;103,62;3,38;27,09;2,09;82,33;5,1;0;0;
23831;-106,1;-39,87;-30,09;-12,05;34,29;1,9;69,19;4,77;0;0;
23849;44,56;-39,26;79,14;-1,95;39,18;1,78;63,51;3,74;0;0;
23866;-6,36;-39,44;13,73;-6,1;38,66;1,95;61,74;3,65;0;0;
23886;-23,5;-40,13;-49,13;-6,31;34,16;1,85;56,91;3,79;0;0;
23904;146,14;-38,32;-115,76;-3,97;39,1;2,01;53,43;3,67;0;0;
23923;-34,45;-41,8;-141,34;-3,81;39,36;2,01;58,44;3,51;0;0;
23941;18,85;-41,46;35,83;-11,33;37,22;2,12;62,81;3,7;0;0;
23958;18,85;-41,46;35,83;-11,33;39,1;2,05;63,37;4,01;0;0;
23976;-27,05;-40,18;-97,46;3,24;36,2;2,06;62,19;4,06;0;0;
23994;-67,41;-41,1;72,04;-8,02;39,82;2,1;72,11;4,29;0;0;
24013;-45,08;-38,88;-23,94;-8,51;32,63;1,94;72,24;4,29;0;0;
24030;-15,92;-40,26;-15,8;-14,53;29,75;1,94;64,11;4,13;0;0;
24052;13,62;-39,3;-85,55;-3,35;27,54;1,99;56,24;3,71;0;0;
24073;-11,67;-43,05;-2,63;-5,43;25,78;2;53,59;3,25;0;0;
24099;13,54;-41,99;-16,43;-9,48;28,39;1,77;41,93;2,83;0;0;
24117;-78,16;-39,01;-17,19;-6,85;26,69;1,81;26,62;2,62;0;0;
24137;33,91;-42,21;-21,73;1,06;28,71;1,97;19,51;2,27;0;0;
24160;-37,56;-39,54;-14,17;-7,77;36,66;1,88;13,91;2,58;0;0;
24183;-26,95;-35,41;-16,11;0,88;32,68;1,98;3,14;2,81;0;0;
24201;6,58;-42,59;-19,11;-1,27;33,93;2,29;2,35;2,92;0;0;
24219;6,58;-42,59;-19,11;-1,27;33,45;2,64;2,29;2,79;0;0;
24239;-31,87;-41,33;-14,81;-3,91;38,77;2,46;2,5;2,86;0;0;
24273;-78,68;-40,45;-15,86;-6,95;33,35;2,27;2,8;2,67;0;0;
24295;-28,55;-38,42;-14,8;-12,17;35,38;2,3;3,27;2,57;0;0;
24312;-95,82;-36,58;-36,37;-7,04;40,55;2,13;5,81;2,28;0;0;
24334;-174,79;-37,55;-8,43;-9,63;48,32;1,86;6,7;2,42;0;0;
24356;-12,42;-44,27;-28,54;-6,38;46,46;1,82;7,82;2,3;0;0;
24374;-25,51;-37,18;-16,73;-3,97;47,24;2,07;8;2,22;0;0;
24400;31,7;-41;-18,97;-13,38;55,46;2,09;8,17;2,45;0;0;
24418;31,7;-41;-18,97;-13,38;58,64;2,15;7,93;2,61;0;0;
24435;-63,9;-37,46;-16,56;-4,62;55,43;2,05;6,15;2,93;0;0;
24456;-40,09;-40,96;-3,54;-11,59;50,83;2,01;5,97;3,04;0;0;
24475;-44,12;-41,01;-17,98;-3,26;49,13;1,83;4,9;3,3;0;0;
24491;-43,77;-35,5;-19,1;-2,65;48,77;1,86;4,32;3,32;0;0;
24510;1,85;-40,85;-15,7;-2,67;45,21;1,82;3,71;3,04;0;0;
24529;-48,3;-39,08;-15,39;-16,83;38,12;1,84;3,44;3,73;0;0;
24552;-59,47;-38,73;-13,81;-6,57;39,66;1,88;3,13;3,32;0;0;
24572;96,7;-35,97;-14,39;-8,37;40,57;2;2,26;3,23;0;0;
24591;-47,8;-41,24;-20,42;-9,13;43,63;2,11;2,26;3,22;0;0;
24608;27,96;-41,23;-19,53;0,72;52,6;1,9;2,63;3,39;0;0;
24628;78,78;-40,79;-24,65;-7,29;57,32;1,97;3,23;3,17;0;0;
24645;-68,69;-41,69;66,85;-3,87;58,64;2,04;8,14;2,15;0;0;
24663;1,42;-38,66;-95,2;-3,52;55,76;2,09;15,75;2,13;0;0;
24679;1,42;-38,66;-95,2;-3,52;50,57;2,04;23,4;1,83;0;0;
24697;-19,24;-40,58;17,91;-4,33;42,89;2,17;33,82;2,14;0;0;
24715;41,11;-38,56;5,97;-3,08;39,53;1,96;38,17;2,11;0;0;
24744;-85,92;-39,64;65,26;-8,33;35,82;2;41,56;2,46;0;0;
24762;-50,45;-39,13;14,05;-0,35;37,17;1,95;37,71;2,97;0;0;
24779;-50,45;-39,13;14,05;-0,35;39,06;1,94;35,32;3,47;0;0;
24795;-7,49;-39,52;-79,04;-5,82;46,49;1,65;34,77;3,51;0;0;
24814;-8,65;-36,95;-36,79;-3,15;44,71;1,86;35,35;3,4;0;0;
24832;73,12;-38,27;40,61;-13,02;44,47;1,67;39,02;3,49;0;0;
24849;-39,13;-35,55;0,49;-8,06;43,52;1,81;36,82;3,36;0;0;
24869;64,78;-41,1;62,12;1,8;46,16;1,7;39,26;4,24;0;0;
24893;-56,01;-38,94;59,06;-4,49;43,81;1,54;41,37;3,88;1;0;
24910;-36,84;-40;-24,7;-5,2;41,02;1,33;43,28;4,18;1;0;
24929;-42,47;-36,82;-39,58;2,02;38,53;1,3;41,7;4,4;1;0;
24947;69,98;-39,4;-78,72;-14,99;37,61;1,31;42,13;5,15;1;0;
24965;-65,36;-41,1;42,77;3,34;35,78;1,16;49,68;5,18;1;0;
24983;-16,42;-36,96;-75,99;-16,24;30,97;1,44;51,15;5,69;0;0;
25005;-52,32;-37,19;-9,12;-8,16;28,17;1,76;61,63;5,5;0;0;
25028;-49,8;-39,26;-96,11;-4,7;29,14;2,09;67,32;5,85;0;0;
25051;-29,84;-37,64;-138,94;-12,41;34,43;2,43;74,31;5,36;0;0;
25071;23,8;-37,91;29,8;3,96;33,65;2,4;75,01;5,88;0;0;
25089;80,76;-40,64;-27,31;-10,48;37,55;2,36;76,2;5,44;0;0;
25107;-39,77;-35,99;58,62;-9,27;42,19;2,42;71,97;5,06;0;0;
25128;31,1;-34,37;-40,21;-8,36;44,6;2,55;66,44;4,87;0;0;
25146;-28,62;-39,65;-97,54;-8,41;41,73;2,3;62,29;4,88;0;0;
25166;-129,13;-38,67;-138,62;-13,56;41,28;2,11;71,17;4,58;0;0;
25183;36,6;-39,45;65,4;-5,2;42,07;2,28;58,3;4,44;0;0;
25205;-15,31;-42,6;133,56;-8,55;40,25;2,08;68,18;4,59;0;0;
25224;-35,9;-37,22;20,09;-11,12;37,37;2,08;64,1;4,84;0;0;
25244;92,48;-37,8;-28,1;-8,29;37,63;1,88;66,31;4,82;0;0;
25263;-26,57;-38,92;16,91;-1,03;39,21;1,96;63,11;5,14;0;0;
25284;-17,08;-35,45;-68,24;-3,83;31,39;2;60,15;4,63;0;0;
25304;-17,87;-42,31;19,66;-5,32;26,98;2,03;49,83;3,94;0;0;
25326;22,89;-42,77;-13,68;-8,57;25,13;2,06;40,39;3,44;0;0;
25350;-4,38;-38,16;-15,77;-4,22;27,54;2;32,93;2,8;0;0;
25372;-65,35;-40,59;-13,61;-3,79;31,6;1,96;19,91;2,64;0;0;
25399;-32,41;-38,08;-9,35;-8,36;30,91;2,15;13,56;1,92;0;0;
25417;-29,31;-39,9;27,02;-11,13;31,15;2,06;12,02;1,79;0;0;
25434;-21,68;-40;-12,98;-6,92;29,85;2,07;9,79;1,84;0;0;
25453;-12,37;-37,07;-13,35;-3,52;32,14;1,71;9,45;1,96;0;0;
25473;-31,54;-44,3;-17,95;-5,89;30,55;1,97;10,18;2,02;0;0;
25490;-27,95;-43,16;-17,6;-11,55;32,77;1,87;9,92;2,33;0;0;
25507;-28,16;-39,26;-35,97;-16,47;31,58;1,88;9,84;2,6;0;0;
25525;-17,51;-38,28;-12,93;-5,45;29,7;1,96;5,45;2,85;0;0;
25547;-110,65;-38,56;-21,45;-3,73;28,75;2,09;5,06;3,21;0;0;
25569;-37,92;-40,25;-9,38;-11,11;36,25;2,02;4,25;2,97;0;0;
25587;-12,57;-42,95;-15,4;-14,97;29,94;2,44;3,72;3,23;0;0;
25605;-17,96;-38,41;-36;-6,22;30,53;2,49;4,8;3,19;0;0;
25623;45,89;-37,94;-9;-8,79;35,91;2,4;4,35;3,22;0;0;
25639;45,89;-37,94;-9;-8,79;40,28;2,4;5,02;3,34;0;0;
25655;-16,28;-40,6;-25,94;0,88;28,38;2,36;5,4;3,83;0;0;
25676;-86,67;-40,34;-12,97;-2,6;26,6;1,98;5,54;4,09;0;0;
25692;0,94;-41,51;-18,6;-3,27;26,9;1,81;5,93;3,72;0;0;
25713;-93,72;-38,64;-18,14;-8,87;30,32;1,88;4,52;4,27;0;0;
25736;-89,51;-40,91;-18,14;-8,92;32,36;1,96;3,85;5,89;0;0;
25754;-41,45;-41,29;-13,61;1,52;31,25;1,78;3,76;5,99;0;0;
25772;-8,67;-36,21;-21,34;-11,11;41,06;1,78;3,33;5,9;0;0;
25790;-27,03;-37,88;-11,37;-9,19;41,46;2,04;3,33;6,44;0;0;
25808;-41,95;-41,59;-12,15;-5,16;43,25;1,96;3,06;6,48;0;0;
25825;5,8;-39,4;-19,46;-2,39;42,92;1,79;2,93;4,99;0;0;
25844;-104,73;-41;-14,58;-6,32;38,45;1,71;3,01;3,52;0;0;
25864;1,14;-40,17;-14,42;-5,49;33,98;1,72;2,89;3,05;0;0;
25883;41,86;-39,98;-15,52;-2,82;34,8;1,53;2,47;2,68;0;0;
25901;-17,56;-38,18;-16,77;-7,3;31,61;1,39;2,25;2,11;0;0;
25918;-17,56;-38,18;-16,77;-7,3;29,89;1,38;2,15;2,14;0;0;
25937;30,98;-39,27;-13,44;-4,71;32,54;1,51;2,05;2,17;0;0;
25958;-35,45;-34,45;-10,51;-8,78;33,17;1,58;1,97;2,24;0;0;
25975;7,9;-39,87;6,55;-8,52;37,54;1,62;3,89;2,51;0;0;
25993;-45,91;-38,78;-14,46;-4,58;38,55;1,75;6,46;2,38;0;0;
26010;8,92;-41,5;16,88;-5,73;42,1;1,79;7,46;2,19;0;0;
26030;19,87;-38,6;1,32;-4,85;39,58;1,86;11,57;2,96;0;0;
26047;-41,52;-37,74;-175,58;-8,4;34,53;1,61;23,62;3,04;0;0;
26067;-22,58;-37,92;85,72;-5,27;36,95;1,46;37,96;3,57;0;0;
26084;-21,52;-39,6;-53,54;-6,75;27,46;1,39;42,31;3,73;0;0;
26101;30,9;-38,17;-16,5;-8,48;27,11;1,4;48,05;3,97;0;0;
26120;30,9;-38,17;-16,5;-8,48;26,06;1,39;52,62;3,99;0;0;
26137;-29,85;-38,66;33,44;2,88;23,99;1,39;58,9;3,68;0;0;
26155;-27,57;-38,01;-66,73;-8,53;21,16;1,54;50,85;3,46;0;0;
26174;-100,83;-38,02;31,68;-8,67;16,93;1,62;46,69;3,55;0;0;
26192;-49,25;-41,96;2,28;-2,89;22,96;1,77;45,35;3,8;0;0;
26212;-55,6;-39,65;-26,22;-9,78;23,58;1,58;40,96;3,71;0;0;
26229;-27,37;-42,59;-64,74;-10,48;23,77;1,75;39,36;3,62;0;0;
26246;2,9;-41,5;-57,42;0,11;28,26;1,85;41,52;4,02;0;0;
26266;-20,82;-36,57;-31,33;-6,33;28,56;1,7;39,4;3,84;0;0;
26285;3,28;-42,68;-17,04;-3,62;31,64;1,76;42,37;4,08;0;0;
26305;-93,45;-39,72;-9,9;-3,52;29,78;1,77;48,06;3,95;0;0;
26325;18,15;-41,98;15,24;-6,66;35,56;1,7;51,18;4,08;0;0;
26343;-8,05;-41,12;-26,76;-7,81;38,07;1,73;52,2;3,47;0;0;
26361;39,54;-39,03;-16,99;3,12;36,33;1,6;45,84;3,78;0;0;
26381;-55,51;-42,44;62,74;-10,72;40,73;1,83;49;3,76;0;0;
26401;13,47;-42,09;47,26;-15,47;40,45;1,72;51,26;3,99;0;0;
26419;13,47;-42,09;47,26;-15,47;38,51;1,64;54,05;4,63;0;0;
26437;-28,4;-42,28;-31,18;-3,85;30,3;1,63;55,69;4,58;0;0;
26455;-16,57;-39,87;15,73;1,86;31,13;1,5;63,69;5,26;0;0;
26473;-42,33;-40,63;28,56;-9,73;28,52;1,33;66,92;5,01;0;0;
26492;-25,57;-37,95;-8,85;-7,39;26,84;1,38;61,6;4,65;0;0;
26510;-52,21;-37,29;28,57;-17,94;30,46;1,49;62,74;4,36;0;0;
26527;-22,41;-35,59;-124,44;-13,57;29,26;1,52;59,42;4,19;0;0;
26549;-111,02;-36,15;-49,51;-6,44;29,8;1,54;57,84;5,3;0;0;
26573;-66,12;-40,62;71,77;3,77;29,84;1,71;51,53;5,16;0;0;
26592;-12,34;-39,65;-36,93;-6,42;35,57;1,79;59,1;5,01;0;0;
26612;-21,75;-37,82;-53,18;-2,64;30,14;1,75;62,32;5,24;0;0;
26630;-19,66;-39,17;-93,99;-10,31;29,81;1,85;60,24;5,38;0;0;
26647;44,21;-38,12;77,95;3,93;31,97;1,87;51,35;5,16;0;0;
26675;-164,7;-38,89;-62,76;-13,9;36,8;1,77;55,85;5,05;0;0;
26693;-54,37;-39,24;17,16;-10,34;29,83;1,92;48,57;4,65;0;0;
26711;-29,18;-33,97;-44,22;-7,67;25,51;1,9;48,29;4,85;0;0;
26732;-102,45;-42,82;-47,15;-13,44;25,36;2,15;53,51;4,36;0;0;
26750;-36,52;-36,77;-44,7;1,41;31,95;2,22;55,23;4,05;0;0;
26770;73,44;-39,54;-31,88;-3,62;33,88;2,28;59,79;3,85;0;0;
26791;-45,38;-38,3;66,74;-5,53;34,61;2,39;72,27;3,73;0;0;
26812;69,3;-39,65;-253,07;-3,38;36,93;2,29;81,66;3,89;1;0;
26838;-50,14;-35,99;-49,83;4,49;42,61;2,16;82,69;4,15;1;0;
26856;78,28;-41,21;32,52;1,64;42,7;1,97;79,99;4,2;1;0;
26875;37,22;-42,21;0,43;-4,41;42,2;1,74;76,3;4,4;1;0;
26893;-24,89;-38,71;97,87;-8,43;43,99;1,6;73,76;4,44;1;0;
26912;7,25;-36,85;38,94;-3,72;47,61;1,55;68,66;4,37;1;0;
26944;-47,27;-36,2;2,21;-4,97;42,81;1,81;60,02;3,94;1;0;
26967;-61,6;-38,76;-19,68;-8,14;44,75;1,7;55,44;3,74;1;0;
26987;-28,89;-40,6;-15,04;-2,29;39,83;1,78;43,97;3,24;1;0;
27010;-78,96;-37,94;-31,13;-9,15;35;1,85;43,72;3,03;1;0;
27034;-49,08;-40,61;-13,15;0,29;29,7;1,8;34,02;3,08;1;0;
27052;-41,94;-34,48;-24,85;-15,13;31,46;1,94;25,42;3,09;1;0;
27072;-34,38;-35,5;-8,52;-9,73;29,45;1,83;13,62;2,95;1;0;
27091;-45;-40,4;78,85;-4;32,91;2,03;13,81;2,82;1;0;
27113;60,76;-44,04;31,85;0,18;33,45;2,06;14,02;2,85;1;0;
27131;-27,65;-39,14;52,49;1,18;35,22;2,07;16,79;2,92;1;0;
27152;-92,11;-37,14;58,83;-2,35;37,88;2,23;26,64;3,18;1;0;
27171;-46,91;-43,48;-25,61;-3,52;44,42;2,15;36,27;2,88;0;0;
27196;3,46;-38,91;-30,83;-17,39;41,87;1,95;48,94;3,65;0;0;
27213;11,28;-40,62;13,94;-8,89;36,99;1,74;58,33;4,03;0;0;
27234;-110,44;-40,37;-40,55;-6,57;42,96;1,6;62,72;4,6;0;0;
27259;-92,09;-38,47;-28,73;-8,33;44,36;1,6;58,95;5,13;0;0;
27280;10,23;-38,89;-53,78;-0,69;39,46;1,48;60,91;4,74;0;0;
27298;-37,18;-39,68;-58,94;-5,49;43,28;1,62;61,26;4,79;0;0;
27329;-72,54;-42,2;-189,58;-6,3;42,5;1,78;59,78;4,44;0;0;
27352;41,11;-37,59;35,88;-1,59;45,53;1,7;55,77;4,18;0;0;
27369;-48,42;-37,69;-5,79;-7,28;41,9;1,85;54,24;3,75;0;0;
27391;-6,47;-35,12;-68,07;-0,44;41,15;1,88;52,34;3,38;0;0;
27409;-32,88;-39,9;-21,96;-5,59;39;2,04;42,77;3,18;0;0;
27429;49,95;-37,19;-21,6;-2,28;42,56;1,96;36;3,49;0;0;
27447;83,35;-38,91;-16,24;-4,69;52,33;1,98;25,57;4,29;0;0;
27476;-167,4;-37,18;-25,75;2,36;55,44;1,92;17,39;5,01;0;0;
27499;-104,68;-47,62;-15,9;-2,32;62,73;2,03;7,79;5,67;1;0;
27520;70,16;-35,13;-17,83;-12,09;59,14;1,89;3,68;5,93;1;0;
27546;-42,75;-37,79;-16,81;-0,72;58,02;1,89;3,14;6,24;1;0;
27567;47,2;-40,82;-16,74;-7,87;57,02;2,2;2,82;5,82;1;0;
27587;20,36;-38,66;-14,64;-3,6;43,95;2,06;2,51;4,61;1;0;
27607;-135,7;-35,66;-15,95;-4,89;39,47;2,02;2,13;3,78;1;0;
27627;6,74;-38,29;-17,41;-3,19;43,65;1,75;2,02;3,44;1;0;
27643;-44,41;-35,36;-8,06;-8,17;46,07;1,83;2,96;3,1;1;0;
27663;-79,74;-40,27;-21,14;-5,71;45,78;1,87;3,53;2,66;1;0;
27683;122,81;-41,17;-24,27;-9,14;49,97;1,79;4,29;2,33;1;0;
27699;122,81;-41,17;-24,27;-9,14;58,08;1,92;5,01;1,98;1;0;
27719;5,53;-39,9;-21,29;-6,52;51,48;1,99;5,39;1,67;1;0;
27738;81,83;-40,01;-21,61;-8,95;52,69;2,07;5,69;1,44;1;0;
27758;-71,18;-40,01;-7,72;-10,44;58,07;1,95;5,04;1,51;1;0;
27775;126,81;-37,92;-6,17;-5,26;60,42;1,8;7,96;2,11;1;0;
27793;20,67;-39,77;-1,97;-13,67;62,53;1,87;10,62;2,39;1;0;
27810;31,83;-39,52;-89,08;-7,64;58,66;1,92;16,32;3,09;1;0;
27828;-44,11;-33,61;-72,82;-3,8;66,82;1,97;21,79;3,75;1;0;
27847;-37,29;-38,29;-61,68;-8,95;68,11;1,95;28,76;3,8;0;0;
27866;-34,92;-39,1;-117,57;-9,78;58,87;1,94;32,56;4,02;0;0;
27888;-7,42;-40,28;75,16;-10,68;50,48;2,05;37,95;4,24;0;0;
27906;-45,4;-40,3;40,89;-10,45;55,26;2,04;40,63;4,46;0;0;
27931;-39,96;-36,63;-34,55;-2,69;48,66;2,26;40,21;3,89;0;0;
27954;-0,42;-40,79;-22,7;-11,21;45,32;2,27;39,31;4;0;0;
27978;-15,8;-40,63;-15,11;-15,97;44,55;2,38;44,21;4,6;0;0;
28003;-13,74;-40,15;7,16;-8,64;57,02;2,23;44,82;4,45;0;0;
28022;-27,3;-37,95;-37,77;-6,68;53,84;2,08;45,48;4,05;0;0;
28043;-135,14;-37,41;-10,29;-2,24;48,82;1,74;45,23;3,81;0;0;
28063;-51,97;-38,42;-85,3;-15,45;76,9;1,69;51,79;3,94;0;0;
28084;-103,4;-38,64;83,7;-9,93;73,56;1,74;50,16;3,69;0;0;
28112;1,78;-36,12;29;-6,3;65,24;1,93;43,84;3,9;0;0;
28130;14,93;-36,91;-19,22;-20,77;70,8;1,92;47,26;4,7;0;0;
28150;-104,88;-40,62;-54,2;-10,01;70,02;1,79;44,21;4,48;0;0;
28178;-19,1;-41,35;7,13;-8,17;54,91;1,9;44,5;4,76;0;0;
28205;-74,71;-43,78;-18,33;-9,92;73,23;1,93;38,42;3,74;0;0;
28223;-72,03;-36,58;-17,27;-4,33;77,22;2,15;29,75;3,3;0;0;
28242;46,73;-44,05;-10,03;-26,63;81,19;2,14;23,05;3,64;0;0;
28268;-25,84;-40,6;-12,49;-7,17;72,96;2,47;16,44;3,56;0;0;
28286;-68,6;-38,62;-13,97;-6,84;82,51;2,53;8,76;3,33;0;0;
28312;-69;-41,96;-15,48;-6,28;71,85;2,57;2,46;3,15;0;0;
28339;-17;-39,14;-14,84;-10,46;51,93;2,28;2,35;3,15;0;0;
28361;-27,89;-37,14;-13,79;-9,31;46,69;2,09;2,55;3,3;0;0;
28382;-58,6;-37,92;-16,37;-2,89;46,21;2,2;2,42;2,09;0;0;
28402;-2,81;-36,96;-21,12;-9,84;36,33;1,95;2,52;1,87;0;0;
28422;-79,47;-40,25;4,41;-2,52;45,18;2,03;4,82;2,02;0;0;
28439;-79,47;-40,25;4,41;-2,52;53,16;1,97;7,04;2,16;0;0;
28459;-21,63;-38,41;-27,12;-5,7;61,3;2,06;9,02;1,94;0;0;
28478;46,2;-43,3;-6,49;-8,49;60,37;2,02;9,87;1,89;0;0;
28496;-21,88;-36,89;-8,33;-8,38;54,69;1,84;11,97;1,94;0;0;
28515;-24,68;-38,65;-19,57;-3,75;46,18;1,99;11,84;2;0;0;
28537;-12,34;-36,65;-13,15;-2,52;36,59;2,09;9,72;1,85;0;0;
28558;111,16;-38,56;-15,07;-5,2;31,34;1,95;6,84;2,1;0;0;
28576;-139,39;-37,55;-22,52;-6,94;34,4;1,78;5,23;2,07;0;0;
28596;-95,24;-38,03;-14,9;-3,01;38,99;1,86;4,03;2,18;0;0;
28616;-50,25;-42,53;-20,56;-8,51;45,55;1,72;2,55;2,1;0;0;
28643;-97,73;-41,17;-19,58;-7,76;49,47;1,79;2,32;1,93;0;0;
28671;-29,9;-39,65;-17,08;-0,03;46,1;1,57;2,38;2,01;0;0;
28692;-31,87;-37,92;-21,24;-7,55;42,93;1,58;2,84;1,9;0;0;
28710;-9,06;-41,35;-27,8;-7;37,36;1,62;5,38;2,11;0;0;
28729;-66;-40,46;-44,46;-7,34;44,94;1,79;8,11;2,16;1;0;
28746;-10,42;-39,32;13,98;-8,99;38,93;1,72;13,83;2,67;1;0;
28773;-18,45;-38,17;-86,63;-5,71;35,96;1,89;22,03;2,61;1;0;
28790;-28,93;-37,71;22,1;-2,41;32,22;1,93;26,08;3,45;1;0;
28808;-95,36;-43,08;57,53;-7,4;34,05;2,21;33,82;3,57;1;0;
28826;-53,25;-35,81;11,19;-6,32;29,4;2,13;40,33;3,51;1;0;
28847;69;-39,83;-85,78;-9,74;28,71;2,01;42,86;3,43;1;0;
28865;-11,12;-41,6;13,22;-8,56;28,24;1,78;47,41;3,19;1;0;
28884;-19,02;-39,63;40,58;6,81;30,12;1,74;41,46;3,42;1;0;
28901;-17,56;-41,29;-114,38;-3,46;29,88;1,56;42,81;3,37;1;0;
28918;-17,56;-41,29;-114,38;-3,46;26,91;1,3;39,84;3,54;1;0;
28938;-66,19;-40,08;-31,64;3,89;27,1;1,19;40,93;4,16;1;0;
28957;-35,86;-40,04;-64,61;-6,73;20,5;1,33;39,43;4,71;1;0;
28974;-82,86;-38,75;129,98;-7,62;24,98;1,68;49,92;4,73;1;0;
28994;5,3;-37,72;-6,97;-10,77;26,55;1,8;51,57;4,58;1;0;
29013;-16,57;-39,72;-51,88;-11,58;26,38;2,03;52,33;4,58;0;0;
29033;-60,02;-40,27;-189,01;-3,53;21,84;2,11;57,37;4,53;0;0;
29065;200,17;-40,78;-22,26;-14,56;26,98;2,2;50,64;4,42;0;0;
29087;-141,53;-36,52;43,41;-5,35;27,62;2,21;57,29;3,94;0;0;
29104;-81,19;-42,32;-28,52;-15,98;31,84;2,07;53,76;3,94;0;0;
29124;-20,76;-36,42;22,46;-0,74;31,83;1,82;59,35;3,45;0;0;
29149;-27,69;-38,11;40,97;-3,87;31,17;2,06;59,21;3,31;0;0;
29171;129,55;-36,02;-26,24;-9,26;33,96;2,16;50,56;3,13;0;0;
29196;-19,44;-44,93;-18,53;-3,07;24,22;1,98;43,37;2,32;0;0;
29228;62,9;-38,66;-16,28;-5,73;21,44;1,84;30,93;2,55;0;0;
29251;-24,66;-39,4;-15,06;-3,36;20,39;1,94;16,49;2,36;0;0;
29266;-40,06;-39,91;-18,11;-2,67;24,09;1,74;8,24;2,38;0;0;
29283;-9,1;-39,64;-15,39;-5,35;30,48;1,8;3,18;2,41;0;0;
29301;-28,14;-40,37;-16,19;-6,52;27,22;1,79;2,53;2,41;0;0;
29318;-28,14;-40,37;-16,19;-6,52;26,62;1,87;2,43;2,38;0;0;
29334;-34,51;-36,56;-17,12;-5,69;22,06;2,04;2,13;2,15;0;0;
29352;-45;-40,44;-15,61;-4,72;19,5;2,16;2,29;2,06;0;0;
29371;-36,4;-41,85;-17,78;-4,9;16,87;2,15;2,28;1,91;0;0;
29391;-31,73;-37,57;-3,36;-6,68;16,18;2,16;3,5;1,83;0;0;
29410;-7,55;-36,81;-20,09;-7,29;16,23;2,11;4,09;1,63;0;0;
29429;-16,65;-42,31;-24,16;-7,53;15,59;2,02;5,11;1,76;0;0;
29446;-46,45;-37,85;-9,14;-3;16,62;2,01;6,11;1,89;0;0;
29470;30,29;-35,4;-24,09;-4,61;19,6;1,9;6,42;1,7;0;0;
29502;-18,65;-40,6;-12,89;-5,89;17,8;1,77;6,08;1,81;0;0;
29521;-30,03;-38,24;-13,61;-1,29;18,4;1,72;4,66;1,89;0;0;
29541;-48,85;-45,15;-22,52;-6,15;22,09;1,95;4,47;1,89;0;0;
29565;-27,73;-36,41;-17,33;-6,89;23,49;1,81;3,35;1,74;0;0;
29595;-21,5;-36,91;-17,85;-5,95;25,58;1,89;2,7;1,56;0;0;
29622;-13,18;-42,61;-23,19;-12,56;21,86;2,01;2,62;1,72;0;0;
29651;5,66;-36,95;-14,54;-3,81;22,5;2,21;2,64;1,74;0;0;
29676;-145,4;-40,24;-19,74;-7,29;23,87;2,21;2,83;1,67;0;0;
29694;30,98;-39,73;-12,98;-7,05;31,19;2;2,67;1,68;0;0;
29720;86,17;-42,45;-18,27;-3,01;31,83;2,15;3,27;2,21;0;0;
29747;-25,91;-36,16;-20,78;-6,15;27,9;2,15;3,28;2,38;0;0;
29774;-98,08;-40,8;-15,66;-5,89;28,57;2,22;3,18;2,18;0;0;
29793;-91,14;-38,87;-22,11;-3,24;34,11;2,14;2,85;2,54;0;0;
29814;-58,87;-41,79;-18,35;-1,69;28,26;2,3;2,67;2,59;0;0;
29840;-74,44;-39,69;-15,56;-1,43;30,66;2,56;2,14;2,39;0;0;
29870;-18,16;-38,9;-16,49;-2,94;35,7;2,24;1,94;2,63;0;0;
29889;-66,61;-36,74;-16,64;-3,55;37,61;2,19;1,81;2,57;0;0;
29907;-62,86;-40,26;-14,91;-15,14;39,2;1,99;1,93;2,72;0;0;
29924;97,06;-41,41;-20,32;-6,06;51,51;1,93;1,82;2,6;0;0;
29943;-101,19;-41,97;-16,63;-4,23;58,49;1,87;2,1;2,58;0;0;
29962;45,82;-36,59;-20,41;-5,94;59,17;1,69;2,31;2,18;0;0;
29980;45,82;-36,59;-20,41;-5,94;57,42;1,69;2,52;2;0;0;
29996;-34,59;-34,16;-22,17;-7,73;59,56;1,89;2,58;1,9;0;0;
30020;-70,38;-36,95;-15,41;-11,58;56,32;1,92;2,38;1,74;0;0;
30037;-70,38;-36,95;-15,41;-11,58;36,7;1,93;2,11;1,72;0;0;
30054;142,94;-45,09;-13,29;-6,86;57,77;1,8;1,97;2,01;0;0;
30072;-36,8;-37,28;-17,15;-4,89;66,46;1,92;1,95;2,02;0;0;
30091;6,75;-41,48;-18,58;-11,82;70,05;2,03;1,98;2,11;0;0;
30110;-36,22;-42,81;-15,43;-4,46;67,86;1,94;1,71;2,08;0;0;
30131;-66,53;-39,64;-16,08;-7,4;64,91;1,97;2,06;1,93;0;0;
30148;-137,94;-38,26;-18,37;-8,04;64,94;2,03;2,12;1,62;0;0;
30166;-59,29;-45,14;-18,53;-6,31;49,64;1,94;1,99;1,65;0;0;
30185;-52,19;-38,09;-16,67;-8,03;42,59;2,16;1,94;1,65;0;0;
30202;-49,2;-44,82;-21,05;-7,18;51,42;2,21;2,02;1,44;0;0;
30221;76,39;-42,17;-21,44;-4,98;61,25;2,2;2,05;1,5;0;0;
30239;76,39;-42,17;-21,44;-4,98;67,26;2,24;1,76;1,46;0;0;
30257;172,31;-37,56;-19,72;-10,32;59,63;2,38;1,71;1,51;0;0;
30275;-18,53;-41,87;-18,06;-9,11;64,3;2,31;1,58;1,92;0;0;
30293;-5,24;-40,66;-18,82;-6,69;57,98;2,07;1,59;1,98;0;0;
30312;-38,15;-38,41;-12,72;-4,22;48;2,1;1,66;2,05;0;0;
30329;-6,53;-38,92;-14,19;-9,1;44,34;1,98;1,61;2,07;0;0;
30347;-112,56;-39,35;-20,99;-2,07;49,19;2,17;1,77;2,12;0;0;
30370;-119,68;-38,82;-18,49;-2,97;46,58;2,16;1,92;2,06;0;0;
30386;-0,75;-33,97;-18,44;-10,16;45,68;2,27;1,98;1,93;0;0;
30402;-13,31;-38,42;-18,2;-4,58;41,94;2,5;2,25;2,02;0;0;
30421;50,51;-39,34;-16,96;-7,56;57,65;2,47;2,18;2,09;0;0;
30442;-96,52;-38,3;-18,87;5,26;57,95;2,69;2,17;4,66;0;0;
30460;-65,75;-40,1;-18,28;-29,66;49,29;2,58;2,06;6,47;0;0;
30480;-46,71;-38,99;-21,35;23,72;48,4;2,2;2,65;11,13;0;0;
30513;30,69;-40,27;-43,43;-16,65;55,11;1,97;4,28;14,6;0;0;
30533;-37,29;-40,73;-2,34;67,45;56,74;1,85;7,62;19,49;0;0;
30565;103,04;-40,62;-25,13;-21,37;46,67;1,64;8,73;24,37;0;0;
30584;-19,44;-39,89;-27,2;-11,63;48,06;1,32;10,18;25,72;0;0;
30607;-7,09;-38,16;-37,49;-16,63;43,34;1,41;10,64;24,27;0;1;
30629;-16,25;-45,29;4,47;-46,26;40,39;1,76;11,42;27,43;0;1;
30651;-94,58;-41,16;-22,74;22,14;39,63;1,7;10,33;28,14;0;1;
30677;56,66;-39,65;-2,72;-19,4;38,3;1,82;11,24;23,33;0;1;
30694;-85,6;-40,64;-18,16;-67,48;32,88;1,77;11,04;25,04;0;1;
30711;-44,97;-38,26;-15,62;7,99;36,05;1,86;12,51;27,21;0;1;
30728;-34,67;-36,22;-42,16;-39,82;36,89;1,68;12,2;28,13;0;1;
30748;-50,39;-40,96;-16,28;14,07;34,47;1,68;11,92;25,23;0;1;
30765;-20,53;-38,87;-13,35;-10,57;30,66;1,63;11,26;23,89;0;1;
30788;-20,28;-42,79;-4,95;27,67;27,1;1,6;8,07;22,66;0;1;
30820;135,32;-39,89;-6,14;4,77;37,07;1,56;7,36;22,03;0;1;
30839;-97,89;-37,67;-24,47;-10,27;33,13;1,49;6,89;19,48;0;1;
30857;-55,52;-38,91;-29,84;-12,45;37,15;1,35;6,79;15,75;0;1;
30876;-0,79;-44,4;-19;2,86;42,45;1,16;6,61;15,27;0;1;
30893;-60,16;-38,36;-27,02;-37,27;44,98;1,3;7,08;15,86;0;1;
30912;-41,69;-38,88;-12,69;-38,22;41,73;1,3;6,89;14,45;0;1;
30929;144,7;-37,68;-22,29;-3,48;38,88;1,38;6,1;12,88;0;1;
30949;4,1;-37,86;-12,02;-3,19;44,51;1,57;5,43;11,9;0;0;
30966;-11,98;-35,85;-16,77;0,71;40,58;1,83;3,88;11,06;0;0;
30984;-14,02;-38,75;-20,05;-6,42;35,09;1,7;3,17;8,45;0;0;
31013;-36,02;-39;-17,2;-8,4;32,43;1,9;2,74;6,66;0;0;
31032;-50,89;-37,92;-14,91;-1,41;33,47;1,91;2,28;4,89;0;0;
31055;-72,97;-43,45;-12,22;-6,78;35,06;1,82;2,17;4,25;0;0;
31078;-51,72;-37,92;-15,06;-6,93;29,62;1,76;2,46;3,12;0;0;
31097;-43,97;-40,26;-16,02;-2,88;29,31;1,75;2,6;2,82;0;0;
31123;-73,82;-38,36;-16,42;-15,16;32,54;1,78;2,66;3,76;0;0;
31143;-69,31;-36,21;-15,54;-8,15;32,36;1,8;2,82;4,29;0;0;
31174;-85,56;-40,11;-13,65;-10,07;34,04;1,83;3,49;3,98;0;0;
31195;-11,96;-39,1;-19,34;-0,33;31,27;1,88;3,26;4,36;0;0;
31215;-43,15;-39,65;-16,64;-6,19;27,69;1,71;3,48;4,31;0;0;
31232;-45,98;-41,46;-13,15;-4,41;28,4;1,53;3,39;3,95;0;0;
31251;-25,75;-36,94;-21,97;-0,68;23,14;1,44;3,23;2,64;0;0;
31268;74,18;-41,85;-20,41;-5,7;20,85;1,43;3,89;2,48;0;0;
31286;-13,12;-38,19;-14,58;-8,42;37,42;1,5;3,06;1,52;0;0;
31303;-80,62;-36,31;-17,59;-7,16;39,4;1,79;3,2;1,67;0;0;
31320;-22,1;-42,35;-9,23;-3,73;37,91;1,82;3,21;1,75;0;0;
31338;-22,1;-42,35;-9,23;-3,73;38,53;1,91;3,02;1,93;0;0;
31357;-14,13;-38,1;-69,08;-13,03;35,08;1,9;9,53;2,24;0;0;
31377;-37,22;-39,89;-56,3;-6,39;33,23;1,77;13,19;2,52;0;0;
31396;5,12;-39,92;-0,99;-6,53;25,91;1,81;19,22;2,85;0;0;
31414;-39,34;-39,63;-90,33;3,17;23,96;1,46;30,05;3,1;0;0;
31433;-48,65;-40,09;-17,46;-4,02;30,53;1,34;35,61;2,97;0;0;
31452;-39,52;-39,57;15,31;-1,31;32,52;1,53;39,89;2,81;0;0;
31472;-20,81;-38,86;-1,23;-10,53;30,71;1,48;40,73;2,95;0;0;
31489;21,23;-38,76;-73,84;-1,4;28,11;1,62;42,33;2,91;0;0;
31508;-34,9;-42,41;83,12;-2,54;24,25;1,73;38,94;3,27;0;0;
31528;-35,66;-38,24;57,76;-6,18;19,71;2,07;42,6;3,19;0;0;
31546;86,03;-37,29;11,03;0,34;18,48;1,95;41,97;3,29;0;0;
31565;-17,48;-38,25;-1,24;-6;15,88;1,99;46,25;3,77;0;0;
31583;-16,34;-41,12;-24,13;-6,9;15,91;2,05;45,54;4,11;0;0;
31602;-88,14;-41,3;-34,51;-6,93;12,9;2,02;41,42;4,01;0;0;
31625;-21,44;-38,68;-8,68;-4,21;15;1,76;36,63;4,12;0;0;
31650;-17,94;-36,83;-18,86;-3,62;15,29;1,82;44,63;4,11;0;0;
31670;-26,56;-38,91;4,92;-5,35;11,7;1,72;52,8;4,18;0;0;
31691;-68,1;-37,93;-163,78;-11,82;13,3;1,63;54,7;3,92;0;0;
31719;-59,3;-39,08;-4,91;-8,46;17,6;1,6;57,03;3,64;0;0;
31750;-14,75;-36,92;-3,45;-3,75;13,91;1,65;57,35;3,32;0;0;
31778;-32,25;-41,2;-9,19;-12,79;15,18;1,63;55,23;3,25;0;0;
31794;-3,56;-42,15;-18,3;-3,63;14,41;1,68;32,56;3,08;0;0;
31811;-29,12;-38,65;-26,86;-6,66;11,8;1,72;30,06;2,9;0;0;
31828;-4,37;-37,44;-7,89;-7,86;11,51;1,72;21,1;2,41;0;0;
31849;-21,56;-38,29;-23,16;-6,08;9,37;1,69;18,43;2,33;0;0;
31870;-4,44;-39,63;-69,01;-3,62;9;1,6;17,38;2,39;0;0;
31898;-41,82;-37,21;-15,28;-5,15;14,93;1,48;14,26;2,21;0;0;
31915;-20,68;-37,69;0,12;-1,68;16,23;1,47;14,28;2,42;0;0;
31935;-23,43;-41,49;-30,47;-9,33;17,42;1,65;10,13;2,28;0;0;
31959;-15,96;-40,61;-32,8;-5,33;20,16;1,72;9,05;2,37;0;0;
31978;-78,21;-38,92;17,57;-5,19;25,57;1,61;11,52;2,49;0;0;
31996;34,16;-36,62;-15,79;-8,38;24,67;1,63;13,76;2,38;0;0;
32016;-22,36;-40,88;-22,12;-7,99;21,05;1,79;14,54;2,49;0;0;
32033;-16,12;-39,73;-19,8;-6,07;19,86;1,63;12,74;2,25;0;0;
32052;-34,67;-41,97;-20,8;-0,74;18,5;1,73;12,21;2,31;0;0;
32069;-12,24;-38,56;-28,34;-3,54;15,25;1,72;11,71;2,17;0;0;
32089;-103,04;-42,96;-17,99;-10,05;14,49;1,95;7,55;2,3;0;0;
32107;-19,01;-39,65;-22,03;-2,77;13,46;2,09;4,37;2,24;0;0;
32128;-31,33;-38,51;-22,61;-1,7;13,25;1,93;3,57;2,24;0;0;
32144;-31,4;-41,33;-15,92;-7,77;13,59;1,97;3,28;2,34;0;0;
32160;-23,74;-37,91;-16,29;-5,96;12,76;1,94;2,72;2,75;0;0;
32176;-23,74;-37,91;-16,29;-5,96;13,18;1,88;2,33;2,98;0;0;
32195;0,72;-37,57;-30,29;-6,4;11,88;1,96;2,62;3,47;0;0;
32212;-28,43;-40,99;-23,68;-7,17;14,75;1,84;3,23;3,26;0;0;
32231;-90,15;-41,97;-9,49;-2,04;21,16;1,86;3,55;3,78;0;0;
32249;-20,43;-39,32;-9,38;-4,36;21,49;1,86;4,96;3,77;0;0;
32267;-24,81;-41,61;54,75;-6,42;22,78;2,06;13,73;3,56;0;0;
32285;-24,81;-41,61;54,75;-6,42;23,88;2,11;22,24;3,19;0;0;
32305;-21,13;-43,68;-24,51;-3,02;19,88;2,09;27,93;3,34;0;0;
32324;83,97;-37,56;-28,06;-11,1;20,02;2,01;31,38;3,42;0;0;
32345;-26,18;-40,06;-17,74;-0,55;19,26;1,85;38,67;3,82;0;0;
32362;-26,12;-38,76;-78,47;-6,15;19,75;1,89;41,58;4,15;0;0;
32379;-26,12;-38,76;-78,47;-6,15;18,97;1,72;39,31;4,35;0;0;
32396;-0,94;-37,63;-9,63;-4,86;22,2;1,56;34,29;4,17;0;0;
32414;-22,6;-41,97;-24,64;-14,18;22,7;1,69;35,22;4,2;0;0;
32441;-52,72;-33,69;90,86;-14,12;17,46;1,95;40,23;3,84;0;0;
32459;-52,72;-33,69;90,86;-14,12;18,6;2,29;48,49;3,3;0;0;
32477;-25,95;-40,34;50,61;1,38;21,11;2,56;51,42;3,27;0;0;
32496;-96,84;-35,23;-90,67;-8;19,36;2,35;55,86;3,29;0;0;
32517;-97,73;-37,44;55,59;-9,03;19,56;2,48;60,85;3,22;0;0;
32543;-22,95;-43,44;-71,49;-8,38;19,22;2,5;61,41;3,39;0;0;
32567;-62,56;-37,59;18,25;2,73;20,19;2,52;53,73;3,97;0;0;
32599;-23,29;-33,64;70,2;4,67;29,17;2,26;50,5;3,75;0;0;
32625;34,44;-36,38;76,78;3,17;38,32;2,32;56,1;4,47;0;0;
32641;-96,08;-38,18;-26,19;-0,25;48,07;2,39;60,67;4,57;0;0;
32662;6,91;-46,16;-108,56;-6,68;55,67;2,34;58,73;4,39;0;0;
32681;6,11;-38,28;86,63;-3,7;55,44;2,32;62,77;3,97;0;0;
32704;-13,49;-41,46;116,13;-4,88;60,08;2,08;69,09;3,7;0;0;
32729;-4,06;-42,2;60,03;-16,72;56,74;1,85;66,78;3,9;0;0;
32762;59,71;-41,34;-121,17;3,39;52,68;1,72;55,31;3,73;0;0;
32783;-30,06;-40,61;41,43;-5,91;41,81;2,23;60;3,95;0;0;
32798;-30,06;-40,61;41,43;-5,91;36,94;2,6;62,82;4,27;0;0;
32818;-69,54;-39,9;-44,34;-5,21;41,92;2,57;55,58;4,32;0;0;
32836;-69,47;-33,78;33,66;-7,2;42,56;2,57;49,53;4,32;0;0;
32853;-11,71;-43,31;44,96;-5,7;37,91;3,01;56,28;3,97;0;0;
32871;-63,33;-37,31;-23,85;-5,56;37,8;2,85;57,27;3,61;0;0;
32891;41,59;-42,32;68,53;-7,37;45,75;2,33;57,74;3,4;0;0;
32917;-66,12;-41,34;25,66;-8,71;42,93;2,02;59,06;3,38;0;0;
32935;190,26;-39,93;-14,03;-5,35;47,61;2,08;57,03;3,09;0;0;
32953;-95,62;-36,44;-22,56;-8,48;50,14;1,86;48,03;2,86;0;0;
32972;-1,51;-43,37;-14,35;-11,06;50,41;1,68;27,78;2,51;0;0;
32990;-18,74;-35,86;-21,34;-6,93;53,88;1,59;19,63;2,63;0;0;
33006;37,92;-43,04;-16,09;-2,12;54,88;1,73;9,07;2,17;0;0;
33026;-76,65;-37,09;-18,84;-4,8;50,55;1,87;2,91;2,17;0;0;
33045;13,21;-36,27;-17,21;-9,61;41,63;1,94;2,31;2,41;0;0;
33063;-81,94;-39,23;-21,8;-6,7;38,82;1,86;1,83;2,38;0;0;
33083;-40,36;-35,59;-20,42;-8,75;35,09;2,01;2,03;2,11;0;0;
33102;-37,8;-40,56;-17,5;-4,84;28,49;2,33;1,85;2,16;0;0;
33120;-24,63;-39,3;-23,87;-7,36;20,09;2,07;2,23;1,87;0;0;
33136;-24,63;-39,3;-23,87;-7,36;15,3;2,04;2,78;1,57;0;0;
33152;-34,88;-40,92;-9,95;-4,77;15,2;2,21;8,13;1,51;0;0;
33170;143,46;-39,64;-32,17;-10,92;22,62;2,15;10,43;1,79;0;0;
33186;-92,81;-41,44;5,93;-6,05;27,38;1,9;12,04;1,84;0;0;
33204;-43,52;-38,26;-26,31;-4,75;25,66;1,72;12,44;2,01;0;0;
33222;-48,83;-36,78;-39,82;-7,4;31,83;1,93;14,55;2,12;0;0;
33242;29,95;-33,87;-10,7;-5,95;32,13;2,05;14,45;2,35;0;0;
33259;29,95;-33,87;-10,7;-5,95;31,49;1,94;13,05;2,47;0;0;
33279;-76,72;-40,79;-14,67;-9,41;24,86;2,27;11,42;2,22;0;0;
33297;-18,26;-40,64;-15,51;-7,85;28,22;2,14;10,21;2,29;0;0;
33315;-37,73;-35,21;-15,13;-5,34;25,64;2,07;9,45;2,36;0;0;
33332;-54,97;-39,89;-9,43;-8,43;23,69;1,97;6,52;2,16;0;0;
33350;-14,01;-40,84;-47,29;-3,71;26,28;1,84;6,55;2,01;0;0;
33366;-5,73;-42,09;18,52;-5,07;27,28;1,56;9,75;1,98;0;0;
33384;-17,96;-40,37;-66,08;1,02;23,35;1,33;13,86;2,15;0;0;
33403;-14,48;-37,9;29,49;-7,55;22,06;1,35;19,04;2,06;0;0;
33421;117,44;-41,6;-73,69;-4,58;24,53;1,42;25,06;2,28;0;0;
33437;117,44;-41,6;-73,69;-4,58;23,36;1,62;29,99;2,56;0;0;
33456;-9,21;-41,86;40,45;-2,65;21,28;1,73;32,17;2,88;0;0;
33473;23,52;-37,39;-24,26;-7,66;26,75;1,85;32,88;2,98;0;0;
33541;-26,25;-40,61;-3,77;3,92;25,34;1,96;28,71;4,33;0;0;
33564;40,61;-39,78;-24,9;1,97;27,99;1,88;23,46;5,21;0;0;
33581;12,25;-37,93;-13,2;-8,59;30,81;1,65;17,49;5,41;0;0;
33597;12,25;-37,93;-13,2;-8,59;32,35;1,33;11,6;5,43;0;0;
33614;27,31;-38,6;-12,54;-7,86;31,48;1,32;7,04;5,59;0;0;
33633;-10,79;-40,15;-19,78;-5,71;27,7;1,41;3,82;4,96;0;0;
33650;-20,12;-37,56;-16,32;-6,9;27,81;1,65;2,47;3,53;0;0;
33669;-4,79;-40,71;-13,54;-12,78;22,33;1,56;2,17;2,97;0;0;
33687;-11,61;-39,4;-12,49;-5,96;17,26;1,67;2,34;2,49;0;0;
33707;-31,13;-38,28;-20,2;-5,33;18,45;1,65;2,36;2,22;0;0;
33725;-32,75;-37,44;-12,52;-11,53;16,48;1,67;2,47;2,07;0;0;
33744;18,37;-38,44;-12,64;-8,49;22,59;1,54;2,47;2,39;0;0;
33762;-29,63;-38,67;-17,24;-3,26;23,92;1,32;2,51;2,4;0;0;
33782;-21,31;-40,61;-15,31;-6,37;23,6;1,37;2,27;2,26;0;0;
33802;-32,42;-37,69;-18,3;-10,43;23,51;1,4;1,98;2,34;0;0;
33819;-32,42;-37,69;-18,3;-10,43;23,74;1,35;1,98;2,5;0;0;
33837;-10,8;-41,45;-16,34;-4,24;20,37;1,42;1,84;2,19;0;0;
33854;-41,18;-38,65;-17,31;-4,7;15,33;1,56;1,7;1,83;0;0;
33875;-38,64;-37,58;-16,89;0,42;21,19;1,76;1,87;1,92;0;0;
33894;-22,51;-41,41;-20,04;-9,04;21,42;1,8;1,86;2,05;0;0;
33912;-28,55;-39,89;-14,98;-8,03;22,78;1,74;1,82;2,15;0;0;
33928;-28,55;-39,89;-14,98;-8,03;25,01;1,6;1,75;2,21;0;0;
33947;-22,05;-39,84;-18,69;-5,1;23,94;1,59;1,74;2,47;0;0;
33965;-40,81;-39,14;-19,79;-3,15;22,13;1,41;1,77;2,81;0;0;
33982;-14,24;-35,67;-19,58;-7,67;17,35;1,53;1,73;3,21;0;0;
34001;-34,93;-38,29;-18,86;-3,35;15,86;1,56;1,81;4,03;0;0;
34017;-34,93;-38,29;-18,86;-3,35;11,71;1,66;1,95;4,81;0;0;
34036;-118,84;-38,01;-24,25;-4,91;9,03;1,89;3,03;7,28;0;0;
34053;-51,08;-37,68;-8,84;11,06;12,28;1,89;3,64;7,94;0;0;
34072;-24,16;-39,99;-12,52;-10,25;12,71;2,06;4,03;10,29;0;0;
34091;-18,98;-38,29;-7,06;-12,37;13,25;2,05;5,58;12,78;0;0;
34112;-22,81;-38,81;-43,1;-24,68;13,33;1,99;7,61;15,69;0;0;
34130;-52,84;-37,62;-13,81;-22,55;14,42;1,84;9,03;19,79;0;0;
34150;-42,12;-40,61;-19,17;3,07;11,5;1,8;8,41;23,23;0;0;
34166;-24,53;-37,93;-41,53;33,38;9,52;1,53;9,41;25,17;0;0;
34183;-3,89;-35,78;-21,68;-22,42;11,27;1,52;9,59;24,87;0;0;
34202;-10,85;-39,09;-5,14;-73,1;14,2;1,57;9,23;27,75;0;0;
34230;-24,52;-38,53;-16,19;-17,08;13,28;1,63;8,52;25,8;0;0;
34251;27,56;-39,09;-16,12;41,35;17,24;1,72;7,91;24,34;0;0;
34268;-32,94;-35,05;-25,94;17,21;19,74;1,95;8,99;27,75;0;0;
34284;-16,16;-38,8;-20,92;-38,4;20;2,14;7,98;28,27;0;0;
34301;-50,55;-37,56;-26,77;-5,51;20,39;1,91;7,11;29,62;0;0;
34319;-50,55;-37,56;-26,77;-5,51;21,14;1,89;6,67;28,52;0;0;
34336;-33,81;-36,42;-12,14;19,01;19,44;2,02;7,43;29,77;0;0;
34357;-22,07;-39,63;-22,86;-5,96;13,78;1,88;7,2;25,47;0;0;
34384;-45,96;-40,82;-25,17;-18,98;11,29;1,67;7,02;24,89;0;0;
34404;-10,24;-39,35;1,51;24,73;10,86;1,68;6,86;22,71;0;1;
34422;-29,28;-40,44;-33,01;-41,86;10,76;1,86;6,98;23,21;0;1;
34440;-29,28;-40,44;-33,01;-41,86;11,5;1,97;6,35;22,83;0;1;
34457;-35,23;-41,63;-11,14;33,26;12,98;1,64;7,04;23,71;0;1;
34474;-52,73;-40,76;-9,91;-32,74;13,01;1,63;6,53;22,33;0;1;
34495;-35,14;-39,07;-16,96;-14,38;16,83;1,59;6;21,27;0;1;
34513;-39,41;-39,62;-15,1;-23,57;17,47;1,71;6,13;22,27;0;1;
34532;-37,71;-41,34;-11,68;34,43;16,51;1,45;6,29;18,18;0;1;
34551;33,98;-43,53;-20,13;21,18;15,68;1,53;5,85;18,51;0;1;
34570;-41,44;-39,28;-19,15;-1,31;20,79;1,59;4,75;16,99;0;1;
34588;-36,47;-38,62;-23,88;-21,14;17,87;1,66;5,14;15,89;0;1;
34607;-43,42;-40,37;-16,78;-9,26;22,72;1,68;4,81;14,84;0;1;
34626;-27,87;-37,46;-14,99;-21,83;22,91;1,56;3,82;12,43;0;1;
34644;-2,4;-39,89;-19,71;-6,92;21,78;1,74;3,57;11,48;0;1;
34663;-22,84;-40,9;-22,29;-20,68;21,26;1,62;3,96;8,4;0;1;
34680;-22,84;-40,9;-22,29;-20,68;23,21;1,71;4,35;7,96;0;1;
34696;-42,75;-37,13;-12,49;-7,03;19,66;1,63;3,69;9,22;0;1;
34713;-51,48;-38,77;-23,31;-16,47;18,1;1,73;3,94;10,7;0;1;
34729;-4,33;-41,09;-15,69;-6,65;18,55;1,64;3,95;10,62;0;1;
34748;-20,56;-41,13;-18,32;-15,97;17,61;1,53;3,88;11,25;0;1;
34768;-99,93;-42,84;-22,44;-45,65;17,95;1,49;3,91;13,19;0;0;
34787;-24,44;-41,61;-13,02;28,65;21,01;1,52;4,91;14,95;0;0;
34806;-10,6;-38,89;-13,56;-4,64;21,98;1,49;5,17;13,69;0;0;
34823;-20,2;-41,96;-22,53;3,1;22,06;1,48;4,94;12,83;0;0;
34844;35,81;-39,16;-15,87;-8,03;23,99;1,56;4,84;12,77;0;0;
34878;-127,13;-37,84;-19,31;-8,9;30,82;1,76;4,56;11,12;0;0;
34901;-21,29;-40,9;-11,79;6,22;27,14;1,89;3,22;8,95;0;0;
34918;-21,29;-40,9;-11,79;6,22;22,96;2,04;2,55;7,33;0;0;
34935;-5,79;-39,25;-17,67;-18,55;23,05;2,06;2,3;7,08;0;0;
34953;8,56;-39,1;-17,04;-4,14;23,01;1,92;2,24;6;0;0;
34968;-14,45;-39,88;-15,62;-5,06;17,06;1,97;2,09;5,67;0;0;
34985;-67,5;-39,09;-18,08;-4,68;13,14;1,66;2,05;5,22;0;0;
35004;-13,21;-40,89;-15,29;-4,32;15,31;1,47;2,15;4,29;0;0;
35029;-12,56;-38,96;-11,1;-7,42;18,52;1,38;3,02;3,12;0;0;
35045;-70,05;-35,85;25,19;-12,1;19,27;1,49;5,73;2,58;0;0;
35063;5,34;-45;52,46;-10,29;18,85;1,92;10,16;2,77;0;0;
35081;-50,53;-37,93;-52,82;-2,73;20,01;2;17,23;2,89;0;0;
35099;-50,53;-37,93;-52,82;-2,73;18,7;2,15;24,38;3,14;0;0;
35119;33,2;-40,24;-50,99;-8,39;19,2;2,15;28,89;4,39;0;0;
35136;-26,04;-39,84;34,89;-0,79;21,61;2,2;36,4;5,41;1;0;
35155;-100,01;-37,66;17,52;-16,98;23,06;2,26;46,17;5,53;1;0;
35172;-11,46;-37,18;-74,92;-9,03;25,53;1,88;47,32;5,6;1;0;
35192;-21,63;-40,98;-1,29;-7,41;27,79;1,94;45,43;5,28;1;0;
35211;-47,97;-40,38;-25,59;4,56;29,87;2,02;45,51;4,53;1;0;
35231;-50,7;-38,57;-94,63;-9,96;27,03;2,23;47,51;4,52;1;0;
35248;-34,7;-37,82;30,91;5,42;25,31;2,04;41,76;4,58;1;0;
35267;-12,09;-42,69;55,58;-4,93;23,45;2,31;43,71;5,22;1;0;
35283;-25,44;-37,83;-30,73;3,23;22,94;2,29;41,03;5,05;1;0;
35299;-25,44;-37,83;-30,73;3,23;22,93;2,17;37,17;5,06;1;0;
35317;-59,84;-38,75;3,08;-5,32;21,25;2,25;35,48;4,26;1;0;
35337;-9,86;-40,61;97,18;-6,82;23,44;2,08;33,76;4,24;1;0;
35356;96,42;-38,27;-14,87;-6,66;25,78;1,79;41,91;4,21;1;0;
35373;-30,08;-37,82;-11,37;-11,56;37,94;1,68;41,79;4,23;1;0;
35391;-15,88;-37,94;-3,94;-9,15;40,52;1,8;51,36;5;1;0;
35410;-19,64;-39,96;-34,67;-5,24;43,59;1,73;65,07;5;0;0;
35430;-42,99;-41,36;-27,16;-0,26;47,92;1,74;75,95;5,33;0;0;
35454;-33,11;-40,25;-74,82;-7,5;55,65;1,92;72,02;4,63;0;0;
35478;-24,08;-34,86;42,53;-4,63;48,12;2,08;70,36;4,36;0;0;
35507;7,41;-39,31;54,7;-8,77;40,43;2,08;75,93;4,6;0;0;
35529;-95,68;-40,34;62,74;-5,78;39,79;2,01;64,24;4,31;0;0;
35556;-78,05;-35,35;38,77;2,27;37,86;2,16;67,58;3,98;0;0;
35574;-171,77;-39,87;4,48;-8,58;41,95;2,22;65,29;3,99;0;0;
35591;17,05;-39,84;-45,87;-8,34;46,53;2,02;59,6;3,91;0;0;
35608;-24,16;-39,86;-64,35;0,15;46,36;1,95;59,69;3,67;0;0;
35625;29,72;-40,73;109,06;-1,74;46,08;1,92;62,02;3,68;0;0;
35642;-113,36;-33,71;-83,65;-4,87;52,4;2,3;58,11;3,39;0;0;
35662;-32,07;-39,87;-199,48;-5,47;44,82;2,08;64,96;2,95;0;0;
35680;-32,07;-39,87;-199,48;-5,47;30,38;1,99;72,04;2,78;0;0;
35697;98,68;-39,16;2,03;-2,58;30,62;2,09;67,64;2,48;0;0;
35714;-89,47;-38,12;-11,6;-4,01;30,32;2,22;54,04;1,88;0;0;
35733;29,97;-37,93;-19,93;-5,15;33,8;1,86;43,19;1,65;0;0;
35753;6,48;-37,19;-19,41;-15,26;38,52;1,72;30,83;2,22;0;0;
35771;-58,85;-38,64;-16,19;-10,64;44,29;1,81;17,5;2,93;0;0;
35787;-47,18;-40,13;-11,19;-12,41;46,32;1,85;7,63;3,18;0;0;
35806;31,44;-43,8;-21,2;-5,46;45,88;1,79;4,28;3,29;0;0;
35824;-37,44;-35,3;-14,14;-0,69;43,73;2,11;4,02;4,22;0;0;
35841;-35,74;-40,66;-25,4;-24,51;35,83;2,39;4,47;5,55;0;0;
35859;-35,74;-40,66;-25,4;-24,51;30,02;2,38;5,37;6,27;0;0;
35877;-19,45;-35,41;-23,13;-9,9;29,71;2,43;4,42;7,21;0;0;
35894;-82,02;-40,8;-18,43;1,63;29,58;2,55;4,51;7,28;0;0;
35914;0,48;-40,65;-17,39;-29,17;27,08;2,24;4,26;9,65;0;0;
35934;-88,03;-37,93;-19,05;-1,79;28,67;1,89;4,01;10,71;0;0;
35952;-63,72;-40,53;-9,09;7,02;29,08;1,68;4,88;10,91;0;0;
35969;-16,22;-38,9;3,16;4,38;26,17;1,9;7,37;10,32;0;0;
35986;-52,71;-44,99;-7,54;-15,21;24,18;1,98;7,57;10,7;0;0;
36004;42,51;-37,95;-15,55;-75,74;28,55;1,79;8,89;16,58;0;0;
36022;-27,6;-40,33;-22,9;32,45;27,64;2,28;9,7;19,25;0;0;
36038;-27,6;-40,33;-22,9;32,45;23,11;2,82;9,82;21,79;0;0;
36054;-33,92;-35,22;-11,09;-28,61;31;2,73;8,84;22,42;0;0;
36072;-60,07;-41,09;-9,25;7,71;31,49;2,64;7,07;24,2;0;0;
36088;-43,99;-37,92;-5,32;-7,5;31,56;2,87;8,66;24,05;0;0;
36106;53,3;-40,62;-17,03;-20,62;29,02;2,92;8,6;17,93;0;0;
36126;-35,05;-38,42;5,49;37,1;32;2,58;10,28;15,57;0;0;
36152;-36,75;-36,59;-13,42;62,02;27,49;2,36;10,64;17,58;0;0;
36170;-14,63;-41,89;-31,13;-69,76;22,3;2,32;11,13;20,86;0;0;
36189;-3,85;-42,23;-17,17;-31,13;23,4;2,03;10,48;21,06;0;0;
36208;-24,92;-38,16;-25,71;-29;22,73;1,9;9,02;23,33;0;0;
36227;-93,52;-43,44;-27,67;7,25;20,7;1,94;9,06;25,55;0;0;
36246;-38,84;-42,78;-8,81;-24,18;23,95;1,71;8,08;24,58;0;0;
36265;-46,5;-38,91;-22,78;-7,3;23,1;1,61;7,73;20,08;0;0;
36284;-39,18;-39,21;-16,44;-30,43;22,37;1,6;6,46;18,56;0;0;
36309;-18,59;-39,88;-20;-42,07;21,06;1,57;6,75;18,73;0;1;
36327;0,97;-38,83;-15,58;-30,61;22,04;1,47;6,67;16,79;0;1;
36345;1,98;-39,99;-4,52;-14,72;16,29;1,33;5,69;17,46;0;1;
36362;-48,89;-40,98;-6,08;8,95;15,77;1,39;5,5;16,81;0;1;
36380;89,54;-38,5;-21,82;7,03;19,8;1,49;6,66;18,35;0;1;
36397;89,54;-38,5;-21,82;7,03;26,11;1,45;7,65;17,64;0;1;
36415;-20,04;-44,65;-38,04;81,63;28,1;1,59;8,58;23,25;0;1;
36432;-37,59;-40,22;-12,11;35,82;26,95;1,83;9;27,16;0;1;
36449;-14,52;-40,48;-18,8;11,4;26,31;1,87;9,26;29,21;0;1;
36467;-22,57;-39,64;22,04;0,06;24,14;1,76;10,79;29,72;0;1;
36484;-8,2;-43,78;-2,59;-13,23;18,59;1,96;12,66;30,35;0;1;
36503;-1,62;-38,15;-35,75;-37,5;14,67;2,01;12,57;27,69;0;1;
36523;-13,87;-42,34;-8,96;1,97;18,97;1,76;12,36;21,58;0;1;
36542;-37,82;-37,59;-4,19;-20,78;21,43;1,8;12,38;19,09;0;1;
36563;-15,7;-38,93;-13,68;-29,21;20,01;1,76;12,5;16,73;0;1;
36581;-24,86;-38,39;-25,03;-28,65;19,42;1,77;8,84;18,26;0;1;
36597;-24,86;-38,39;-25,03;-28,65;20,03;1,81;7,98;17,5;0;1;
36614;-6,83;-35,98;-14,98;-12,09;21,84;1,9;6,72;16,77;0;1;
36632;-29,36;-41,64;-11,65;-4,52;18,99;1,8;6,17;15,96;0;1;
36650;-28,72;-38,55;-21,9;-7,2;18,1;1,66;5,87;15,5;0;1;
36668;-60,62;-36,69;-15,43;-17,37;23,63;1,75;4,87;14,18;0;0;
36685;-2,83;-39,47;-21,18;-11,75;24,35;1,58;3,9;12,6;0;0;
36705;-24,35;-39,33;-13,02;-13,45;21,74;1,39;3,67;10,29;0;0;
36724;24,68;-38,39;-24,29;-9,76;18,43;1,31;3,66;8,16;0;0;
36745;42,63;-39,46;-21,27;-4,39;22,94;1,45;3,16;7,3;0;0;
36767;-21,51;-36,67;-21,75;-10,17;21,29;1,35;3,01;6,81;0;0;
36798;-47,56;-39,52;-19,06;5,18;16,54;1,45;2,93;5,58;0;0;
36820;-17,73;-38,91;-13,34;-6,67;16,5;1,41;3;4,51;0;0;
36844;-21,59;-39,09;-21,08;-4,75;20,81;1,46;2,79;4,13;0;0;
36863;-40,81;-36,58;-14,53;-8,46;20,18;1,33;2,56;4,02;0;0;
36884;-47,13;-38,9;-16,51;-5,35;21,59;1,37;2,82;3,89;0;0;
36902;-12,4;-41,32;-17,15;-7,45;22,06;1,38;2,59;3,03;0;0;
36920;-36,55;-39,14;-5,73;-2,3;22,16;1,57;3,06;2,95;0;0;
36946;-17,99;-42,15;53,58;-7,05;19,79;1,68;6,16;3,11;0;0;
36964;22,35;-39,65;-40,31;-3,21;21,59;1,77;9,25;3,26;0;0;
36983;-77,05;-39,88;-19,61;-4,83;19,17;1,83;12,62;3,15;0;0;
37001;-31,91;-38,63;-2,66;-4,47;17,84;1,74;16,07;3,73;0;0;
37017;-31,91;-38,63;-2,66;-4,47;19,54;1,66;19,58;4,33;0;0;
37033;-29,61;-39,64;-61,43;-2,5;19,86;1,56;27,08;3,83;0;0;
37050;-21,11;-39,63;-42,92;11,57;20,28;1,41;30,35;4,61;0;0;
37068;-12,92;-40,61;-39,52;-1,65;17,14;1,39;33,69;4,56;0;0;
37089;-24,23;-43,08;116,48;-7,8;11,83;1,45;40,19;4,45;0;0;
37108;-16,04;-39,62;-28,61;-2,54;12,41;1,43;40,99;3,85;0;0;
37126;-22,7;-37,33;3,84;-2,3;10,79;1,58;52,81;3,47;0;0;
37142;-26,75;-43,31;-6,32;-9,54;17,11;1,59;50,13;3,46;0;0;
37160;24,8;-40,97;-60,9;-7,66;20,62;1,8;62,37;2,83;0;0;
37178;24,8;-40,97;-60,9;-7,66;25,78;2,05;67,28;2,97;0;0;
37194;-27,95;-38,67;-43,58;-8,87;23,7;2,05;62,24;3,41;0;0;
37210;6,74;-42,35;19,69;5,24;18,99;1,96;64,98;3,84;0;0;
37229;-25,53;-38,36;-146,77;-0,35;16,35;1,98;67,2;4,49;0;0;
37246;-25,23;-40,75;-57,81;-9,8;11,84;1,91;59,03;4,41;0;0;
37265;-30,68;-37,93;-29,53;-11,47;9,72;1,81;55,56;4,22;0;0;
37284;160,32;-42,35;-12,83;-1,62;13,45;1,89;45,69;4,66;0;0;
37301;-60,57;-40,51;-107,49;-6,25;20,48;1,94;51,66;4,86;0;0;
37319;-60,57;-40,51;-107,49;-6,25;27,1;1,88;57,56;4,68;0;0;
37335;-30,01;-39,78;-16,84;-4,24;27,45;1,95;56,51;4,26;0;0;
37353;-12,14;-36,77;-93,21;-16,14;27,9;1,93;57,18;4,84;0;0;
37371;-18,15;-37,6;-15,36;-7,03;31,25;2,05;53,59;5,12;0;0;
37388;-23,89;-38,15;-132,58;-8,39;19,51;2,06;49,98;4,66;0;0;
37405;-29,3;-37,46;8,33;-5,07;12,82;1,98;46,94;4,59;0;0;
37430;-3,14;-41,14;-33,48;-8,77;14,57;1,75;44,36;4,19;0;0;
37446;-53,91;-40,31;-42,91;-13,91;19,99;1,75;36,94;4,28;0;0;
37467;-28,03;-38,31;53,15;0,99;18,16;1,79;39,81;3,29;0;0;
37485;-15,43;-40,44;0,11;-10,91;16,24;1,55;39,47;3,43;0;0;
37502;-30,85;-37,4;-7,68;-1,6;19,05;1,33;30,93;3,37;0;0;
37518;-30,85;-37,4;-7,68;-1,6;21,47;1,24;28,87;3,15;0;0;
37536;3,89;-35,95;-86,85;-4,03;18,19;1,44;34,86;3,23;0;0;
37555;-26,34;-37,92;-53,87;-6,95;14,45;1,48;33,52;3,08;0;0;
37586;-44,67;-40,71;26,29;-7,04;18,86;1,62;33,7;2,91;0;0;
37603;-20,72;-36,46;-36,17;-8,9;17,3;1,86;36,93;2,93;0;0;
37620;24,72;-42,37;-60,84;1,4;18,87;1,99;42,17;2,92;0;0;
37638;24,72;-42,37;-60,84;1,4;22,49;1,99;46,01;2,88;0;0;
37655;-42,1;-39,27;-79,75;-5,34;21,04;1,84;48,54;3,23;0;0;
37671;-40,01;-38,19;-18,63;-4,5;22,12;1,85;45,78;3,66;0;0;
37689;-24,67;-40,38;23,4;0,07;20,89;1,9;43,54;4,05;0;0;
37708;-14,32;-41,11;-34,45;-5,95;20,79;1,71;47,29;3,99;0;0;
37725;55,53;-38,79;-92,1;-0,81;19,21;1,86;47,07;3,92;0;0;
37742;-10,58;-37,45;43,19;-5,48;21,48;1,75;41,31;4,26;0;0;
37758;-10,58;-37,45;43,19;-5,48;26,69;1,66;38,36;4,78;0;0;
37775;-12,86;-41,98;88,27;0,06;27,15;1,6;40,89;4,77;0;0;
37792;-14,17;-37,43;19,17;-4,45;26,47;1,56;40,63;4,51;0;0;
37808;-51,05;-36,98;12,64;-12,23;29,89;1,66;39,29;4,46;0;0;
37827;-22,37;-43,78;4,86;-4,6;23,55;1,71;37,43;5,13;0;0;
37844;-29,72;-41,97;-9,8;-14,64;17,34;1,78;45,84;4,37;0;0;
37861;-103,71;-36,85;-23,16;-11,81;13,04;1,86;45,27;3,8;0;0;
37881;-40,21;-38,3;-110,96;-4,74;20,16;1,93;44,58;4,06;0;0;
37898;-40,21;-38,3;-110,96;-4,74;26,79;1,85;47,79;4,38;0;0;
37916;-44,92;-35,12;-99,01;-4,22;24,55;1,59;54,51;4,28;0;0;
37935;-20,5;-37,69;-20,67;-6,94;26,64;1,82;55,82;3,68;0;0;
37953;-23,2;-34,99;8,67;-9,85;27,78;1,85;55,81;3,98;0;0;
37971;-19,75;-38,56;52,66;-4,83;23,64;1,86;59,36;4,29;0;0;
37989;-38,77;-40,13;-123,61;-4,71;15,71;1,83;63,65;3,66;0;0;
38006;-33,57;-38,73;-31,6;-9,24;17,3;1,93;67,18;4,14;0;0;
38023;-43,61;-39,6;3,65;-5,88;19,37;1,87;57,52;4,1;0;0;
38050;-21,47;-40,74;-33,89;-2,1;18,5;1,76;58,01;3,93;0;0;
38068;-10,67;-40,63;-36,88;-3,68;18,28;1,68;60,09;3,7;0;0;
38085;-38,02;-38,92;23,3;-5,08;17,79;1,76;58,2;3,45;0;0;
38110;12,99;-34,24;192,41;-9,18;19,59;1,82;55,38;3,14;0;0;
38128;77,11;-38,84;-17,75;6,8;24,34;1,89;57,43;3,23;1;0;
38147;-36,11;-37,92;-38,04;3;24,01;1,82;53,88;3,64;1;0;
38166;-26,7;-38,68;72,18;-6,11;23,57;1,9;55,3;3,71;1;0;
38184;7,45;-38,11;53,47;-13,33;24,56;2;57,6;4,19;1;0;
38212;32,99;-40,25;9,28;-3,58;29,83;2,09;54,36;4,38;1;0;
38231;-82,73;-37,19;-92,46;-0,95;27,85;2,01;49,49;3,97;1;0;
38249;-29,69;-36,59;-34;-6,42;24,34;2,25;51,99;3,26;1;0;
38270;5,08;-38,18;60,04;-2,76;28,02;2,28;51;3,02;1;0;
38288;-67,62;-38,78;11,36;-6,18;31,47;1,97;46,17;2,84;1;0;
38306;-83,62;-38,4;-65,65;-8,43;37,05;1,87;44,63;2,24;1;0;
38324;-73,71;-41,61;-1,81;-5,04;45,09;1,93;46,21;2,22;1;0;
38344;-39,54;-38,63;4,86;-5,74;47,01;1,84;43,92;2,12;1;0;
38364;62,02;-40,25;23,91;-5,91;58,48;1,59;40,01;2,34;1;0;
38382;-56,97;-38,18;-2,52;-8,14;60,92;1,66;41,18;2,1;1;0;
38401;-22,66;-43,68;-7,47;-2,42;57,53;1,66;39,08;1,88;1;0;
38419;-22,66;-43,68;-7,47;-2,42;49,93;1,59;35,37;1,88;1;0;
38434;-75,19;-42,22;-93,65;-4,97;45,32;1,68;34,25;1,98;1;0;
38451;-8,15;-35,97;-20,24;-5,12;44,28;1,57;32,42;2,28;1;0;
38468;-39,26;-42,15;-33,63;-0,89;33,9;1,69;33,39;2,55;1;0;
38487;44,24;-37,93;7,28;-4,99;36,24;1,76;33,51;3,24;0;0;
38505;-14,18;-40,12;38,48;-3,84;40,72;1,78;36,34;3,4;0;0;
38523;-6,06;-40,43;-12,23;-7,89;42,11;1,73;37,15;3,64;0;0;
38544;-17,99;-38,44;5,14;-4,09;35,13;1,86;35,02;3,51;0;0;
38565;-29,36;-33,31;-19,95;-3,27;32,51;2;31,13;3,28;0;0;
38587;-15,65;-40,62;-8,96;-10,77;28,73;1,82;22,2;2,61;0;0;
38609;308,6;-35,97;-10,53;-2,91;37,19;1,82;17,79;2,9;0;0;
38626;27,84;-39,82;-9,83;-8,16;35,83;1,78;12,63;2,55;0;0;
38644;-48,98;-42,95;-17,5;-6,4;38,53;1,7;7,24;2,13;0;0;
38661;-42,33;-41,69;-11,5;-3,36;39,32;1,68;4,93;2,33;0;0;
38685;3,95;-37,38;-15,67;-13,7;39,87;1,75;4,8;3,16;0;0;
38707;-19,02;-40,26;-23,41;-4,98;40,29;1,67;4,49;3,47;0;0;
38723;38,02;-43,75;-17,81;-1,38;27,28;1,78;3,64;3,44;0;0;
38741;-44,13;-39,9;-14,9;-6,03;24,39;1,73;2,66;3,73;0;0;
38758;-44,13;-39,9;-14,9;-6,03;26,68;1,64;2,65;3,66;0;0;
38776;-51,24;-42,92;-17,25;-5,42;30,82;1,76;2,57;3,21;0;0;
38796;122,5;-43,29;-20,39;-6,37;45,74;1,83;2,22;2,81;0;0;
38812;-31,4;-35,97;-10,02;-7,17;46,2;2,02;4,59;2,88;0;0;
38830;17,36;-40,44;-22,99;-4,46;39,91;1,82;4,87;3,1;0;0;
38846;-88,66;-39,67;-31,45;-6,9;41,39;1,75;6,3;3,09;0;0;
38863;-19,7;-40,42;-11,51;-8,58;43,78;1,68;7,07;3,03;0;0;
38879;-19,7;-40,42;-11,51;-8,58;42,39;1,71;7,81;2,88;0;0;
38898;-44,28;-41,26;-23,32;0,62;29,38;1,68;7,16;3,43;0;0;
38917;-21,38;-38,91;-18,97;-6,55;30,69;1,61;6,03;3,16;1;0;
38935;-53,13;-40,23;-14,19;-4,22;28,1;1,92;5,54;2,74;1;0;
38952;19,01;-42,76;-14,42;-6,07;24,79;1,9;3,95;2,58;1;0;
38969;-40,08;-39,6;-38,69;-4,98;19,68;2,02;5,82;2,62;1;0;
38987;-37,2;-38,13;4,53;-8,63;21,68;1,93;9,86;2,11;1;0;
39006;-49,48;-36,51;30,63;-9,8;22,1;1,89;22,48;2,09;1;0;
39024;-68,64;-39,06;-12,02;-5,32;23,39;2,02;28,28;2,35;1;0;
39043;-30,2;-36,11;18,61;-5,31;22,55;1,93;33,45;2,63;1;0;
39062;-37,27;-40,76;-49,49;-7,31;21,09;1,84;42,2;2,85;1;0;
39084;-17,06;-41;-175,02;-20,02;25,61;2;50,9;3,46;1;0;
39104;-16,73;-35,84;-129,57;-8,68;23,21;2,24;53,67;3,69;0;0;
39124;28,49;-39,26;29,34;0,95;28,64;2,21;49,58;3,85;0;0;
39150;-40,91;-39,28;-105,18;-7,44;26,32;2,11;49,49;4,24;0;0;
39171;-35,95;-38,9;-65,77;-5;26,86;1,9;49,05;4,15;0;0;
39190;-57,19;-37,82;-136,48;-11,76;26,54;2,02;53,01;4,63;0;0;
39209;-12,75;-40,48;-109,79;3,34;22,03;1,83;50,63;3,92;0;0;
39228;-32,37;-38,55;-81,71;-11,31;17,93;1,69;53,15;4,82;0;0;
39245;-37,87;-39,17;36,76;-7,42;12,45;1,77;55,91;4,45;0;0;
39262;26,24;-43,17;7,82;-5,18;15,46;2,24;67,01;4,38;0;0;
39278;26,24;-43,17;7,82;-5,18;18,81;2,62;74,79;4,23;0;0;
39295;7,5;-39,88;100,79;-9,11;19,52;2,71;72,11;4,45;0;0;
39315;13,33;-37,92;-35,16;-6,89;27,43;2,54;66,07;3,85;0;0;
39332;-74,73;-41,62;29,26;-4,15;32,43;2,54;66,53;3,67;0;0;
39357;-53,25;-39,99;11,96;-1,54;32,99;2,54;59,89;3,46;0;0;
39381;-26,77;-40,37;15,1;-3,1;30,99;2,19;52,31;3,8;0;0;
39399;-26,77;-40,37;15,1;-3,1;28,59;1,89;49,47;4,24;0;0;
39418;-7,72;-38,59;-8,03;-12,9;26,03;2,1;37,67;5,05;0;0;
39436;-32,66;-39,62;-15,18;12,8;21,63;2,4;32,2;5,93;0;0;
39463;-22,57;-40,38;-16,04;-8,14;24,29;2,23;23,38;5,37;0;0;
39485;86,94;-39,81;-53,65;-8,75;34,08;2,06;18,41;5,18;0;0;
39504;-21,38;-40,25;-3,08;-5,51;39,31;1,9;12,7;4,49;0;0;
39521;-81,09;-39,39;-11;-3,49;41,45;1,88;8,54;3,78;0;0;
39538;-81,09;-39,39;-11;-3,49;44,37;1,79;10,33;3,06;0;0;
39558;-49,27;-35,87;-8,05;-9,36;47,36;1,92;10,44;2,48;0;0;
39574;-11,54;-38,09;-46,89;-3,52;41,17;2,11;12,01;2,66;0;0;
39595;-8,51;-40,8;19,6;-9,75;27,86;2,17;17,96;2,8;0;0;
39612;-28,39;-42,67;-12,55;-10,69;27,87;2,15;19,93;2,62;0;0;
39631;-38,56;-40,6;-16,48;-9,18;23,79;1,99;19,44;2,29;0;0;
39647;61,1;-40,99;-126,9;-2,2;30,65;1,7;23,1;2,44;0;0;
39664;-41,04;-35,58;-19,91;-8,15;29;1,51;23,46;2,31;0;0;
39681;-17,41;-38,65;-19,9;-9,57;31,04;1,55;18,74;2,04;0;0;
39697;-17,41;-38,65;-19,9;-9,57;33,07;1,55;13,11;1,93;0;0;
39714;13,67;-37,68;-15,58;-3,02;35,87;1,72;8,97;2,04;0;0;
39732;15,49;-40,79;-19,52;-7,73;42,4;2,01;7,43;2,15;0;0;
39750;-61,05;-38,1;-13,33;-7,14;33,46;2,02;3,26;2,12;0;0;
39768;-44,99;-40,88;-21,9;-8,3;31,75;1,94;2,71;2,34;0;0;
39787;-48,81;-40,62;-18,14;-3,24;34,19;1,93;2,44;2,44;0;0;
39806;-26,04;-39,88;-18,39;-13,27;34,04;2,02;2,38;2,72;0;0;
39824;40,1;-39,83;-12,98;-2,87;32,92;1,8;2,17;2,7;0;0;
39842;40,1;-39,83;-12,98;-2,87;31,97;1,55;2,25;2,86;0;0;
39859;40,1;-39,83;-12,98;-2,87;33,77;1,5;2,14;2,76;0;0;
39878;-50,32;-38,3;-16,1;-5,46;35,78;1,52;2,27;2,77;0;0;
39895;187,2;-40,8;-13,35;-6,44;42,49;1,47;2,53;2,65;0;0;
39915;-101,76;-38,69;-14,53;-6,91;42,45;1,37;2,37;2,55;0;0;
39944;-5,95;-34,94;-14,3;-10,47;40,7;1,68;2,13;2,57;0;0;
39961;-33,52;-36,46;-50,14;-5,75;36,08;1,88;2,94;2,39;0;0;
39977;-33,52;-36,46;-50,14;-5,75;30,71;1,97;3,72;2,18;0;0;
39994;-61,99;-38,09;36,65;-13,56;32,33;2,1;10,98;2,43;0;0;
40011;-17,86;-40,24;-99,82;-12,45;26,47;1,98;24,75;2,89;0;0;
40030;-113,01;-40,14;-112,43;-13,26;33,78;1,84;41,02;3,29;0;0;
40047;10,42;-38,9;-36,92;-4,81;34,84;1,79;45,09;3,24;0;0;
40067;1,09;-37,4;-112,52;-14,45;36,44;1,78;51,61;3,44;0;0;
40094;-11,42;-44,29;3,8;-7,08;35,74;1,75;54,89;3,73;0;0;
40114;-3,02;-36,94;132,08;-4,49;36,31;1,94;57,63;3,93;0;0;
40136;-62,59;-35,26;69,84;-9,59;31,11;2,03;52,99;3,88;0;0;
40159;-67,15;-37,09;115,89;-5,89;30,22;2,02;59,85;3,71;0;0;
40175;-17,68;-35,45;17,75;-9,63;28,86;2,13;66,89;3,9;0;0;
40192;-21,28;-37,97;-73,49;-5,47;26,21;2,26;69,18;3,91;0;0;
40212;-8,9;-36,66;1,66;-5,94;22,05;1,99;75,3;3,94;0;0;
40230;-35,59;-38,75;-75,01;-6,98;22,74;1,75;70,31;3,63;0;0;
40251;20,38;-32,62;-70,98;-5,81;22,28;2,01;67,9;3,17;0;0;
40273;-29,44;-40,4;123,13;-2,98;18,37;1,96;65,3;3,64;0;0;
40292;-19,45;-36,59;-6,28;-5,58;18,54;1,77;54,61;4,05;0;0;
40317;13,76;-34,84;-63,84;1,16;20,35;1,74;57,25;4,49;0;0;
40335;-124,57;-40,06;-62,8;-3,02;20,69;2,1;56,06;4,67;0;0;
40353;-30,11;-38,76;78,63;-10,45;19,49;2,41;53,97;4,73;0;0;
40370;-51,89;-38,03;-14,62;-5,21;14,37;2,13;51,07;4,68;0;0;
