Time;EMG1;EMG2;EMG3;EMG4;EMG1_F;EMG2_F;EMG3_F;EMG4_F;Note_R;Note_V;;Level 1;Joueur;Score;Notes hit;% Reussite R;Offset EMG1;Onset EMG1;% Reussite V;Offset EMG2;Onset EMG2
11;-10,97;-7,75;-10,97;-7,75;1,89;1,56;1,89;1,56;0;0;;;1;33100;147;84,42623;-16,29749;127,4297;88;-7,272938;42,45286
33;-18,97;-7,05;-18,97;-7,05;1,94;1,61;1,94;1,61;0;0;;;2;32800;146;83,60656;-16,29749;127,4297;88;-7,272938;42,45207
52;-14,94;-7,12;-14,94;-7,12;1,91;1,73;1,91;1,73;0;0;
69;-13,66;-7,78;-13,66;-7,78;1,87;1,93;1,87;1,93;0;0;
85;-13,66;-7,78;-13,66;-7,78;1,76;2,02;1,76;2,02;0;0;
102;-21,13;-8,5;-21,13;-8,5;1,93;2,03;1,93;2,03;0;0;
121;-18,15;-7,4;-18,15;-7,4;1,85;1,92;1,85;1,92;0;0;
141;-18,16;-10,36;-18,16;-10,36;1,89;1,82;1,89;1,82;0;0;
161;-18,84;-4,11;-18,84;-4,11;2;1,98;2;1,98;0;0;
181;-19,64;-7,05;-19,64;-7,05;2,06;1,94;2,06;1,94;0;0;
200;-12,46;-5,72;-12,46;-5,72;2,24;1,77;2,24;1,77;0;0;
219;-21,05;-5,73;-21,05;-5,73;2,2;1,98;2,2;1,98;0;0;
236;-13,96;-6,17;-13,96;-6,17;2,27;2,05;2,27;2,05;0;0;
256;-17,22;-6,86;-17,22;-6,86;2,23;2,2;2,23;2,2;0;0;
274;-14,13;-7,49;-14,13;-7,49;2,03;2,03;2,03;2,03;0;0;
296;-18,68;-8,41;-18,68;-8,41;1,88;2,06;1,88;2,06;0;0;
315;-14,88;-7,56;-14,88;-7,56;1,86;2,1;1,86;2,1;0;0;
336;-14,1;-6,07;-14,1;-6,07;1,71;2,13;1,71;2,13;0;0;
354;-14,14;-9,01;-14,14;-9,01;1,84;2,06;1,84;2,06;0;0;
372;-18,85;-9,11;-18,85;-9,11;1,82;2,01;1,82;2,01;0;0;
388;-15,31;-10;-15,31;-10;2;2,14;2;2,14;0;0;
405;-15,31;-10;-15,31;-10;1,92;2,05;1,92;2,05;0;0;
423;-18,62;-4,31;-18,62;-4,31;1,95;2,13;1,95;2,13;0;0;
440;-13,87;-7,35;-13,87;-7,35;2,03;2,14;2,03;2,14;0;0;
459;-18,78;-7,68;-18,78;-7,68;2,03;2,11;2,03;2,11;0;0;
478;-19,23;-5,4;-19,23;-5,4;2,11;1,95;2,11;1,95;0;0;
497;-17,06;-7,4;-17,06;-7,4;2,14;2,02;2,14;2,02;0;0;
516;-14,52;-5,95;-14,52;-5,95;2,15;1,94;2,15;1,94;0;0;
531;-18,24;-10,6;-18,24;-10,6;2,11;1,86;2,11;1,86;0;0;
550;-17,28;-10,98;-17,28;-10,98;2,27;1,9;2,27;1,9;0;0;
567;-17,28;-10,98;-17,28;-10,98;2,46;2,12;2,46;2,12;0;0;
583;-12,56;-7,58;-12,56;-7,58;2,47;2,07;2,47;2,07;0;0;
602;-17,21;-10,72;-17,21;-10,72;2,48;2;2,48;2;0;0;
621;-14,5;-3,98;-14,5;-3,98;2,49;2,32;2,49;2,32;0;0;
638;-18,16;-8,96;-18,16;-8,96;2,34;2,16;2,34;2,16;0;0;
657;-11,97;-9,39;-11,97;-9,39;2,24;2,09;2,24;2,09;0;0;
675;-20,14;-4,35;-20,14;-4,35;2,27;2,02;2,27;2,02;0;0;
693;-16,64;-6,07;-16,64;-6,07;2,27;2,09;2,27;2,09;0;0;
711;-14,99;-6,25;-14,99;-6,25;2,25;1,9;2,25;1,9;0;0;
728;-14,99;-6,25;-14,99;-6,25;2,21;1,74;2,21;1,74;0;0;
746;-19,71;-7,43;-19,71;-7,43;2,24;1,78;2,24;1,78;0;0;
764;-16,87;-4,4;-16,87;-4,4;2,13;1,84;2,13;1,84;0;0;
783;-18,96;-11,1;-18,96;-11,1;1,95;1,98;1,95;1,98;0;0;
801;-16,1;-9,02;-16,1;-9,02;2,05;2,02;2,05;2,02;0;0;
818;-12,55;-6,75;-12,55;-6,75;2,29;2,02;2,29;2,02;0;0;
835;-16,82;-5,34;-16,82;-5,34;2,23;1,98;2,23;1,98;0;0;
855;-16,71;-7,4;-16,71;-7,4;2,34;1,93;2,34;1,93;0;0;
873;-16,73;-5,43;-16,73;-5,43;2,41;1,85;2,41;1,85;0;0;
889;-19,03;-11,16;-19,03;-11,16;2,34;1,76;2,34;1,76;0;0;
908;-19,03;-11,16;-19,03;-11,16;2,33;1,95;2,33;1,95;0;0;
925;-14,25;-10,37;-14,25;-10,37;2,11;1,99;2,11;1,99;0;0;
943;-19,52;-8,13;-19,52;-8,13;2,06;2,13;2,06;2,13;0;0;
964;-13,28;-6,21;-13,28;-6,21;1,76;2;1,76;2;0;0;
982;-13,65;-5,64;-13,65;-5,64;1,68;1,98;1,68;1,98;0;0;
1000;-17,86;-7,68;-17,86;-7,68;1,73;1,8;1,73;1,8;0;0;
1018;-17,95;-5,01;-17,95;-5,01;1,81;1,84;1,81;1,84;0;0;
1035;-12,31;-3,02;-12,31;-3,02;1,9;1,83;1,9;1,83;0;0;
1054;-14,18;-4,96;-14,18;-4,96;2,09;1,8;2,09;1,8;0;0;
1070;-19,24;-11,22;-19,24;-11,22;2,11;1,8;2,11;1,8;0;0;
1087;-19,24;-11,22;-19,24;-11,22;2,02;1,87;2,02;1,87;0;0;
1106;-16,56;-2,84;-16,56;-2,84;1,93;1,72;1,93;1,72;0;0;
1124;-15,72;-6,66;-15,72;-6,66;2,07;1,71;2,07;1,71;0;0;
1141;-11,01;-5,97;-11,01;-5,97;1,94;2,04;1,94;2,04;0;0;
1159;-18,1;-5,69;-18,1;-5,69;1,97;2;1,97;2;0;0;
1179;-16,96;-4,32;-16,96;-4,32;1,95;1,88;1,95;1,88;0;0;
1196;-16,5;-9,98;-16,5;-9,98;2,02;1,91;2,02;1,91;0;0;
1214;-14,13;-13,77;-14,13;-13,77;1,95;2,01;1,95;2,01;0;0;
1234;-18,96;-4,58;-18,96;-4,58;1,76;1,98;1,76;1,98;0;0;
1252;-17,16;-6,88;-17,16;-6,88;1,67;1,95;1,67;1,95;0;0;
1269;-15,2;-5,52;-15,2;-5,52;1,63;2,09;1,63;2,09;0;0;
1286;-15,2;-5,52;-15,2;-5,52;1,47;2,25;1,47;2,25;0;0;
1302;-14,21;-12,19;-14,21;-12,19;1,58;2,19;1,58;2,19;0;0;
1320;-15,59;-6,45;-15,59;-6,45;1,65;1,96;1,65;1,96;0;0;
1340;-16,05;-14,3;-16,05;-14,3;1,65;2,05;1,65;2,05;0;0;
1358;-19,2;-4,93;-19,2;-4,93;1,62;2,24;1,62;2,24;0;0;
1376;-17,29;-10,13;-17,29;-10,13;1,62;2,25;1,62;2,25;0;0;
1392;-16,69;-6,83;-16,69;-6,83;1,62;2,22;1,62;2,22;0;0;
1410;-17,27;-8,57;-17,27;-8,57;1,55;2,12;1,55;2,12;0;0;
1430;-17,02;-4,09;-17,02;-4,09;1,66;2,18;1,66;2,18;0;0;
1446;-17,02;-4,09;-17,02;-4,09;1,77;2,03;1,77;2,03;0;0;
1463;-13,12;-4,89;-13,12;-4,89;1,88;2,01;1,88;2,01;0;0;
1482;-19,56;-8,03;-19,56;-8,03;2,11;1,96;2,11;1,96;0;0;
1500;-13,3;-7,1;-13,3;-7,1;2,21;1,91;2,21;1,91;0;0;
1518;-19,55;-8,04;-19,55;-8,04;2,18;1,88;2,18;1,88;0;0;
1536;-14,63;-8,76;-14,63;-8,76;2,24;1,76;2,24;1,76;0;0;
1556;-21,05;-7,69;-21,05;-7,69;2,2;1,59;2,2;1,59;0;0;
1573;-16,12;-8;-16,12;-8;2,13;1,51;2,13;1,51;0;0;
1590;-19,11;-8,33;-19,11;-8,33;2,09;1,53;2,09;1,53;0;0;
1606;-19,11;-8,33;-19,11;-8,33;1,95;1,44;1,95;1,44;0;0;
1622;-14,35;-8,38;-14,35;-8,38;2,14;1,49;2,14;1,49;0;0;
1639;-16,42;-5,91;-16,42;-5,91;1,92;1,42;1,92;1,42;0;0;
1656;-15,52;-8,74;-15,52;-8,74;1,92;1,45;1,92;1,45;0;0;
1675;-19,13;-4,75;-19,13;-4,75;2;1,47;2;1,47;0;0;
1695;-20,04;-2,82;-20,04;-2,82;2,33;1,59;2,33;1,59;0;0;
1710;-20,04;-2,82;-20,04;-2,82;2,59;1,78;2,59;1,78;0;0;
1727;-20,04;-2,82;-20,04;-2,82;2,73;1,8;2,73;1,8;0;0;
1744;-18,39;-4,41;-18,39;-4,41;2,55;1,94;2,55;1,94;0;0;
1761;-17,96;-8,66;-17,96;-8,66;2,45;1,95;2,45;1,95;0;0;
1779;-16,28;-8,28;-16,28;-8,28;2,38;2,02;2,38;2,02;0;0;
1797;-13,37;-5,87;-13,37;-5,87;2,25;2,1;2,25;2,1;0;0;
1814;-18,2;-8,57;-18,2;-8,57;2,07;2,06;2,07;2,06;0;0;
1831;-14,8;-6,94;-14,8;-6,94;1,97;1,92;1,97;1,92;0;0;
1850;-14,8;-6,94;-14,8;-6,94;1,94;1,94;1,94;1,94;0;0;
1869;-17,45;-5,81;-17,45;-5,81;2,03;1,87;2,03;1,87;0;0;
1885;-17,45;-5,81;-17,45;-5,81;2,02;1,71;2,02;1,71;0;0;
1902;-18,71;-6,3;-18,71;-6,3;2,12;1,62;2,12;1,62;0;0;
1919;-13,83;-3,36;-13,83;-3,36;2,42;1,61;2,42;1,61;0;0;
1940;-15,76;-8,26;-15,76;-8,26;2,56;1,55;2,56;1,55;0;0;
1956;-17,93;-7,16;-17,93;-7,16;2,49;1,63;2,49;1,63;0;0;
1975;-15,85;-6,7;-15,85;-6,7;2,49;1,64;2,49;1,64;0;0;
1994;-14,71;-9,06;-14,71;-9,06;2,45;1,7;2,45;1,7;0;0;
2012;-11,53;-10,09;-11,53;-10,09;2,39;1,79;2,39;1,79;0;0;
2035;-14,67;-3,56;-14,67;-3,56;2,16;1,72;2,16;1,72;0;0;
2053;-15,22;-11,26;-15,22;-11,26;2,35;1,78;2,35;1,78;0;0;
2072;-14,57;-6,11;-14,57;-6,11;2,26;1,71;2,26;1,71;0;0;
2089;-15,87;-7,05;-15,87;-7,05;2,12;1,92;2,12;1,92;0;0;
2107;-15,87;-7,05;-15,87;-7,05;1,88;1,96;1,88;1,96;0;0;
2123;-14,57;-7,91;-14,57;-7,91;1,82;1,82;1,82;1,82;0;0;
2142;-13,08;-7,25;-13,08;-7,25;1,95;1,75;1,95;1,75;0;0;
2160;-18,71;-5,92;-18,71;-5,92;1,89;1,72;1,89;1,72;0;0;
2178;-13,15;-8;-13,15;-8;2,36;1,64;2,36;1,64;0;0;
2197;-14,96;-7,91;-14,96;-7,91;2,48;1,53;2,48;1,53;0;0;
2215;-18,23;-6,31;-18,23;-6,31;2,5;1,62;2,5;1,62;0;0;
2234;-16,77;-9,1;-16,77;-9,1;2,44;1,75;2,44;1,75;0;0;
2254;-14,84;-5,49;-14,84;-5,49;2,26;1,76;2,26;1,76;0;0;
2272;-20,57;-4,74;-20,57;-4,74;2,16;1,85;2,16;1,85;0;0;
2289;-15,89;-6,58;-15,89;-6,58;1,69;1,95;1,69;1,95;0;0;
2307;-15,89;-6,58;-15,89;-6,58;1,55;2,04;1,55;2,04;0;0;
2326;-11,94;-10,1;-11,94;-10,1;1,53;2;1,53;2;0;0;
2344;-21,19;-8,64;-21,19;-8,64;1,57;1,99;1,57;1,99;0;0;
2361;-15,36;-4,46;-15,36;-4,46;1,67;1,95;1,67;1,95;0;0;
2378;-14,07;-12,56;-14,07;-12,56;1,69;1,77;1,69;1,77;0;0;
2396;-14,8;-11,07;-14,8;-11,07;1,71;1,77;1,71;1,77;0;0;
2413;-13,96;-6,98;-13,96;-6,98;1,59;1,81;1,59;1,81;0;0;
2432;-15,84;-10,34;-15,84;-10,34;1,53;1,92;1,53;1,92;0;0;
2449;-14,75;-13,26;-14,75;-13,26;1,42;1,91;1,42;1,91;0;0;
2466;-14,75;-13,26;-14,75;-13,26;1,38;1,96;1,38;1,96;0;0;
2484;-13,53;-8,25;-13,53;-8,25;1,45;2;1,45;2;0;0;
2500;-13,21;-6,17;-13,21;-6,17;1,42;1,75;1,42;1,75;0;0;
2516;-15,73;-8,91;-15,73;-8,91;1,59;1,68;1,59;1,68;0;0;
2535;-16,71;-6,93;-16,71;-6,93;1,72;1,7;1,72;1,7;0;0;
2554;-12,99;-7,82;-12,99;-7,82;1,73;1,62;1,73;1,62;0;0;
2570;-9,18;-8,85;-9,18;-8,85;1,94;1,46;1,94;1,46;0;0;
2588;-9,18;-8,85;-9,18;-8,85;2,18;1,45;2,18;1,45;0;0;
2604;-12,09;-12,14;-12,09;-12,14;2,22;1,8;2,22;1,8;0;0;
2621;-17,63;-5,7;-17,63;-5,7;2,16;1,83;2,16;1,83;0;0;
2638;-13,05;-9,17;-13,05;-9,17;2,06;2,09;2,06;2,09;0;0;
2655;-19,04;-3,08;-19,04;-3,08;2,06;2,27;2,06;2,27;0;0;
2675;-13,2;-8,5;-13,2;-8,5;1,9;2,38;1,9;2,38;0;0;
2691;-20,06;-5,8;-20,06;-5,8;1,65;2,3;1,65;2,3;0;0;
2710;-14,56;-6,9;-14,56;-6,9;1,72;1,92;1,72;1,92;0;0;
2728;-17,09;-6,39;-17,09;-6,39;1,74;1,87;1,74;1,87;0;0;
2746;-17,09;-6,39;-17,09;-6,39;1,87;1,71;1,87;1,71;0;0;
2764;-15,9;-8,18;-15,9;-8,18;1,9;1,72;1,9;1,72;0;0;
2782;-17,72;-7,15;-17,72;-7,15;1,9;1,74;1,9;1,74;0;0;
2799;-16,45;-8,36;-16,45;-8,36;1,92;1,83;1,92;1,83;0;0;
2818;-17,28;-6,87;-17,28;-6,87;1,81;1,79;1,81;1,79;0;0;
2834;-15,39;-6,43;-15,39;-6,43;1,8;1,89;1,8;1,89;0;0;
2853;-15,24;-6,24;-15,24;-6,24;1,82;1,72;1,82;1,72;0;0;
2870;-10,82;-6,88;-10,82;-6,88;2,16;1,88;2,16;1,88;0;0;
2885;-10,82;-6,88;-10,82;-6,88;2,3;2,04;2,3;2,04;0;0;
2901;-16,83;-5,09;-16,83;-5,09;2,34;1,96;2,34;1,96;0;0;
2919;-12,58;-5,58;-12,58;-5,58;2,63;1,83;2,63;1,83;0;0;
2937;-17,75;-8,79;-17,75;-8,79;2,77;1,68;2,77;1,68;0;0;
2954;-16,14;-6,49;-16,14;-6,49;2,75;1,7;2,75;1,7;0;0;
2970;-16,34;-9,02;-16,34;-9,02;2,45;1,43;2,45;1,43;0;0;
2991;-17,44;-11,46;-17,44;-11,46;2,21;1,28;2,21;1,28;0;0;
3008;-17,44;-11,46;-17,44;-11,46;2,15;1,4;2,15;1,4;0;0;
3024;-17,69;-5,7;-17,69;-5,7;2,03;1,53;2,03;1,53;0;0;
3041;-18,41;-5,28;-18,41;-5,28;2;1,46;2;1,46;0;0;
3059;-16,44;-3,79;-16,44;-3,79;2,03;1,57;2,03;1,57;0;0;
3077;-14,92;-6,42;-14,92;-6,42;2,03;1,51;2,03;1,51;0;0;
3094;-17,64;-5,7;-17,64;-5,7;1,91;1,41;1,91;1,41;0;0;
3112;-17,26;-5,27;-17,26;-5,27;1,77;1,45;1,77;1,45;0;0;
3129;-12,49;-7,11;-12,49;-7,11;1,71;1,45;1,71;1,45;0;0;
3145;-12,49;-7,11;-12,49;-7,11;1,61;1,55;1,61;1,55;0;0;
3164;-12,82;-8,99;-12,82;-8,99;1,52;1,47;1,52;1,47;0;0;
3182;-13,46;-4,72;-13,46;-4,72;1,53;1,61;1,53;1,61;0;0;
3199;-19,8;-5,93;-19,8;-5,93;1,66;1,65;1,66;1,65;0;0;
3218;-20,1;-6,95;-20,1;-6,95;1,85;1,55;1,85;1,55;0;0;
3237;-17,41;-6,89;-17,41;-6,89;1,91;1,61;1,91;1,61;0;0;
3255;-18,07;-9,26;-18,07;-9,26;1,85;1,78;1,85;1,78;0;0;
3273;-13,72;-8;-13,72;-8;1,88;1,62;1,88;1,62;0;0;
3291;-18,94;-7,76;-18,94;-7,76;1,98;1,58;1,98;1,58;0;0;
3307;-18,94;-7,76;-18,94;-7,76;1,92;1,59;1,92;1,59;0;0;
3324;-15,09;-5,54;-15,09;-5,54;2,19;1,67;2,19;1,67;0;0;
3341;-19,81;-8,37;-19,81;-8,37;2,14;1,44;2,14;1,44;0;0;
3358;-14,8;-8,38;-14,8;-8,38;2,27;1,66;2,27;1,66;0;0;
3375;-17,87;-8,03;-17,87;-8,03;2,46;1,68;2,46;1,68;0;0;
3394;-13,35;-5,9;-13,35;-5,9;2,51;1,76;2,51;1,76;0;0;
3411;-14,43;-4,73;-14,43;-4,73;2,26;2;2,26;2;0;0;
3428;-17,44;-6,79;-17,44;-6,79;2,1;2,1;2,1;2,1;0;0;
3447;-17,44;-6,79;-17,44;-6,79;2,02;2,03;2,02;2,03;0;0;
3465;-19,14;-3,1;-19,14;-3,1;2,04;2,21;2,04;2,21;0;0;
3485;-18,12;-6,91;-18,12;-6,91;1,84;2,28;1,84;2,28;0;0;
3502;-17,43;-6,33;-17,43;-6,33;1,82;2,29;1,82;2,29;0;0;
3521;-17,84;-7,44;-17,84;-7,44;1,79;2,11;1,79;2,11;0;0;
3540;-16,12;-4,01;-16,12;-4,01;1,88;2,01;1,88;2,01;1;0;
3560;-16,96;-8,87;-16,96;-8,87;1,75;2,1;1,75;2,1;1;0;
3578;-16,7;-12,56;-16,7;-12,56;1,62;1,95;1,62;1,95;1;0;
3597;-16,8;-8,38;-16,8;-8,38;1,85;1,95;1,85;1,95;1;0;
3615;-12,77;-2,46;-12,77;-2,46;2,02;1,85;2,02;1,85;1;0;
3633;-16,13;-4,24;-16,13;-4,24;2;1,92;2;1,92;1;0;
3651;-50,74;-10,74;-50,74;-10,74;3,31;1,89;3,31;1,89;1;0;
3668;-221,21;1,07;-221,21;1,07;26,54;2,65;26,54;2,65;1;0;
3685;-221,21;1,07;-221,21;1,07;49,78;3,32;49,78;3,32;1;0;
3701;-193,89;-5,61;-193,89;-5,61;59,94;3,88;59,94;3,88;1;0;
3718;-193,25;-6,24;-193,25;-6,24;99,67;4,22;99,67;4,22;1;0;
3739;-55,9;-16,18;-55,9;-16,18;130,76;5,25;130,76;5,25;1;0;
3768;232,21;-3,51;232,21;-3,51;162,77;5,91;162,77;5,91;0;0;
4037;21,75;-2,13;21,75;-2,13;141,71;5,24;141,71;5,24;0;0;
4141;-1,35;-8,03;-1,35;-8,03;103,45;4,01;103,45;4,01;0;0;
4200;89,97;-4,01;89,97;-4,01;86,04;3,54;86,04;3,54;0;0;
4245;-11,8;-10,85;-11,8;-10,85;27,02;2,25;27,02;2,25;0;0;
4310;-14,05;-4,6;-14,05;-4,6;24,23;2,14;24,23;2,14;0;0;
4370;-18,63;-5,68;-18,63;-5,68;20,33;2,12;20,33;2,12;0;0;
4412;-14,03;-12,7;-14,03;-12,7;15,89;2,22;15,89;2,22;0;0;
4464;-17,45;-8,21;-17,45;-8,21;4,15;1,8;4,15;1,8;0;0;
4502;-17,65;-2,01;-17,65;-2,01;2,38;1,9;2,38;1,9;0;0;
4532;-14,65;-6,54;-14,65;-6,54;2,14;1,78;2,14;1,78;0;0;
4557;-16,65;-9,02;-16,65;-9,02;1,99;1,56;1,99;1,56;0;0;
4584;-14,92;-6,24;-14,92;-6,24;1,82;1,46;1,82;1,46;0;0;
4638;-13,37;-9,38;-13,37;-9,38;1,91;1,6;1,91;1,6;0;0;
4675;-14,82;-6,3;-14,82;-6,3;1,93;1,59;1,93;1,59;0;0;
4725;-15,62;-5,69;-15,62;-5,69;1,97;1,63;1,97;1,63;0;0;
4757;-18,76;-3,39;-18,76;-3,39;2,09;1,85;2,09;1,85;0;0;
4777;-18,73;-6,56;-18,73;-6,56;2,43;1,95;2,43;1,95;0;0;
4817;-17,53;-8,39;-17,53;-8,39;2,32;1,95;2,32;1,95;0;0;
4853;-15,37;-6,26;-15,37;-6,26;2,08;2;2,08;2;0;0;
4870;-12;-6,78;-12;-6,78;2,01;1,87;2,01;1,87;0;0;
4907;-16,65;-7,48;-16,65;-7,48;1,87;1,86;1,87;1,86;0;0;
4943;-17,01;-7,42;-17,01;-7,42;1,6;1,71;1,6;1,71;0;0;
4971;-11,82;-5,71;-11,82;-5,71;1,51;1,66;1,51;1,66;0;0;
5003;-12,89;-9,61;-12,89;-9,61;1,65;1,5;1,65;1,5;0;0;
5033;-15,07;-5,93;-15,07;-5,93;1,79;1,77;1,79;1,77;0;0;
5051;-17,85;-6,93;-17,85;-6,93;1,82;1,72;1,82;1,72;0;0;
5079;-18,48;-6,07;-18,48;-6,07;1,95;1,79;1,95;1,79;0;0;
5106;-17,76;-10,37;-17,76;-10,37;1,74;1,8;1,74;1,8;0;0;
5123;-14,56;-3,88;-14,56;-3,88;1,92;1,8;1,92;1,8;0;0;
5148;-10,14;-6,37;-10,14;-6,37;1,94;1,8;1,94;1,8;0;0;
5166;-16,04;-9,62;-16,04;-9,62;2,09;1,87;2,09;1,87;0;0;
5201;-15,65;-9,47;-15,65;-9,47;2,17;2,03;2,17;2,03;0;0;
5220;-15,65;-9,47;-15,65;-9,47;2,19;2,05;2,19;2,05;0;0;
5248;-13,94;-7,64;-13,94;-7,64;2,4;2,17;2,4;2,17;0;0;
5266;-16,86;-4,43;-16,86;-4,43;2,48;2,01;2,48;2,01;0;0;
5291;-15,61;-8,17;-15,61;-8,17;2,2;2,03;2,2;2,03;0;0;
5320;-10,88;-6,12;-10,88;-6,12;2,25;1,95;2,25;1,95;0;0;
5339;-10,88;-6,12;-10,88;-6,12;2,34;1,85;2,34;1,85;0;0;
5365;-16,07;-5,62;-16,07;-5,62;2,45;1,98;2,45;1,98;0;0;
5382;-17,33;-10,76;-17,33;-10,76;2,47;2;2,47;2;0;0;
5399;-17,33;-10,76;-17,33;-10,76;2,7;2,12;2,7;2,12;0;0;
5416;-16,73;-5,96;-16,73;-5,96;2,73;2,07;2,73;2,07;0;0;
5434;-17,63;-7,92;-17,63;-7,92;2,56;1,99;2,56;1,99;0;0;
5463;-15,92;-5,56;-15,92;-5,56;2,32;1,89;2,32;1,89;0;0;
5484;-11,34;-10,33;-11,34;-10,33;2,1;1,78;2,1;1,78;0;0;
5521;-14,92;-10,03;-14,92;-10,03;1,9;1,77;1,9;1,77;0;0;
5537;-14,92;-10,03;-14,92;-10,03;1,77;1,85;1,77;1,85;0;0;
5566;-19,94;-8,13;-19,94;-8,13;1,64;1,96;1,64;1,96;0;0;
5584;-15,46;-9,38;-15,46;-9,38;1,74;2;1,74;2;0;0;
5610;-15,76;-8,71;-15,76;-8,71;1,98;2;1,98;2;0;0;
5637;-13,63;-8,43;-13,63;-8,43;2,04;1,96;2,04;1,96;0;0;
5655;-14,93;-8,41;-14,93;-8,41;2,27;2,08;2,27;2,08;0;0;
5673;-17,52;-11,09;-17,52;-11,09;2,18;1,95;2,18;1,95;0;0;
5691;-20,5;-5,53;-20,5;-5,53;2,43;2,05;2,43;2,05;0;0;
5709;-20,5;-5,53;-20,5;-5,53;2,55;2,27;2,55;2,27;0;0;
5728;-15,2;-8,39;-15,2;-8,39;2,47;2,4;2,47;2,4;0;0;
5746;-13,94;-6,45;-13,94;-6,45;2,37;2,19;2,37;2,19;0;0;
5764;-21,83;-10,09;-21,83;-10,09;2,51;2,23;2,51;2,23;0;0;
5783;-14,54;-5,43;-14,54;-5,43;2,66;2,35;2,66;2,35;0;0;
5809;-15,99;-8,63;-15,99;-8,63;2,51;2,29;2,51;2,29;0;0;
5827;-17,09;-10,73;-17,09;-10,73;2,2;2,18;2,2;2,18;1;0;
5846;-14,91;-12,42;-14,91;-12,42;2,22;2,34;2,22;2,34;1;0;
5864;29,72;-3,21;29,72;-3,21;5,05;2,39;5,05;2,39;1;0;
5881;-208,87;-6,5;-208,87;-6,5;15,33;2,48;15,33;2,48;1;0;
5898;-208,87;-6,5;-208,87;-6,5;25,88;2,56;25,88;2,56;1;0;
5915;124,59;-15,35;124,59;-15,35;43,01;3,13;43,01;3,13;1;0;
5932;-11,58;-6,66;-11,58;-6,66;73,85;3,73;73,85;3,73;1;0;
5950;-22,27;-3,7;-22,27;-3,7;94,48;4,24;94,48;4,24;1;0;
5967;133,34;-0,99;133,34;-0,99;115,01;4,65;115,01;4,65;1;0;
5987;-180,05;-5,15;-180,05;-5,15;129,09;4,87;129,09;4,87;1;0;
6006;-281,39;-9,64;-281,39;-9,64;127,39;4,8;127,39;4,8;0;0;
6027;155,2;-4,08;155,2;-4,08;124,33;4,13;124,33;4,13;0;0;
6047;156,28;-5,17;156,28;-5,17;137,83;3,81;137,83;3,81;0;0;
6068;-171,47;0,57;-171,47;0,57;136,14;4,18;136,14;4,18;0;0;
6086;-333,79;-13,18;-333,79;-13,18;141,41;3,77;141,41;3,77;0;0;
6104;44,7;-4,15;44,7;-4,15;147,1;3,71;147,1;3,71;0;0;
6122;122;-9,33;122;-9,33;131,49;3,88;131,49;3,88;0;0;
6141;167,31;-11,28;167,31;-11,28;123,34;4,1;123,34;4,1;0;0;
6161;-344,7;-7,66;-344,7;-7,66;121,36;3,43;121,36;3,43;0;0;
6179;-344,7;-7,66;-344,7;-7,66;120,27;3,24;120,27;3,24;0;0;
6197;-10,96;-10,46;-10,96;-10,46;87,85;3;87,85;3;0;0;
6217;-15,08;-7,78;-15,08;-7,78;70,54;2,98;70,54;2,98;0;0;
6235;-21,54;-6,34;-21,54;-6,34;53,42;2,75;53,42;2,75;0;0;
6254;-27,91;-5,44;-27,91;-5,44;32,55;2,67;32,55;2,67;0;0;
6273;54,66;-9,09;54,66;-9,09;22,36;2,57;22,36;2,57;0;0;
6290;-25,86;-5,65;-25,86;-5,65;14,74;2,68;14,74;2,68;0;0;
6308;-12,59;-4,24;-12,59;-4,24;14,82;2,55;14,82;2,55;0;0;
6325;-16,9;-7,68;-16,9;-7,68;15,19;2,28;15,19;2,28;0;0;
6343;-16,2;-6,62;-16,2;-6,62;14,94;2,67;14,94;2,67;0;0;
6360;-13,81;-1,67;-13,81;-1,67;12,72;2,61;12,72;2,61;0;0;
6377;-13,81;-1,67;-13,81;-1,67;5,99;2,7;5,99;2,7;0;0;
6395;-25;-7,42;-25;-7,42;4,03;2,54;4,03;2,54;0;0;
6414;-13,77;-4,71;-13,77;-4,71;4,29;2,5;4,29;2,5;0;0;
6431;-15,03;-11,92;-15,03;-11,92;4,42;1,89;4,42;1,89;0;0;
6448;-13,66;-7,12;-13,66;-7,12;4,4;2;4,4;2;0;0;
6467;-18,24;-7,53;-18,24;-7,53;4,68;1,87;4,68;1,87;0;0;
6486;-13,9;-8,03;-13,9;-8,03;3,85;1,81;3,85;1,81;0;0;
6503;-17,08;-11,95;-17,08;-11,95;2,56;2,16;2,56;2,16;0;0;
6521;-15,41;-4,7;-15,41;-4,7;2,23;2,33;2,23;2,33;0;0;
6538;-15,41;-4,7;-15,41;-4,7;2,21;2,4;2,21;2,4;0;0;
6558;-19,09;-7,88;-19,09;-7,88;2,02;2,27;2,02;2,27;0;0;
6577;-18,93;-7,89;-18,93;-7,89;1,92;2,18;1,92;2,18;0;0;
6596;-10,28;-6,15;-10,28;-6,15;1,92;2,11;1,92;2,11;0;0;
6613;-18,95;-4,9;-18,95;-4,9;1,86;1,86;1,86;1,86;0;0;
6631;-18,21;-7,41;-18,21;-7,41;1,9;1,58;1,9;1,58;0;0;
6651;-17,47;-6,24;-17,47;-6,24;1,97;1,6;1,97;1,6;0;0;
6668;-15,29;-10,84;-15,29;-10,84;2,03;1,67;2,03;1,67;0;0;
6685;-20,33;-8,49;-20,33;-8,49;2,05;1,6;2,05;1,6;0;0;
6703;-17,09;-8,53;-17,09;-8,53;1,87;1,68;1,87;1,68;0;0;
6721;-17,39;-1,29;-17,39;-1,29;1,73;1,75;1,73;1,75;0;0;
6737;-17,39;-1,29;-17,39;-1,29;1,64;1,87;1,64;1,87;0;0;
6754;-16,33;-5,27;-16,33;-5,27;1,76;2,01;1,76;2,01;0;0;
6772;-13,68;-9,44;-13,68;-9,44;1,6;1,82;1,6;1,82;0;0;
6790;-12,44;-5,18;-12,44;-5,18;1,73;1,85;1,73;1,85;0;0;
6810;-16,9;-3,9;-16,9;-3,9;1,84;2,05;1,84;2,05;0;0;
6828;-15,83;-11,55;-15,83;-11,55;2,04;2,12;2,04;2,12;0;0;
6846;-16,43;-6,58;-16,43;-6,58;2,29;2,02;2,29;2,02;0;0;
6866;-11,34;-8,02;-11,34;-8,02;2,4;2,01;2,4;2,01;0;0;
6883;-17,57;-7,72;-17,57;-7,72;2,23;1,98;2,23;1,98;0;0;
6900;-14,71;-10,7;-14,71;-10,7;2,27;1,76;2,27;1,76;0;0;
6920;-18,99;-7,68;-18,99;-7,68;2,22;1,6;2,22;1,6;0;0;
6939;-18,99;-7,68;-18,99;-7,68;1,94;1,69;1,94;1,69;0;0;
6955;-17,62;-4,2;-17,62;-4,2;1,66;1,64;1,66;1,64;0;0;
6973;-13,9;-5,78;-13,9;-5,78;1,72;1,64;1,72;1,64;0;0;
6993;-12,33;-6,09;-12,33;-6,09;1,66;1,63;1,66;1,63;0;0;
7010;-17,51;-7,64;-17,51;-7,64;1,69;1,44;1,69;1,44;0;0;
7026;-12,38;-10,73;-12,38;-10,73;1,93;1,38;1,93;1,38;0;0;
7045;-15,76;-8,38;-15,76;-8,38;1,88;1,48;1,88;1,48;0;0;
7064;-18,07;-7,04;-18,07;-7,04;1,84;1,54;1,84;1,54;0;0;
7081;-17,11;-9,55;-17,11;-9,55;1,93;1,56;1,93;1,56;0;0;
7097;-17,11;-9,55;-17,11;-9,55;1,95;1,68;1,95;1,68;0;0;
7115;-16,32;-5,68;-16,32;-5,68;1,99;1,83;1,99;1,83;0;0;
7130;-17,96;-10,56;-17,96;-10,56;2,1;1,87;2,1;1,87;0;0;
7148;-17,15;-3;-17,15;-3;2,1;1,73;2,1;1,73;0;0;
7165;-17,52;-9,05;-17,52;-9,05;2,1;1,7;2,1;1,7;0;0;
7183;-13,78;-6,07;-13,78;-6,07;2,07;1,77;2,07;1,77;0;0;
7201;-15,13;-8,71;-15,13;-8,71;1,99;1,84;1,99;1,84;0;0;
7218;-15,13;-8,71;-15,13;-8,71;2,02;1,99;2,02;1,99;0;0;
7235;-15,84;-7,84;-15,84;-7,84;1,86;1,99;1,86;1,99;0;0;
7252;-17,64;-6,08;-17,64;-6,08;1,9;2,05;1,9;2,05;0;0;
7270;-16,42;-6,25;-16,42;-6,25;1,97;2,08;1,97;2,08;0;0;
7287;-21,86;-6,07;-21,86;-6,07;1,91;2,07;1,91;2,07;0;0;
7304;-14,27;-7,27;-14,27;-7,27;1,76;2;1,76;2;0;0;
7323;-16,98;-7,59;-16,98;-7,59;1,82;1,89;1,82;1,89;0;0;
7340;-16,98;-7,59;-16,98;-7,59;1,92;1,78;1,92;1,78;0;0;
7358;-16,3;-3,74;-16,3;-3,74;1,74;1,62;1,74;1,62;0;0;
7375;-20,15;-6,65;-20,15;-6,65;1,83;1,74;1,83;1,74;0;0;
7393;-16,86;-9,59;-16,86;-9,59;1,78;1,76;1,78;1,76;0;0;
7413;-17,05;-7,16;-17,05;-7,16;1,78;1,73;1,78;1,73;0;0;
7431;-14,81;-1,9;-14,81;-1,9;1,85;1,79;1,85;1,79;0;0;
7448;-16,88;-11,71;-16,88;-11,71;1,95;1,87;1,95;1,87;0;0;
7465;-17,96;-5,4;-17,96;-5,4;1,86;1,79;1,86;1,79;0;0;
7484;-13,52;-11,35;-13,52;-11,35;1,89;1,91;1,89;1,91;0;0;
7502;-19,46;-8,77;-19,46;-8,77;2,06;1,91;2,06;1,91;0;0;
7519;-19,46;-8,77;-19,46;-8,77;2,11;1,9;2,11;1,9;0;0;
7537;-19,45;-12,3;-19,45;-12,3;2,07;1,7;2,07;1,7;0;0;
7556;-14,45;-5,42;-14,45;-5,42;2,32;1,67;2,32;1,67;0;0;
7572;-16,02;-6,35;-16,02;-6,35;2,21;1,64;2,21;1,64;0;0;
7591;-17,16;-5,74;-17,16;-5,74;2,31;1,6;2,31;1,6;0;0;
7607;-16,81;-3,79;-16,81;-3,79;2,01;1,66;2,01;1,66;0;0;
7624;-15,97;-8,81;-15,97;-8,81;2,01;1,7;2,01;1,7;0;0;
7643;-12,26;-7,53;-12,26;-7,53;1,7;1,66;1,7;1,66;0;0;
7663;-16;-7,72;-16;-7,72;1,64;1,43;1,64;1,43;0;0;
7683;-18,35;-6,57;-18,35;-6,57;1,54;1,36;1,54;1,36;0;0;
7700;-16,38;-4,37;-16,38;-4,37;1,47;1,4;1,47;1,4;0;0;
7720;-16,22;-9,86;-16,22;-9,86;1,51;1,44;1,51;1,44;0;0;
7736;-16,22;-9,86;-16,22;-9,86;1,57;1,54;1,57;1,54;0;0;
7753;-19,31;-6,51;-19,31;-6,51;1,72;1,65;1,72;1,65;1;0;
7769;-14,71;-6,41;-14,71;-6,41;1,72;1,64;1,72;1,64;1;0;
7788;-14,71;-6,41;-14,71;-6,41;1,79;1,7;1,79;1,7;1;0;
7804;-14,84;-5,27;-14,84;-5,27;1,9;1,66;1,9;1,66;1;0;
7823;-18,53;-5,88;-18,53;-5,88;1,97;1,64;1,97;1,64;1;0;
7839;-18,53;-5,88;-18,53;-5,88;2,06;1,69;2,06;1,69;1;0;
7856;128,13;-9,58;128,13;-9,58;11,64;1,65;11,64;1,65;1;0;
7873;241,84;3,43;241,84;3,43;31,99;2,53;31,99;2,53;1;0;
7890;-203,72;-9,02;-203,72;-9,02;53,78;2,88;53,78;2,88;1;0;
7908;-210,99;-11,08;-210,99;-11,08;104,25;3,19;104,25;3,19;1;0;
7926;17,61;-12,04;17,61;-12,04;125,46;3,6;125,46;3,6;1;0;
7945;-51,02;-2,55;-51,02;-2,55;147,92;3,97;147,92;3,97;1;0;
7964;88,34;-11,26;88,34;-11,26;160,2;4;160,2;4;0;0;
7989;-54,89;-5,29;-54,89;-5,29;154,88;3,47;154,88;3,47;0;0;
8010;-48,1;-4;-48,1;-4;125,52;3,33;125,52;3,33;0;0;
8030;52,32;-13,1;52,32;-13,1;119,25;3,12;119,25;3,12;0;0;
8049;-137,53;-8,1;-137,53;-8,1;107,16;2,95;107,16;2,95;0;0;
8066;-23,02;-7,86;-23,02;-7,86;81,02;2,68;81,02;2,68;0;0;
8085;-7,03;-10,59;-7,03;-10,59;63,04;2,34;63,04;2,34;0;0;
8102;-35,33;-7,08;-35,33;-7,08;48,7;2,2;48,7;2,2;0;0;
8121;48,33;-12,81;48,33;-12,81;40,53;2,19;40,53;2,19;0;0;
8137;48,33;-12,81;48,33;-12,81;26,62;1,82;26,62;1,82;0;0;
8153;0,56;-9,1;0,56;-9,1;29,98;2,05;29,98;2,05;0;0;
8171;-13,66;-7,51;-13,66;-7,51;33,46;2,01;33,46;2,01;0;0;
8189;-15,31;-5,89;-15,31;-5,89;32,5;2,07;32,5;2,07;0;0;
8207;-14,21;-11,19;-14,21;-11,19;29,54;2,11;29,54;2,11;0;0;
8225;-11,91;-7,41;-11,91;-7,41;22,45;2,2;22,45;2,2;0;0;
8242;-18,61;-1,82;-18,61;-1,82;9,56;3,24;9,56;3,24;0;0;
8261;-21,47;-8,18;-21,47;-8,18;10,46;3,18;10,46;3,18;0;0;
8278;-21,47;-8,18;-21,47;-8,18;15,5;3,08;15,5;3,08;0;0;
8295;-26,94;-1,4;-26,94;-1,4;17,7;3,43;17,7;3,43;0;0;
8313;-17,77;-6,42;-17,77;-6,42;19,14;3,31;19,14;3,31;0;0;
8332;-13,3;-7,69;-13,3;-7,69;19,46;2,66;19,46;2,66;0;0;
8349;-14,39;-3,51;-14,39;-3,51;16,91;1,82;16,91;1,82;0;0;
8365;-20,11;-11,26;-20,11;-11,26;10,16;1,84;10,16;1,84;0;0;
8383;-18,28;-1,49;-18,28;-1,49;4,9;2,27;4,9;2,27;0;0;
8401;-15,26;-8,34;-15,26;-8,34;2,68;2,01;2,68;2,01;0;0;
8418;-15,26;-8,34;-15,26;-8,34;2,53;2,1;2,53;2,1;0;0;
8435;-9,88;-10,26;-9,88;-10,26;2,59;2,18;2,59;2,18;0;0;
8452;-19,37;-12,32;-19,37;-12,32;2,41;2,29;2,41;2,29;0;0;
8470;-16,21;-8,75;-16,21;-8,75;2,3;2,21;2,3;2,21;0;0;
8488;-16,99;-11,33;-16,99;-11,33;2,13;1,95;2,13;1,95;0;0;
8505;-18,43;-7,5;-18,43;-7,5;2,03;2,03;2,03;2,03;0;0;
8523;-19,4;-4,15;-19,4;-4,15;1,93;1,98;1,93;1,98;0;0;
8539;-19,4;-4,15;-19,4;-4,15;1,7;1,96;1,7;1,96;0;0;
8556;-16,35;-4,45;-16,35;-4,45;1,61;1,74;1,61;1,74;0;0;
8573;-16,99;-7,06;-16,99;-7,06;1,74;1,9;1,74;1,9;0;0;
8591;-17,86;-8,03;-17,86;-8,03;1,59;1,74;1,59;1,74;0;0;
8608;-13,21;-7,76;-13,21;-7,76;1,72;1,85;1,72;1,85;0;0;
8626;-16,42;-10,12;-16,42;-10,12;1,84;1,99;1,84;1,99;0;0;
8643;-14,99;-6,44;-14,99;-6,44;2,03;2,03;2,03;2,03;0;0;
8661;-16,7;-8,72;-16,7;-8,72;1,93;1,97;1,93;1,97;0;0;
8678;-16,7;-8,72;-16,7;-8,72;1,84;1,91;1,84;1,91;0;0;
8696;-17,51;-7,58;-17,51;-7,58;2,04;1,89;2,04;1,89;1;0;
8715;-14,49;-4,39;-14,49;-4,39;1,93;1,89;1,93;1,89;1;0;
8736;-17,64;-3,73;-17,64;-3,73;1,84;1,65;1,84;1,65;1;0;
8754;-12,12;-10,35;-12,12;-10,35;1,92;1,81;1,92;1,81;1;0;
8772;340,4;-18,19;340,4;-18,19;25,36;2,27;25,36;2,27;1;0;
8793;420,45;-2,72;420,45;-2,72;55,89;3,15;55,89;3,15;1;0;
8813;-0,12;-14,04;-0,12;-14,04;77,73;3,77;77,73;3,77;1;0;
8831;162,18;-15,29;162,18;-15,29;106,1;4,39;106,1;4,39;1;0;
8851;567,58;-16,2;567,58;-16,2;152,59;4,98;152,59;4,98;1;0;
8872;219,55;-16,99;219,55;-16,99;174,09;5,98;174,09;5,98;0;0;
8893;169,13;-20,14;169,13;-20,14;177,39;5,8;177,39;5,8;0;0;
8913;288,55;-8,49;288,55;-8,49;200,07;5,7;200,07;5,7;0;0;
8933;-102,49;-10,34;-102,49;-10,34;192,85;5,39;192,85;5,39;0;0;
8950;-349,42;-6,58;-349,42;-6,58;181,75;4,79;181,75;4,79;0;0;
8970;89,52;-5,85;89,52;-5,85;150,09;4,64;150,09;4,64;0;0;
8991;86,88;-1,9;86,88;-1,9;123,64;3,7;123,64;3,7;0;0;
9010;-23,52;-4,48;-23,52;-4,48;93,74;3,24;93,74;3,24;0;0;
9028;-25,71;-7,36;-25,71;-7,36;44,03;2,67;44,03;2,67;0;0;
9045;-6,52;-6,9;-6,52;-6,9;39,97;2,24;39,97;2,24;0;0;
9062;15,89;-2,72;15,89;-2,72;27,96;2,36;27,96;2,36;0;0;
9079;15,89;-2,72;15,89;-2,72;23,95;2,63;23,95;2,63;0;0;
9096;128,88;-1,32;128,88;-1,32;20,04;3,93;20,04;3,93;0;0;
9114;-10,46;-7,27;-10,46;-7,27;19,89;3,98;19,89;3,98;0;0;
9132;-18,64;-7,67;-18,64;-7,67;17,53;3,95;17,53;3,95;0;0;
9149;-16,61;-2,37;-16,61;-2,37;11,94;5,28;11,94;5,28;0;0;
9165;-14,16;0,52;-14,16;0,52;10,1;6,25;10,1;6,25;0;0;
9182;-13,54;-9,19;-13,54;-9,19;6,79;6,34;6,79;6,34;0;0;
9200;-17,9;-7,4;-17,9;-7,4;2,67;5,01;2,67;5,01;0;0;
9217;-17,9;-7,4;-17,9;-7,4;2,34;5,12;2,34;5,12;0;0;
9234;-19,91;-9,08;-19,91;-9,08;2,35;4,89;2,35;4,89;0;0;
9253;-15,14;-5,2;-15,14;-5,2;2,34;3,5;2,34;3,5;0;0;
9270;-16,49;-6,34;-16,49;-6,34;2,19;2,29;2,19;2,29;0;0;
9287;-13,32;-11,56;-13,32;-11,56;2,26;2,14;2,26;2,14;0;0;
9305;-16,25;-7,35;-16,25;-7,35;2,36;2,09;2,36;2,09;0;0;
9324;-12;-6,4;-12;-6,4;2,25;1,95;2,25;1,95;0;0;
9342;-16,98;-10,53;-16,98;-10,53;2,24;1,97;2,24;1,97;0;0;
9359;-16,98;-10,53;-16,98;-10,53;2,16;2,03;2,16;2,03;0;0;
9378;-19,94;-8,04;-19,94;-8,04;1,99;2,08;1,99;2,08;0;0;
9395;-20,89;-12,62;-20,89;-12,62;1,88;1,84;1,88;1,84;0;0;
9415;-18,32;-6,94;-18,32;-6,94;1,98;1,94;1,98;1,94;0;0;
9432;-13,5;-7,77;-13,5;-7,77;2,07;1,93;2,07;1,93;0;0;
9450;-19,69;-5,61;-19,69;-5,61;1,96;1,87;1,96;1,87;0;0;
9466;-11,78;-5,45;-11,78;-5,45;2,06;1,82;2,06;1,82;0;0;
9483;-17,67;-5,45;-17,67;-5,45;2,27;1,94;2,27;1,94;0;0;
9501;-15,62;-7,65;-15,62;-7,65;2;1,95;2;1,95;0;0;
9520;-19,05;-7,92;-19,05;-7,92;1,91;1,83;1,91;1,83;0;0;
9539;-19,05;-7,92;-19,05;-7,92;1,91;1,81;1,91;1,81;0;0;
9556;-19,56;-6,26;-19,56;-6,26;1,94;1,8;1,94;1,8;0;0;
9573;-20,31;-4,6;-20,31;-4,6;1,72;1,79;1,72;1,79;0;0;
9591;-14,7;-6,29;-14,7;-6,29;1,89;1,63;1,89;1,63;0;0;
9610;-15,29;-7,19;-15,29;-7,19;2,26;1,58;2,26;1,58;0;0;
9630;-14,19;-7,34;-14,19;-7,34;2,27;1,73;2,27;1,73;0;0;
9648;-18,26;-6,07;-18,26;-6,07;2,3;2,03;2,3;2,03;0;0;
9665;-13,34;-7,75;-13,34;-7,75;2,16;1,94;2,16;1,94;0;0;
9681;-14,82;-3,88;-14,82;-3,88;2,15;1,78;2,15;1,78;0;0;
9701;-18,49;-11,44;-18,49;-11,44;1,81;1,88;1,81;1,88;0;0;
9719;-18,49;-11,44;-18,49;-11,44;1,73;2,01;1,73;2,01;0;0;
9736;-18,68;-5,06;-18,68;-5,06;1,65;1,68;1,65;1,68;0;0;
9753;-10,6;-9,91;-10,6;-9,91;1,96;1,67;1,96;1,67;0;0;
9770;-17,94;-10,26;-17,94;-10,26;2,23;2,08;2,23;2,08;0;0;
9788;-13,68;-6,33;-13,68;-6,33;2,16;2,06;2,16;2,06;0;0;
9809;-15,29;-7,76;-15,29;-7,76;2,1;2,22;2,1;2,22;0;0;
9827;-13,83;-1,4;-13,83;-1,4;2,15;2,51;2,15;2,51;0;0;
9845;-13,56;-6,64;-13,56;-6,64;2,09;2,59;2,09;2,59;0;0;
9862;-18,18;-10,46;-18,18;-10,46;2,06;2,55;2,06;2,55;0;0;
9880;-18,18;-10,46;-18,18;-10,46;2,09;2,54;2,09;2,54;0;0;
9896;-19,57;-3,85;-19,57;-3,85;2,25;2,34;2,25;2,34;0;0;
9915;-17,31;-7,28;-17,31;-7,28;2,32;2,2;2,32;2,2;0;0;
9934;-15,29;-6,48;-15,29;-6,48;2,08;1,96;2,08;1,96;0;0;
9951;-19,43;-1,78;-19,43;-1,78;2,09;1,86;2,09;1,86;0;0;
9969;-16,35;-10,34;-16,35;-10,34;1,9;1,99;1,9;1,99;0;0;
9987;-12,97;-2,99;-12,97;-2,99;1,78;2,32;1,78;2,32;0;0;
10002;-15,38;-7,37;-15,38;-7,37;1,94;2,28;1,94;2,28;0;0;
10019;-15,38;-7,37;-15,38;-7,37;2,12;2,36;2,12;2,36;0;0;
10036;-13,03;-8,89;-13,03;-8,89;2,42;2,51;2,42;2,51;0;0;
10054;-17,84;-6,3;-17,84;-6,3;2,44;2,32;2,44;2,32;0;0;
10071;-19,81;-7,16;-19,81;-7,16;2,53;2,03;2,53;2,03;0;0;
10089;-15,31;-3,46;-15,31;-3,46;2,7;1,83;2,7;1,83;0;0;
10106;-15,98;-8,88;-15,98;-8,88;2,56;1,7;2,56;1,7;0;0;
10125;-16,91;-8,39;-16,91;-8,39;2,3;1,67;2,3;1,67;0;0;
10143;-14,07;-5,7;-14,07;-5,7;2,11;1,54;2,11;1,54;0;0;
10160;-14,07;-5,7;-14,07;-5,7;2,03;1,42;2,03;1,42;0;0;
10176;-14,22;-9,85;-14,22;-9,85;1,92;1,51;1,92;1,51;0;0;
10195;-16,16;-9,26;-16,16;-9,26;1,64;1,49;1,64;1,49;0;0;
10213;-15,51;-3,73;-15,51;-3,73;1,59;1,77;1,59;1,77;0;0;
10231;-16,21;-8,78;-16,21;-8,78;1,6;1,98;1,6;1,98;0;0;
10249;-15,28;-6,16;-15,28;-6,16;1,56;2,28;1,56;2,28;0;0;
10267;-13,11;-6,31;-13,11;-6,31;1,58;2,32;1,58;2,32;0;0;
10284;-17,27;-8,47;-17,27;-8,47;1,67;2,65;1,67;2,65;0;0;
10302;-15,46;-6,89;-15,46;-6,89;1,92;2,58;1,92;2,58;0;0;
10320;-15,46;-6,89;-15,46;-6,89;2,02;2,29;2,02;2,29;0;0;
10337;-17,74;-6,05;-17,74;-6,05;2,17;2,01;2,17;2,01;0;0;
10355;-16,98;-8,73;-16,98;-8,73;2,1;1,83;2,1;1,83;0;0;
10373;-16,01;-12,03;-16,01;-12,03;2,24;1,87;2,24;1,87;0;0;
10390;-19,6;-7;-19,6;-7;2,21;1,41;2,21;1,41;0;0;
10408;-16,75;-8,04;-16,75;-8,04;2;1,44;2;1,44;0;0;
10425;-18,6;-5,05;-18,6;-5,05;1,93;1,62;1,93;1,62;0;0;
10443;-12,43;-7,28;-12,43;-7,28;2,09;1,66;2,09;1,66;0;0;
10462;-18,3;-5;-18,3;-5;2,15;1,91;2,15;1,91;0;0;
10482;-16,65;-6,43;-16,65;-6,43;1,82;1,76;1,82;1,76;0;0;
10500;-16,65;-6,43;-16,65;-6,43;1,77;1,84;1,77;1,84;0;0;
10519;-17,14;-5,83;-17,14;-5,83;2,06;1,92;2,06;1,92;0;0;
10540;-14,21;-4,89;-14,21;-4,89;1,95;1,95;1,95;1,95;0;0;
10558;-17,37;-5,97;-17,37;-5,97;1,97;1,8;1,97;1,8;0;0;
10573;-17,37;-5,97;-17,37;-5,97;2,02;1,78;2,02;1,78;0;0;
10591;-13,36;-7,78;-13,36;-7,78;2,13;1,75;2,13;1,75;0;0;
10610;-16,6;-6,71;-16,6;-6,71;2,2;1,79;2,2;1,79;0;0;
10629;-15,35;-4,35;-15,35;-4,35;2,1;1,83;2,1;1,83;0;0;
10646;-13,79;-6,41;-13,79;-6,41;1,91;1,7;1,91;1,7;0;0;
10664;-15,57;-9,04;-15,57;-9,04;1,77;1,68;1,77;1,68;0;0;
10684;-13,23;-4,19;-13,23;-4,19;1,63;1,81;1,63;1,81;0;0;
10703;-15,62;-9,01;-15,62;-9,01;1,64;1,99;1,64;1,99;0;0;
10722;-21,9;-5,84;-21,9;-5,84;1,85;1,91;1,85;1,91;0;0;
10738;-21,9;-5,84;-21,9;-5,84;1,96;1,96;1,96;1,96;0;0;
10754;-13,84;-6,41;-13,84;-6,41;2,1;1,95;2,1;1,95;0;0;
10770;-13,41;-6,88;-13,41;-6,88;2,3;1,84;2,3;1,84;0;0;
10789;-19,2;-6,12;-19,2;-6,12;2,46;1,88;2,46;1,88;0;0;
10808;-16,63;-9,97;-16,63;-9,97;2,45;1,71;2,45;1,71;0;0;
10826;-18,36;-9,48;-18,36;-9,48;2,32;1,64;2,32;1,64;0;0;
10844;-14,05;-5,53;-14,05;-5,53;2,41;1,81;2,41;1,81;0;0;
10860;-16,36;-5,16;-16,36;-5,16;2,41;1,92;2,41;1,92;0;0;
10878;-16,36;-5,16;-16,36;-5,16;2,21;2,01;2,21;2,01;0;0;
10895;-13,55;-6,18;-13,55;-6,18;2,18;2,05;2,18;2,05;0;0;
10913;-16,57;-6,81;-16,57;-6,81;2,09;1,95;2,09;1,95;0;0;
10931;-17,14;-8,22;-17,14;-8,22;2,02;1,93;2,02;1,93;0;0;
10949;-17,45;-10,55;-17,45;-10,55;1,94;1,82;1,94;1,82;0;0;
10966;-13,5;-7,76;-13,5;-7,76;1,98;1,69;1,98;1,69;0;0;
10984;-17,07;-13,05;-17,07;-13,05;1,88;1,83;1,88;1,83;0;0;
11001;-20,82;-10,85;-20,82;-10,85;2,04;1,94;2,04;1,94;0;0;
11022;-19,63;-7,11;-19,63;-7,11;2,24;1,95;2,24;1,95;0;0;
11038;-19,63;-7,11;-19,63;-7,11;2,3;1,77;2,3;1,77;0;0;
11061;-15,18;-7,4;-15,18;-7,4;2,23;1,78;2,23;1,78;0;0;
11078;-15,18;-7,4;-15,18;-7,4;1,84;1,44;1,84;1,44;0;0;
11095;-20,48;-11,09;-20,48;-11,09;1,68;1,54;1,68;1,54;0;0;
11114;-17,11;-9,06;-17,11;-9,06;1,67;1,7;1,67;1,7;0;0;
11131;-18,31;-8,41;-18,31;-8,41;1,67;1,54;1,67;1,54;0;0;
11150;-17,72;-8,81;-17,72;-8,81;1,77;1,7;1,77;1,7;0;0;
11167;-10,82;-6,06;-10,82;-6,06;2,13;1,68;2,13;1,68;0;0;
11186;-16,15;-10,1;-16,15;-10,1;2,2;1,84;2,2;1,84;0;0;
11203;-12,42;-6,07;-12,42;-6,07;2,31;1,68;2,31;1,68;0;0;
11220;-12,42;-6,07;-12,42;-6,07;2,4;1,66;2,4;1,66;0;0;
11236;-15,39;-8,04;-15,39;-8,04;2,25;1,88;2,25;1,88;0;0;
11254;-16,75;-7,84;-16,75;-7,84;2,3;1,83;2,3;1,83;0;0;
11272;-15,34;-7,62;-15,34;-7,62;2,4;1,87;2,4;1,87;0;0;
11288;-19,21;-5,43;-19,21;-5,43;2,58;1,81;2,58;1,81;0;0;
11306;-16,86;-9,13;-16,86;-9,13;2,59;1,75;2,59;1,75;0;0;
11324;-16,5;-8,39;-16,5;-8,39;2,46;1,87;2,46;1,87;0;0;
11345;-15,73;-10,13;-15,73;-10,13;2,5;2,07;2,5;2,07;0;0;
11362;-15,8;-9,77;-15,8;-9,77;2,08;2,1;2,08;2,1;0;0;
11382;-17,7;-4,84;-17,7;-4,84;1,88;2,11;1,88;2,11;0;0;
11399;-17,7;-4,84;-17,7;-4,84;1,77;2,02;1,77;2,02;0;0;
11417;-14,8;-7,86;-14,8;-7,86;1,79;2;1,79;2;0;0;
11436;-16,05;-4,99;-16,05;-4,99;1,77;1,78;1,77;1,78;0;0;
11455;-15,42;-5,52;-15,42;-5,52;1,89;1,65;1,89;1,65;0;0;
11474;-14,72;-9,07;-14,72;-9,07;1,94;1,72;1,94;1,72;0;0;
11491;-14,72;-9,07;-14,72;-9,07;1,86;1,81;1,86;1,81;0;0;
11510;-15,89;-9,38;-15,89;-9,38;1,9;1,69;1,9;1,69;0;0;
11531;-13,96;-6,14;-13,96;-6,14;1,88;1,79;1,88;1,79;0;0;
11550;-14,88;-8,28;-14,88;-8,28;1,94;1,76;1,94;1,76;0;0;
11568;-12,4;-6,68;-12,4;-6,68;1,9;1,73;1,9;1,73;0;0;
11587;-13,24;-8,81;-13,24;-8,81;1,93;1,84;1,93;1,84;0;0;
11604;-17,18;-7,58;-17,18;-7,58;1,98;1,85;1,98;1,85;0;0;
11621;-13,82;-9,24;-13,82;-9,24;1,94;1,95;1,94;1,95;0;0;
11639;-13,82;-9,24;-13,82;-9,24;2,09;2,16;2,09;2,16;0;0;
11656;-18,17;-8,58;-18,17;-8,58;2,15;2,16;2,15;2,16;0;0;
11681;-12,41;-4;-12,41;-4;2,1;2,26;2,1;2,26;0;0;
11698;-12,41;-4;-12,41;-4;2,11;2,46;2,11;2,46;0;0;
11715;-15,65;-7,24;-15,65;-7,24;2,15;2,34;2,15;2,34;0;0;
11732;-17,61;-7,14;-17,61;-7,14;1,95;2,04;1,95;2,04;0;0;
11751;-19,49;-9,32;-19,49;-9,32;2,03;1,99;2,03;1,99;0;0;
11768;-15,6;-7,58;-15,6;-7,58;2,13;1,81;2,13;1,81;0;0;
11787;-16,1;-6,42;-16,1;-6,42;2,15;1,74;2,15;1,74;0;0;
11803;-18,98;-4,28;-18,98;-4,28;2,06;1,58;2,06;1,58;0;0;
11821;-14,4;-6,68;-14,4;-6,68;2,09;1,75;2,09;1,75;0;0;
11839;-14,4;-6,68;-14,4;-6,68;2,13;1,84;2,13;1,84;0;0;
11857;-14,69;-7,85;-14,69;-7,85;2,07;1,8;2,07;1,8;0;0;
11874;-15,37;-6,42;-15,37;-6,42;2,04;1,73;2,04;1,73;0;0;
11891;-20,79;-6,68;-20,79;-6,68;2,22;1,7;2,22;1,7;0;0;
11908;-17,71;-10,61;-17,71;-10,61;2,12;2,06;2,12;2,06;0;0;
11927;-14,42;-8,4;-14,42;-8,4;2,04;1,98;2,04;1,98;0;0;
11944;-14,28;-7,15;-14,28;-7,15;2,04;2,04;2,04;2,04;0;0;
11961;-16,49;-7,93;-16,49;-7,93;2,12;2,27;2,12;2,27;0;0;
11978;-16,49;-7,93;-16,49;-7,93;2,11;2,42;2,11;2,42;0;0;
11997;-12,6;-8,76;-12,6;-8,76;2,06;2,42;2,06;2,42;0;0;
12016;-20,13;-7,36;-20,13;-7,36;2,09;2,43;2,09;2,43;0;0;
12033;-14,84;-6,25;-14,84;-6,25;2,13;2,63;2,13;2,63;0;0;
12051;-16,4;-0,05;-16,4;-0,05;2,02;2,57;2,02;2,57;0;0;
12069;-16,4;-0,05;-16,4;-0,05;1,97;2,6;1,97;2,6;0;0;
12088;-17,5;-7,27;-17,5;-7,27;2,11;2,53;2,11;2,53;0;0;
12108;-16,07;-6,93;-16,07;-6,93;1,89;2,29;1,89;2,29;0;0;
12126;-20,27;-9,01;-20,27;-9,01;1,65;2,02;1,65;2,02;0;0;
12147;-16,25;-4,52;-16,25;-4,52;1,6;1,98;1,6;1,98;0;0;
12167;-15,8;-5,82;-15,8;-5,82;1,75;1,76;1,75;1,76;0;0;
12185;-19,09;-9,19;-19,09;-9,19;1,79;1,75;1,79;1,75;0;0;
12202;-14,38;-9,51;-14,38;-9,51;1,85;1,74;1,85;1,74;0;0;
12221;-18,58;-8,51;-18,58;-8,51;2,05;1,98;2,05;1,98;0;0;
12237;-18,58;-8,51;-18,58;-8,51;2,12;2,15;2,12;2,15;0;0;
12255;-17,22;-10,11;-17,22;-10,11;2,08;2,07;2,08;2,07;0;0;
12272;-19,88;-6,56;-19,88;-6,56;2,22;2,01;2,22;2,01;0;0;
12289;-20,02;-6,55;-20,02;-6,55;2,29;1,93;2,29;1,93;0;0;
12308;-12,51;-8,28;-12,51;-8,28;2,12;1,73;2,12;1,73;0;0;
12328;-16,32;-5,32;-16,32;-5,32;2,14;1,71;2,14;1,71;0;0;
12345;-17,25;-8,78;-17,25;-8,78;2,39;1,86;2,39;1,86;0;0;
12364;-17,35;-7,88;-17,35;-7,88;2,18;1,85;2,18;1,85;0;0;
12381;-14,42;-6,85;-14,42;-6,85;2,15;2,29;2,15;2,29;0;0;
12399;-14,42;-6,85;-14,42;-6,85;2,17;2,72;2,17;2,72;0;0;
12417;-16,17;-11,97;-16,17;-11,97;1,96;2,77;1,96;2,77;0;0;
12437;-14,3;-8,88;-14,3;-8,88;1,89;2,6;1,89;2,6;0;0;
12456;-20,12;-6,76;-20,12;-6,76;1,72;2,52;1,72;2,52;0;0;
12477;-14,93;-7,03;-14,93;-7,03;1,6;2,26;1,6;2,26;0;0;
12497;-12,1;-6,65;-12,1;-6,65;1,58;1,85;1,58;1,85;0;0;
12514;-18,54;-5,3;-18,54;-5,3;1,53;1,69;1,53;1,69;0;0;
12534;-15,39;-9,23;-15,39;-9,23;1,64;1,64;1,64;1,64;0;0;
12552;-15,46;-2,89;-15,46;-2,89;1,83;1,73;1,83;1,73;0;0;
12569;-16,06;-11,08;-16,06;-11,08;2,04;1,72;2,04;1,72;0;0;
12588;-15,15;-11,56;-15,15;-11,56;2,07;1,68;2,07;1,68;0;0;
12608;-16,18;-6,13;-16,18;-6,13;2,1;1,68;2,1;1,68;0;0;
12625;-10,6;-6,88;-10,6;-6,88;2,15;1,74;2,15;1,74;0;0;
12642;-21;-7,68;-21;-7,68;2,39;1,6;2,39;1,6;0;0;
12662;-18,45;-6,26;-18,45;-6,26;2,11;1,44;2,11;1,44;0;0;
12680;-18,45;-6,26;-18,45;-6,26;2,06;1,46;2,06;1,46;0;0;
12698;-17,89;-4,84;-17,89;-4,84;1,98;1,44;1,98;1,44;0;0;
12715;-12,17;-6,14;-12,17;-6,14;2,2;1,36;2,2;1,36;1;0;
12734;-20,42;-7,04;-20,42;-7,04;2;1,39;2;1,39;1;0;
12752;-17,14;-9,43;-17,14;-9,43;1,91;1,37;1,91;1,37;1;0;
12768;-15,71;-6,3;-15,71;-6,3;2,01;1,41;2,01;1,41;1;0;
12786;-16,14;-3,88;-16,14;-3,88;1,97;1,52;1,97;1,52;1;0;
12803;-15,72;-5,94;-15,72;-5,94;2,21;1,51;2,21;1,51;1;0;
12821;-18,61;-7,25;-18,61;-7,25;2,32;1,63;2,32;1,63;1;0;
12837;-18,61;-7,25;-18,61;-7,25;2,36;1,77;2,36;1,77;1;0;
12855;-10,66;-5,87;-10,66;-5,87;2,36;1,76;2,36;1,76;1;0;
12872;109,43;-11,7;109,43;-11,7;9,89;1,8;9,89;1,8;1;0;
12889;-170,32;-4,77;-170,32;-4,77;41,24;3,37;41,24;3,37;1;0;
12908;-380,86;-15,97;-380,86;-15,97;68,95;4,22;68,95;4,22;1;0;
12928;-21,77;-2,68;-21,77;-2,68;89,33;4,64;89,33;4,64;1;0;
12947;-255,05;-14,76;-255,05;-14,76;127,13;5,03;127,13;5,03;1;0;
12968;19,4;3,83;19,4;3,83;157,03;6,01;157,03;6,01;1;0;
12989;-152,27;1,1;-152,27;1,1;162,34;5,43;162,34;5,43;0;0;
13010;277,95;-1,62;277,95;-1,62;157,28;5,44;157,28;5,44;0;0;
13029;-218,7;-5,36;-218,7;-5,36;159,18;5,1;159,18;5,1;0;0;
13046;13,88;-6,86;13,88;-6,86;153,4;5,2;153,4;5,2;0;0;
13065;-15,64;-9,47;-15,64;-9,47;120,55;5,06;120,55;5,06;0;0;
13083;-110,32;-2,43;-110,32;-2,43;106,13;4,12;106,13;4,12;0;0;
13103;-25,74;-9,81;-25,74;-9,81;82,17;3,27;82,17;3,27;0;0;
13121;-13,43;-7,05;-13,43;-7,05;43,19;2,64;43,19;2,64;0;0;
13146;-17,68;-8,06;-17,68;-8,06;23,97;2,16;23,97;2,16;0;0;
13168;-18,58;-10,63;-18,58;-10,63;10,81;1,65;10,81;1,65;0;0;
13189;-13,82;-8,49;-13,82;-8,49;10,03;1,64;10,03;1,64;0;0;
13206;-52,69;-7,04;-52,69;-7,04;16,06;1,6;16,06;1,6;0;0;
13223;-0,72;-7,15;-0,72;-7,15;21,34;1,63;21,34;1,63;0;0;
13241;-25,64;-7,9;-25,64;-7,9;25,05;1,81;25,05;1,81;0;0;
13258;-25,64;-7,9;-25,64;-7,9;28,9;1,93;28,9;1,93;0;0;
13275;-17,73;-6,46;-17,73;-6,46;28,01;2,04;28,01;2,04;0;0;
13291;-12,81;-5,34;-12,81;-5,34;27,06;2,07;27,06;2,07;0;0;
13309;-16,89;-6,62;-16,89;-6,62;13,99;2,26;13,99;2,26;0;0;
13327;-14,89;-10,65;-14,89;-10,65;8,28;2,44;8,28;2,44;0;0;
13346;-20,29;-5,8;-20,29;-5,8;4,26;2,31;4,26;2,31;0;0;
13363;-14,69;0,42;-14,69;0,42;2,22;2,27;2,22;2,27;0;0;
13381;-18,66;-8,06;-18,66;-8,06;2,1;2,21;2,1;2,21;0;0;
13398;-18,66;-8,06;-18,66;-8,06;1,82;2,25;1,82;2,25;0;0;
13415;-15,8;-5,69;-15,8;-5,69;1,85;2,15;1,85;2,15;0;0;
13432;-17,05;-11,46;-17,05;-11,46;1,87;2,23;1,87;2,23;0;0;
13450;-15,32;-4,37;-15,32;-4,37;1,96;2,19;1,96;2,19;0;0;
13467;-16,1;-12,13;-16,1;-12,13;1,86;2,09;1,86;2,09;1;0;
13486;-14,89;-9,96;-14,89;-9,96;1,91;2,01;1,91;2,01;1;0;
13503;-19,63;-8,04;-19,63;-8,04;1,92;1,95;1,92;1,95;1;0;
13521;-13,55;-5,91;-13,55;-5,91;1,8;1,84;1,8;1,84;1;0;
13539;-13,55;-5,91;-13,55;-5,91;1,84;1,8;1,84;1,8;1;0;
13555;-19,1;-8,82;-19,1;-8,82;1,84;1,87;1,84;1,87;1;0;
13573;-21,08;-7,09;-21,08;-7,09;1,85;1,96;1,85;1,96;1;0;
13592;-20,56;-9,91;-20,56;-9,91;1,84;1,89;1,84;1,89;1;0;
13610;-59,8;-9,8;-59,8;-9,8;5,24;1,78;5,24;1,78;1;0;
13628;28,2;-9,81;28,2;-9,81;22,4;2,83;22,4;2,83;1;0;
13646;-190,11;-4,75;-190,11;-4,75;57,61;3,58;57,61;3,58;1;0;
13665;247,07;-3,06;247,07;-3,06;90,44;4,21;90,44;4,21;1;0;
13682;-17,1;-2,29;-17,1;-2,29;109,89;5,97;109,89;5,97;1;0;
13698;-17,1;-2,29;-17,1;-2,29;129,03;7,96;129,03;7,96;1;0;
13717;-135,22;-3,07;-135,22;-3,07;143,07;8,39;143,07;8,39;0;0;
13740;-131,69;-13,69;-131,69;-13,69;151,69;7,79;151,69;7,79;0;0;
13760;-52,87;-10,34;-52,87;-10,34;130,37;7,19;130,37;7,19;0;0;
13781;-3,6;-10,15;-3,6;-10,15;113,91;6,33;113,91;6,33;0;0;
13802;-151,52;-6,85;-151,52;-6,85;111,4;4,43;111,4;4,43;0;0;
13819;-151,52;-6,85;-151,52;-6,85;105,93;2,63;105,93;2,63;0;0;
13837;-3,59;-7,28;-3,59;-7,28;77,25;2,39;77,25;2,39;0;0;
13857;-18,44;-8,69;-18,44;-8,69;62,43;1,93;62,43;1,93;0;0;
13875;-68,05;-7,76;-68,05;-7,76;58,6;2,04;58,6;2,04;0;0;
13892;-41,92;-10,12;-41,92;-10,12;50,49;1,99;50,49;1,99;0;0;
13909;-12,83;0,01;-12,83;0,01;35,59;2,22;35,59;2,22;0;0;
13927;-12,89;-5,89;-12,89;-5,89;23,85;3,59;23,85;3,59;0;0;
13944;-14,72;-29,79;-14,72;-29,79;22,23;4,39;22,23;4,39;0;0;
13961;-20,01;3,13;-20,01;3,13;14,26;7,43;14,26;7,43;0;0;
13979;-20,01;3,13;-20,01;3,13;6,88;10,27;6,88;10,27;0;0;
13996;53,39;-5,66;53,39;-5,66;21;10,44;21;10,44;0;0;
14015;-19,73;-11,61;-19,73;-11,61;22,99;10,05;22,99;10,05;0;0;
14032;-16,31;-8,73;-16,31;-8,73;23,13;8,95;23,13;8,95;0;0;
14050;-16,36;-4,96;-16,36;-4,96;22,83;5,83;22,83;5,83;0;0;
14067;-15,67;-10,34;-15,67;-10,34;22,54;2,99;22,54;2,99;0;0;
14085;-17,51;-3,88;-17,51;-3,88;13,66;2,21;13,66;2,21;0;0;
14101;-17,04;-7,79;-17,04;-7,79;4,36;2,13;4,36;2,13;0;0;
14118;-17,04;-7,79;-17,04;-7,79;6,08;1,97;6,08;1,97;0;0;
14135;-11,07;-6,42;-11,07;-6,42;6,05;1,84;6,05;1,84;0;0;
14153;-19,67;-5,68;-19,67;-5,68;6,16;1,78;6,16;1,78;0;0;
14170;-16,39;-5,21;-16,39;-5,21;6,13;1,66;6,13;1,66;0;0;
14189;-15,77;-9,81;-15,77;-9,81;5,81;1,58;5,81;1,58;0;0;
14206;-16,25;-4,98;-16,25;-4,98;3,8;1,71;3,8;1,71;0;0;
14224;-15,42;-9,02;-15,42;-9,02;2,29;1,79;2,29;1,79;0;0;
14241;-22,56;-5,7;-22,56;-5,7;2,16;1,76;2,16;1,76;0;0;
14259;-22,56;-5,7;-22,56;-5,7;2,15;1,59;2,15;1,59;0;0;
14276;-21,21;-7,96;-21,21;-7,96;2,07;1,57;2,07;1,57;0;0;
14294;-13,82;-5,89;-13,82;-5,89;2,33;1,59;2,33;1,59;0;0;
14310;-12;-8,12;-12;-8,12;2,3;1,36;2,3;1,36;0;0;
14329;-17,36;-8,86;-17,36;-8,86;2,28;1,6;2,28;1,6;0;0;
14346;-16,97;-11,68;-16,97;-11,68;2,35;1,89;2,35;1,89;0;0;
14364;-15,26;-11,44;-15,26;-11,44;2,37;1,96;2,37;1,96;0;0;
14383;-18,64;-3,47;-18,64;-3,47;2,11;1,98;2,11;1,98;0;0;
14401;-16,6;-8,95;-16,6;-8,95;2,05;2,05;2,05;2,05;0;0;
14419;-16,6;-8,95;-16,6;-8,95;1,98;2,08;1,98;2,08;0;0;
14436;-17,91;-11,96;-17,91;-11,96;1,88;1,85;1,88;1,85;0;0;
14454;-15,1;-5,47;-15,1;-5,47;1,83;1,85;1,83;1,85;0;0;
14474;-13,6;-10,45;-13,6;-10,45;1,99;1,72;1,99;1,72;0;0;
14492;-14,24;-7,85;-14,24;-7,85;1,82;1,75;1,82;1,75;0;0;
14511;-16,46;-6,44;-16,46;-6,44;1,72;1,69;1,72;1,69;0;0;
14526;-13,74;-6,65;-13,74;-6,65;1,8;1,9;1,8;1,9;0;0;
14544;-18,96;-7,65;-18,96;-7,65;1,72;1,8;1,72;1,8;0;0;
14561;-18,31;-10,77;-18,31;-10,77;1,61;1,86;1,61;1,86;0;0;
14580;-18,31;-10,77;-18,31;-10,77;1,48;1,7;1,48;1,7;0;0;
14602;-15,87;-5,69;-15,87;-5,69;1,51;1,86;1,51;1,86;0;0;
14620;-15,87;-5,69;-15,87;-5,69;1,64;1,94;1,64;1,94;0;0;
14637;-14,03;-8,28;-14,03;-8,28;1,66;1,87;1,66;1,87;0;0;
14656;-14,61;-8,58;-14,61;-8,58;1,73;1,99;1,73;1,99;0;0;
14673;-14,41;-7,34;-14,41;-7,34;2,01;2,16;2,01;2,16;0;0;
14691;-18,44;-10,58;-18,44;-10,58;2,19;2,16;2,19;2,16;0;0;
14708;-11,22;-8,6;-11,22;-8,6;2,5;2,13;2,5;2,13;0;0;
14726;-17,84;-7,75;-17,84;-7,75;2,51;2,19;2,51;2,19;0;0;
14743;-15,4;-10,27;-15,4;-10,27;2,36;1,92;2,36;1,92;0;0;
14761;-17,48;-3,9;-17,48;-3,9;2,31;2,03;2,31;2,03;0;0;
14780;-17,48;-3,9;-17,48;-3,9;2,13;2,08;2,13;2,08;0;0;
14798;-13,92;-7,05;-13,92;-7,05;2,07;2,14;2,07;2,14;0;0;
14819;-17,7;-9,82;-17,7;-9,82;1,79;2,18;1,79;2,18;0;0;
14837;-18,98;-11,43;-18,98;-11,43;1,82;2,16;1,82;2,16;0;0;
14854;-15,24;-8,57;-15,24;-8,57;1,93;2,09;1,93;2,09;0;0;
14871;-19,4;-7,79;-19,4;-7,79;1,95;1,89;1,95;1,89;0;0;
14888;-19,03;-4,24;-19,03;-4,24;1,82;1,83;1,82;1,83;0;0;
14905;-17,04;-9,58;-17,04;-9,58;1,72;1,68;1,72;1,68;0;0;
14923;-18,63;-4,91;-18,63;-4,91;1,79;1,78;1,79;1,78;0;0;
14940;-17,89;-9,74;-17,89;-9,74;1,9;1,69;1,9;1,69;0;0;
14956;-17,89;-9,74;-17,89;-9,74;1,94;1,83;1,94;1,83;0;0;
14975;-16,5;-6,64;-16,5;-6,64;1,77;1,97;1,77;1,97;0;0;
14994;-19,59;-8,01;-19,59;-8,01;1,89;1,88;1,89;1,88;0;0;
15013;-18,17;-5,77;-18,17;-5,77;1,91;1,87;1,91;1,87;0;0;
15030;-17,44;-9,57;-17,44;-9,57;1,93;1,89;1,93;1,89;0;0;
15049;-16,75;-8,56;-16,75;-8,56;1,87;1,81;1,87;1,81;0;0;
15070;-15,93;-9,55;-15,93;-9,55;1,74;1,88;1,74;1,88;0;0;
15088;-20,32;-1,71;-20,32;-1,71;1,81;1,99;1,81;1,99;0;0;
15105;-17,33;-8,58;-17,33;-8,58;1,87;2,05;1,87;2,05;0;0;
15122;-13,88;-8;-13,88;-8;1,93;2,09;1,93;2,09;0;0;
15139;-13,88;-8;-13,88;-8;2,03;2,04;2,03;2,04;0;0;
15156;-16,23;-6,78;-16,23;-6,78;2,12;1,83;2,12;1,83;0;0;
15175;-19,37;-8,76;-19,37;-8,76;2,38;1,86;2,38;1,86;0;0;
15193;-17,93;-5,54;-17,93;-5,54;2,34;1,73;2,34;1,73;0;0;
15213;-13,58;-4,54;-13,58;-4,54;2,48;1,87;2,48;1,87;0;0;
15229;-15,15;-6,07;-15,15;-6,07;2,28;2,12;2,28;2,12;0;0;
15246;-14,3;-3,99;-14,3;-3,99;2,11;2,33;2,11;2,33;0;0;
15265;-16,51;-8,2;-16,51;-8,2;2,2;2,51;2,2;2,51;0;0;
15282;-17,1;-9,51;-17,1;-9,51;1,81;2,34;1,81;2,34;0;0;
15301;-17,6;-6,66;-17,6;-6,66;1,7;2,14;1,7;2,14;0;0;
15321;-10,69;-10,6;-10,69;-10,6;1,97;1,67;1,97;1,67;0;0;
15339;-10,69;-10,6;-10,69;-10,6;2,15;1,5;2,15;1,5;0;0;
15359;-16,82;-1,2;-16,82;-1,2;1,92;1,4;1,92;1,4;0;0;
15376;-17,33;-6,93;-17,33;-6,93;1,91;1,49;1,91;1,49;0;0;
15398;-16,15;-5,88;-16,15;-5,88;1,81;1,67;1,81;1,67;0;0;
15417;-16,15;-5,88;-16,15;-5,88;1,74;1,84;1,74;1,84;0;0;
15435;-18,95;-6,55;-18,95;-6,55;1,6;1,95;1,6;1,95;0;0;
15452;-17,01;-8,86;-17,01;-8,86;1,68;1,98;1,68;1,98;0;0;
15473;-15,37;-0,58;-15,37;-0,58;1,77;2;1,77;2;0;0;
15490;-18,54;-9,24;-18,54;-9,24;1,73;2,11;1,73;2,11;0;0;
15507;-16,9;-8,87;-16,9;-8,87;1,91;2,04;1,91;2,04;0;0;
15526;-17,14;-6,4;-17,14;-6,4;1,92;1,94;1,92;1,94;0;0;
15546;-13,58;-5,96;-13,58;-5,96;1,69;1,98;1,69;1,98;0;0;
15563;-10,94;-9,69;-10,94;-9,69;1,85;1,8;1,85;1,8;0;0;
15582;-15,87;-9,42;-15,87;-9,42;1,96;1,73;1,96;1,73;0;0;
15599;-15,87;-9,42;-15,87;-9,42;1,97;1,86;1,97;1,86;0;0;
15616;-17,24;-8,04;-17,24;-8,04;1,92;1,76;1,92;1,76;0;0;
15633;-17,51;-11,1;-17,51;-11,1;2;1,86;2;1,86;0;0;
15650;-16,96;-8,76;-16,96;-8,76;1,72;1,88;1,72;1,88;0;0;
15670;-16,72;-9,74;-16,72;-9,74;1,54;1,88;1,54;1,88;0;0;
15687;-18,63;-7,14;-18,63;-7,14;1,59;1,83;1,59;1,83;0;0;
15706;-19,2;-4,4;-19,2;-4,4;1,67;1,81;1,67;1,81;0;0;
15723;-16,62;-8,87;-16,62;-8,87;1,78;1,89;1,78;1,89;0;0;
15739;-16,62;-8,87;-16,62;-8,87;1,87;1,8;1,87;1,8;0;0;
15755;-16,44;-6,54;-16,44;-6,54;2,03;1,66;2,03;1,66;0;0;
15771;-15,88;-10,11;-15,88;-10,11;2,04;1,52;2,04;1,52;0;0;
15790;-13,1;-6,39;-13,1;-6,39;2,08;1,51;2,08;1,51;1;0;
15807;-14,07;-6,1;-14,07;-6,1;1,98;1,52;1,98;1,52;1;0;
15825;-17,06;-6,87;-17,06;-6,87;1,91;1,6;1,91;1,6;1;0;
15841;-14,54;-9,42;-14,54;-9,42;1,83;1,59;1,83;1,59;1;0;
15861;-22,86;-0,22;-22,86;-0,22;1,83;2,54;1,83;2,54;1;0;
15880;-22,86;-0,22;-22,86;-0,22;1,95;3,36;1,95;3,36;1;0;
15895;4,97;54,32;4,97;54,32;3,5;21,64;3,5;21,64;1;0;
15913;-35,81;-126,6;-35,81;-126,6;5,67;40,67;5,67;40,67;1;0;
15930;-3,79;43,42;-3,79;43,42;7,33;55,86;7,33;55,86;1;0;
15947;-7,52;-85,6;-7,52;-85,6;8,22;66,6;8,22;66,6;1;0;
15964;-28,21;-55,01;-28,21;-55,01;8,54;79,58;8,54;79,58;1;0;
15982;-16,86;34,09;-16,86;34,09;8,51;80,65;8,51;80,65;1;0;
16002;-10,47;125,68;-10,47;125,68;7,2;87,55;7,2;87,55;1;0;
16020;-17,51;-45,83;-17,51;-45,83;5,16;82,06;5,16;82,06;1;0;
16036;-17,51;-45,83;-17,51;-45,83;4,16;75,87;4,16;75,87;1;0;
16054;-19,35;-13,08;-19,35;-13,08;3,58;65,81;3,58;65,81;1;0;
16073;-16,68;-132,21;-16,68;-132,21;3,05;55,81;3,05;55,81;1;0;
16091;-5,67;-41,57;-5,67;-41,57;2,97;43,62;2,97;43,62;1;0;
16110;-13,33;-27,37;-13,33;-27,37;4,18;37,59;4,18;37,59;1;0;
16129;-21,14;-8,38;-21,14;-8,38;4,33;30,21;4,33;30,21;0;0;
16148;-19,95;-126,32;-19,95;-126,32;4,16;32,26;4,16;32,26;0;0;
16164;-15,16;-65,42;-15,16;-65,42;4,34;41,86;4,34;41,86;0;0;
16187;-15,02;-22,16;-15,02;-22,16;4,34;35,92;4,34;35,92;0;0;
16206;-18,44;-23,11;-18,44;-23,11;3,4;34,21;3,4;34,21;0;0;
16226;-18,69;-21,8;-18,69;-21,8;2,46;37,19;2,46;37,19;0;0;
16242;-16,44;-18,74;-16,44;-18,74;2,09;38,43;2,09;38,43;0;0;
16260;-13,66;7,85;-13,66;7,85;1,93;25,05;1,93;25,05;0;0;
16278;-13,66;7,85;-13,66;7,85;1,73;20,85;1,73;20,85;0;0;
16296;-15,57;-9,41;-15,57;-9,41;1,63;17,95;1,63;17,95;0;0;
16316;-12,39;-41,73;-12,39;-41,73;1,82;15,84;1,82;15,84;0;0;
16337;-18,2;-56,25;-18,2;-56,25;2,08;15,58;2,08;15,58;0;0;
16359;-16,99;-12,53;-16,99;-12,53;2,25;15,61;2,25;15,61;0;0;
16377;-17,59;-12,98;-17,59;-12,98;2,26;15,09;2,26;15,09;0;0;
16395;-16,75;-7,47;-16,75;-7,47;2,36;13,8;2,36;13,8;0;0;
16413;-18,52;-10,13;-18,52;-10,13;2,41;9,16;2,41;9,16;0;0;
16432;-16,43;-4,03;-16,43;-4,03;2,15;5,46;2,15;5,46;0;0;
16450;-20,07;-12;-20,07;-12;2,05;3,2;2,05;3,2;0;0;
16470;-15,95;-8,83;-15,95;-8,83;2;2,49;2;2,49;0;0;
16489;-16;-10,71;-16;-10,71;2,25;2,27;2,25;2,27;0;0;
16507;-19,97;-6,77;-19,97;-6,77;2,19;2,16;2,19;2,16;0;0;
16525;-17,09;-6,56;-17,09;-6,56;2,08;2,03;2,08;2,03;0;0;
16543;-14,44;-5,95;-14,44;-5,95;2,08;1,77;2,08;1,77;0;0;
16562;-13;-3,67;-13;-3,67;1,97;1,84;1,97;1,84;0;0;
16577;-13;-3,67;-13;-3,67;1,98;1,73;1,98;1,73;0;0;
16595;-17,77;-4,56;-17,77;-4,56;1,91;1,54;1,91;1,54;0;0;
16614;-19,7;-11,07;-19,7;-11,07;1,82;1,56;1,82;1,56;0;0;
16632;-17,81;-7,06;-17,81;-7,06;1,91;1,62;1,91;1,62;0;0;
16651;-14,67;-6,45;-14,67;-6,45;1,85;1,68;1,85;1,68;0;0;
16667;-15,96;-9,39;-15,96;-9,39;1,95;1,77;1,95;1,77;0;0;
16686;-16,13;-7,46;-16,13;-7,46;1,81;1,92;1,81;1,92;0;0;
16704;-15,63;-3,43;-15,63;-3,43;1,88;1,97;1,88;1,97;0;0;
16723;-16,9;-3,39;-16,9;-3,39;1,78;2,06;1,78;2,06;0;0;
16741;-18,87;-3,97;-18,87;-3,97;1,77;2,15;1,77;2,15;0;0;
16759;-18,87;-3,97;-18,87;-3,97;1,93;2,08;1,93;2,08;0;0;
16776;-14,3;-8,36;-14,3;-8,36;1,71;1,93;1,71;1,93;0;0;
16794;-15,56;-5,48;-15,56;-5,48;1,62;1,84;1,62;1,84;0;0;
16811;-17,6;-8,92;-17,6;-8,92;1,7;1,86;1,7;1,86;0;0;
16828;-15,39;-6,07;-15,39;-6,07;1,71;2,04;1,71;2,04;0;0;
16846;-21,98;-4,23;-21,98;-4,23;1,66;2;1,66;2;0;0;
16866;-17,29;-5,99;-17,29;-5,99;1,67;1,92;1,67;1,92;0;0;
16885;-13,56;-7,95;-13,56;-7,95;1,69;1,89;1,69;1,89;0;0;
16901;-19,08;-6,92;-19,08;-6,92;1,8;1,68;1,8;1,68;0;0;
16919;-19,08;-6,92;-19,08;-6,92;1,81;1,45;1,81;1,45;0;0;
16934;-16,6;-5,16;-16,6;-5,16;1,85;1,39;1,85;1,39;0;0;
16951;-18,02;-8,82;-18,02;-8,82;1,78;1,49;1,78;1,49;0;0;
16971;-13,45;-9,38;-13,45;-9,38;1,92;1,6;1,92;1,6;0;0;
16989;-19,25;-7,65;-19,25;-7,65;2,06;1,66;2,06;1,66;0;0;
17006;-18,32;-3,86;-18,32;-3,86;2,01;1,84;2,01;1,84;0;0;
17023;-19,72;-3,86;-19,72;-3,86;1,99;1,81;1,99;1,81;0;0;
17040;-13,71;-10,07;-13,71;-10,07;2,11;1,89;2,11;1,89;0;0;
17057;-13,71;-10,07;-13,71;-10,07;2,27;1,85;2,27;1,85;0;0;
17074;-15,39;-8,77;-15,39;-8,77;2,34;1,85;2,34;1,85;0;0;
17091;-15,97;-8,52;-15,97;-8,52;2,31;1,82;2,31;1,82;0;0;
17109;-14,79;-6,04;-14,79;-6,04;2,26;1,73;2,26;1,73;0;0;
17127;-13,76;-5,68;-13,76;-5,68;2,13;1,66;2,13;1,66;0;0;
17143;-18,36;-4,19;-18,36;-4,19;2,04;1,72;2,04;1,72;0;0;
17159;-18,36;-4,19;-18,36;-4,19;1,93;1,8;1,93;1,8;0;0;
17177;-15,98;-10,85;-15,98;-10,85;1,89;1,75;1,89;1,75;0;0;
17194;-16,76;-6,7;-16,76;-6,7;1,76;1,88;1,76;1,88;0;0;
17214;-10,99;-8,94;-10,99;-8,94;1,89;1,9;1,89;1,9;0;0;
17232;-15,56;-6,93;-15,56;-6,93;1,79;1,92;1,79;1,92;0;0;
17250;-18,17;-5,08;-18,17;-5,08;1,75;1,81;1,75;1,81;0;0;
17267;-18,59;-6,18;-18,59;-6,18;1,59;1,58;1,59;1,58;0;0;
17286;-18,66;-9,12;-18,66;-9,12;1,66;1,66;1,66;1,66;0;0;
17303;-13,64;-5,03;-13,64;-5,03;1,72;1,75;1,72;1,75;0;0;
17321;-14,6;-9,11;-14,6;-9,11;1,82;1,81;1,82;1,81;0;0;
17338;-14,6;-9,11;-14,6;-9,11;2,01;1,84;2,01;1,84;0;0;
17355;-20,76;-1,23;-20,76;-1,23;2,14;2,06;2,14;2,06;0;0;
17374;-14,36;-9,4;-14,36;-9,4;2,04;2,1;2,04;2,1;0;0;
17392;-16,4;-8,03;-16,4;-8,03;2,15;1,98;2,15;1,98;0;0;
17410;-14,86;-7,13;-14,86;-7,13;2,36;1,92;2,36;1,92;0;0;
17429;-15,16;-7,31;-15,16;-7,31;2,27;1,92;2,27;1,92;0;0;
17447;-14,27;-4,05;-14,27;-4,05;2,22;1,9;2,22;1,9;0;0;
17465;-16;-8,35;-16;-8,35;2,12;1,71;2,12;1,71;0;0;
17485;-21,92;-7,06;-21,92;-7,06;2,07;1,6;2,07;1,6;0;0;
17508;-13,72;-13,42;-13,72;-13,42;2,03;1,56;2,03;1,56;0;0;
17527;-18,77;-5,08;-18,77;-5,08;1,89;1,57;1,89;1,57;0;0;
17546;-20;-6,47;-20;-6,47;1,97;1,53;1,97;1,53;0;0;
17565;-16,45;-10,95;-16,45;-10,95;2,03;1,67;2,03;1,67;0;0;
17585;-17,37;-5,34;-17,37;-5,34;2,06;1,79;2,06;1,79;0;0;
17602;-19,45;-7,39;-19,45;-7,39;2,24;1,87;2,24;1,87;0;0;
17621;-18,42;-9,66;-18,42;-9,66;2,22;1,86;2,22;1,86;0;0;
17639;-18,42;-9,66;-18,42;-9,66;2,2;1,97;2,2;1,97;0;0;
17657;-16,96;-3,73;-16,96;-3,73;1,79;2;1,79;2;0;0;
17674;-12,48;-5,12;-12,48;-5,12;1,92;1,86;1,92;1,86;0;0;
17692;-13,65;-6,28;-13,65;-6,28;1,9;1,96;1,9;1,96;0;0;
17708;-19,29;-8,03;-19,29;-8,03;3,77;1,89;3,77;1,89;0;0;
17728;-12,29;-6,85;-12,29;-6,85;3,97;1,82;3,97;1,82;1;0;
17748;32,83;-6,84;32,83;-6,84;5,58;1,91;5,58;1,91;1;0;
17765;157,39;-0,29;157,39;-0,29;26,03;2,19;26,03;2,19;1;0;
17783;-511,46;-6,55;-511,46;-6,55;46,47;2,42;46,47;2,42;1;0;
17799;-511,46;-6,55;-511,46;-6,55;65,18;2,56;65,18;2,56;1;0;
17816;8,14;-8,13;8,14;-8,13;93,52;3,28;93,52;3,28;1;0;
17833;428,38;-2,45;428,38;-2,45;115,65;3,52;115,65;3,52;1;0;
17852;-10,48;-10,32;-10,48;-10,32;123,01;3,79;123,01;3,79;1;0;
17870;-160,74;-5,35;-160,74;-5,35;113,29;3,55;113,29;3,55;1;0;
17887;165,35;-8,48;165,35;-8,48;113,42;3,59;113,42;3,59;1;0;
17905;38,78;-10,32;38,78;-10,32;100,93;3,3;100,93;3,3;1;0;
17924;182,32;-9,51;182,32;-9,51;113,39;3,11;113,39;3,11;1;0;
17942;38,52;-4,21;38,52;-4,21;93,19;2,93;93,19;2,93;1;0;
17959;38,52;-4,21;38,52;-4,21;83,82;3,01;83,82;3,01;1;0;
17977;170,25;-11,4;170,25;-11,4;104,96;2,95;104,96;2,95;1;0;
17994;-87,14;-4,1;-87,14;-4,1;98,99;2,96;98,99;2,96;1;0;
18012;-186,38;-3,01;-186,38;-3,01;97,9;3,1;97,9;3,1;1;0;
18031;53,04;-9,56;53,04;-9,56;88,87;2,95;88,87;2,95;1;0;
18049;-42,35;-3,89;-42,35;-3,89;103,4;2,69;103,4;2,69;1;0;
18065;-54,08;-9,87;-54,08;-9,87;95,02;2,88;95,02;2,88;0;0;
18082;-23,08;-7,25;-23,08;-7,25;66,01;2,87;66,01;2,87;0;0;
18100;55,04;-7,42;55,04;-7,42;56,24;2,68;56,24;2,68;0;0;
18122;-51,16;-8,54;-51,16;-8,54;57,32;2,34;57,32;2,34;0;0;
18139;-51,16;-8,54;-51,16;-8,54;59,09;2,15;59,09;2,15;0;0;
18157;-13,71;-7,63;-13,71;-7,63;44,36;2,06;44,36;2,06;0;0;
18175;-12,84;-7,78;-12,84;-7,78;41,81;1,88;41,81;1,88;0;0;
18195;-14,77;-9,99;-14,77;-9,99;39,94;1,89;39,94;1,89;0;0;
18211;-35,27;-4,01;-35,27;-4,01;33,26;1,76;33,26;1,76;0;0;
18230;-58,28;-10,36;-58,28;-10,36;24,8;1,86;24,8;1,86;0;0;
18251;-27,89;-7,66;-27,89;-7,66;18,81;2,06;18,81;2,06;0;0;
18271;-14,99;-10,06;-14,99;-10,06;18,68;1,93;18,68;1,93;0;0;
18290;-16,16;-5,21;-16,16;-5,21;18,6;2,12;18,6;2,12;0;0;
18308;-19,35;-11,21;-19,35;-11,21;18,69;2,1;18,69;2,1;0;0;
18328;-17,6;5,12;-17,6;5,12;16,14;3,59;16,14;3,59;0;0;
18345;-16,34;-5,99;-16,34;-5,99;4,92;3,48;4,92;3,48;0;0;
18363;-18,26;-10,81;-18,26;-10,81;1,99;3,34;1,99;3,34;0;0;
18381;-15,79;-4,91;-15,79;-4,91;1,95;3,3;1,95;3,3;0;0;
18399;-15,79;-4,91;-15,79;-4,91;2,12;3,4;2,12;3,4;0;0;
18417;-12,15;-7,19;-12,15;-7,19;2,41;3,32;2,41;3,32;0;0;
18435;-20,77;-7,41;-20,77;-7,41;2,41;1,91;2,41;1,91;0;0;
18454;-12,54;-7,23;-12,54;-7,23;2,61;1,87;2,61;1,87;0;0;
18472;-18,27;-4,9;-18,27;-4,9;2,66;1,9;2,66;1,9;0;0;
18490;-14,8;-4,48;-14,8;-4,48;2,61;1,89;2,61;1,89;0;0;
18507;-17,45;-4,47;-17,45;-4,47;2,53;1,85;2,53;1,85;0;0;
18525;-19,61;-7,09;-19,61;-7,09;2,48;1,83;2,48;1,83;0;0;
18545;-15,19;-8,08;-15,19;-8,08;2,38;1,82;2,38;1,82;0;0;
18563;-21,2;-6,97;-21,2;-6,97;2,36;1,91;2,36;1,91;0;0;
18583;-14,14;-7,89;-14,14;-7,89;2,37;1,81;2,37;1,81;0;0;
18604;-19,77;-6,38;-19,77;-6,38;2,17;1,49;2,17;1,49;0;0;
18623;-14,51;-4,35;-14,51;-4,35;2,41;1,47;2,41;1,47;0;0;
18641;-16,86;-12,42;-16,86;-12,42;2,41;1,65;2,41;1,65;0;0;
18660;-16,59;-6,69;-16,59;-6,69;2,34;1,55;2,34;1,55;0;0;
18677;-16,59;-6,69;-16,59;-6,69;2,44;1,35;2,44;1,35;0;0;
18693;-17,82;-8,38;-17,82;-8,38;2,63;1,37;2,63;1,37;0;0;
18712;-13,84;-6,67;-13,84;-6,67;2,59;1,36;2,59;1,36;0;0;
18730;-18,75;-8,7;-18,75;-8,7;2,5;1,2;2,5;1,2;0;0;
18748;-16,32;-6,95;-16,32;-6,95;2,65;1,18;2,65;1,18;0;0;
18764;-14,03;-9,25;-14,03;-9,25;2,82;1,21;2,82;1,21;0;0;
18783;-13,42;-7,05;-13,42;-7,05;2,85;1,34;2,85;1,34;0;0;
18801;-18,03;-1,61;-18,03;-1,61;2,63;1,46;2,63;1,46;0;0;
18817;-18,03;-1,61;-18,03;-1,61;2,53;1,55;2,53;1,55;0;0;
18834;-16,24;-8,27;-16,24;-8,27;2,66;1,53;2,66;1,53;0;0;
18852;-14,63;-8,36;-14,63;-8,36;2,37;1,45;2,37;1,45;0;0;
18872;-18,31;-5,69;-18,31;-5,69;2,06;1,45;2,06;1,45;0;0;
18890;-8,96;-3,89;-8,96;-3,89;1,97;1,48;1,97;1,48;0;0;
18907;-19,14;-6,41;-19,14;-6,41;1,9;1,49;1,9;1,49;0;0;
18931;-11,95;-9,63;-11,95;-9,63;1,89;1,51;1,89;1,51;0;0;
18948;-19,08;-7,04;-19,08;-7,04;2,12;1,54;2,12;1,54;0;0;
18964;-14,78;-7,88;-14,78;-7,88;2,4;1,68;2,4;1,68;0;0;
18983;-12,95;-4,97;-12,95;-4,97;2,63;1,72;2,63;1,72;0;0;
19001;-17,06;-8,41;-17,06;-8,41;2,65;1,61;2,65;1,61;0;0;
19017;-17,06;-8,41;-17,06;-8,41;2,72;1,51;2,72;1,51;0;0;
19033;-16,62;-8,12;-16,62;-8,12;2,38;1,53;2,38;1,53;0;0;
19052;-17,97;-8,84;-17,97;-8,84;2,27;1,52;2,27;1,52;0;0;
19069;-19,11;-8,39;-19,11;-8,39;2,11;1,59;2,11;1,59;0;0;
19087;-18,22;-5,55;-18,22;-5,55;1,91;1,64;1,91;1,64;0;0;
19103;-16,09;-7,67;-16,09;-7,67;1,99;1,92;1,99;1,92;0;0;
19121;-15,54;-9,11;-15,54;-9,11;2;2;2;2;0;0;
19138;-15,54;-9,11;-15,54;-9,11;1,88;2,02;1,88;2,02;0;0;
19155;-16,01;-5,69;-16,01;-5,69;1,95;1,86;1,95;1,86;0;0;
19172;-16,95;-10,45;-16,95;-10,45;2,04;2,06;2,04;2,06;0;0;
19191;-17,6;-8,69;-17,6;-8,69;1,78;2,14;1,78;2,14;0;0;
19209;-15,64;-10,35;-15,64;-10,35;1,78;2;1,78;2;0;0;
19226;-14,89;-8,68;-14,89;-8,68;1,78;2,15;1,78;2,15;0;0;
19245;-18,04;-9,59;-18,04;-9,59;1,67;2,2;1,67;2,2;0;0;
19264;-17,87;-5,72;-17,87;-5,72;1,78;2,15;1,78;2,15;0;0;
19280;-18,35;-5,72;-18,35;-5,72;1,84;2,01;1,84;2,01;0;0;
19298;-18,35;-5,72;-18,35;-5,72;1,92;1,89;1,92;1,89;0;0;
19315;-14,72;-10,85;-14,72;-10,85;1,99;1,86;1,99;1,86;0;0;
19333;-14,23;-8,96;-14,23;-8,96;1,95;1,88;1,95;1,88;0;0;
19353;-16,51;-4,91;-16,51;-4,91;1,9;2;1,9;2;0;0;
19371;-12,27;-9,72;-12,27;-9,72;1,88;1,88;1,88;1,88;0;0;
19389;-14,68;-9,07;-14,68;-9,07;1,79;1,82;1,79;1,82;0;0;
19407;-13,42;-7,04;-13,42;-7,04;1,73;1,77;1,73;1,77;0;0;
19425;-14,12;-6,67;-14,12;-6,67;1,7;1,78;1,7;1,78;0;0;
19442;-16,47;-10,09;-16,47;-10,09;1,83;1,6;1,83;1,6;0;0;
19460;-12,47;-5,47;-12,47;-5,47;1,78;1,71;1,78;1,71;0;0;
19479;-12,47;-5,47;-12,47;-5,47;1,69;1,79;1,69;1,79;0;0;
19495;-12,69;-5,93;-12,69;-5,93;1,8;1,83;1,8;1,83;1;0;
19513;-12,84;-9,83;-12,84;-9,83;2,04;1,99;2,04;1,99;1;0;
19533;-22,63;-6,07;-22,63;-6,07;2,12;1,74;2,12;1,74;1;0;
19551;-17,38;-7,18;-17,38;-7,18;2,14;1,76;2,14;1,76;1;0;
19569;-234,65;-11,18;-234,65;-11,18;23,74;2,66;23,74;2,66;1;0;
19587;130,69;6,47;130,69;6,47;58,61;3,52;58,61;3,52;1;0;
19604;-81,7;-5,43;-81,7;-5,43;97,27;4,46;97,27;4,46;1;0;
19622;-55,89;-12,37;-55,89;-12,37;112,31;4,58;112,31;4,58;1;0;
19639;-55,89;-12,37;-55,89;-12,37;127,31;4,81;127,31;4,81;1;0;
19658;-72,3;-13,92;-72,3;-13,92;145,03;5,47;145,03;5,47;1;0;
19678;452,28;-12,38;452,28;-12,38;141,54;4,83;141,54;4,83;0;0;
19704;-109,73;-7,97;-109,73;-7,97;148,87;4,94;148,87;4,94;0;0;
19726;-218,13;-15,05;-218,13;-15,05;168,64;5,19;168,64;5,19;0;0;
19743;23,56;-13,23;23,56;-13,23;174,79;4,86;174,79;4,86;0;0;
19761;84,14;-1,75;84,14;-1,75;164,88;4,67;164,88;4,67;0;0;
19779;84,14;-1,75;84,14;-1,75;174,05;4,33;174,05;4,33;0;0;
19795;-213,11;-4,42;-213,11;-4,42;147,3;4,08;147,3;4,08;0;0;
19813;-96,16;-12,75;-96,16;-12,75;133,79;3,97;133,79;3,97;0;0;
19830;60,79;-9,79;60,79;-9,79;115,96;3,45;115,96;3,45;0;0;
19852;-29,42;-6,95;-29,42;-6,95;100,29;3,23;100,29;3,23;0;0;
19871;-20,05;-8,35;-20,05;-8,35;87,45;2,96;87,45;2,96;0;0;
19889;-15,58;-4,45;-15,58;-4,45;65,75;2,66;65,75;2,66;0;0;
19907;-17,63;-13,16;-17,63;-13,16;48,29;2,2;48,29;2,2;0;0;
19925;-15,85;-7,56;-15,85;-7,56;32,91;2,05;32,91;2,05;0;0;
19942;-31,82;-6,09;-31,82;-6,09;22,31;2,01;22,31;2,01;0;0;
19960;72,84;-4,34;72,84;-4,34;15,16;2;15,16;2;0;0;
19977;72,84;-4,34;72,84;-4,34;18,9;2,06;18,9;2,06;0;0;
19997;-39,56;-4,84;-39,56;-4,84;21,34;1,89;21,34;1,89;0;0;
20015;-15,48;-8,64;-15,48;-8,64;21,48;2,06;21,48;2,06;0;0;
20033;-17,49;-10;-17,49;-10;18,45;2,07;18,45;2,07;0;0;
20053;-18,39;-4,73;-18,39;-4,73;13,79;1,98;13,79;1,98;0;0;
20072;-12,74;-2,12;-12,74;-2,12;8,44;1,99;8,44;1,99;0;0;
20091;-17,37;-8,59;-17,37;-8,59;4,36;1,94;4,36;1,94;0;0;
20109;-13,84;-7,38;-13,84;-7,38;1,93;1,97;1,93;1,97;0;0;
20128;-20,61;-5,59;-20,61;-5,59;2,15;2,01;2,15;2,01;0;0;
20147;-15,92;-5,47;-15,92;-5,47;2,11;1,9;2,11;1,9;0;0;
20163;-19,58;-8,19;-19,58;-8,19;1,95;1,87;1,95;1,87;0;0;
20181;-16,85;-7,54;-16,85;-7,54;1,91;1,67;1,91;1,67;0;0;
20200;-13,87;-7,41;-13,87;-7,41;1,96;1,59;1,96;1,59;0;0;
20218;-13,87;-7,41;-13,87;-7,41;1,9;1,41;1,9;1,41;0;0;
20259;-16,45;-2,93;-16,45;-2,93;1,7;1,39;1,7;1,39;0;0;
20277;-14,74;-6,05;-14,74;-6,05;1,72;1,53;1,72;1,53;0;0;
20296;-17,93;-8,4;-17,93;-8,4;1,7;1,56;1,7;1,56;0;0;
20314;-16,01;-9,19;-16,01;-9,19;1,76;1,54;1,76;1,54;0;0;
20332;-16,34;-8,37;-16,34;-8,37;1,84;1,87;1,84;1,87;0;0;
20350;-16;-7,3;-16;-7,3;1,8;1,93;1,8;1,93;0;0;
20367;-14,56;-8,9;-14,56;-8,9;1,9;1,88;1,9;1,88;0;0;
20383;-21,21;-8,22;-21,21;-8,22;2,08;1,88;2,08;1,88;0;0;
20401;-17,15;-11,46;-17,15;-11,46;2,09;1,95;2,09;1,95;0;0;
20420;-16,06;-7,28;-16,06;-7,28;2,03;1,92;2,03;1,92;0;0;
20443;-13,81;-5,71;-13,81;-5,71;2,03;1,54;2,03;1,54;0;0;
20463;-15,74;-4,92;-15,74;-4,92;2,15;1,85;2,15;1,85;0;0;
20483;-17,14;-10,27;-17,14;-10,27;2;1,87;2;1,87;0;0;
20498;-17,14;-10,27;-17,14;-10,27;1,64;2,02;1,64;2,02;0;0;
20516;-11,36;-3,75;-11,36;-3,75;1,85;1,87;1,85;1,87;0;0;
20533;-11,48;-7,78;-11,48;-7,78;1,93;1,88;1,93;1,88;0;0;
20550;-21,75;-5,67;-21,75;-5,67;1,9;2,04;1,9;2,04;0;0;
20569;-11,37;-1,39;-11,37;-1,39;1,97;1,78;1,97;1,78;0;0;
20588;-15,9;-4;-15,9;-4;2,21;1,76;2,21;1,76;0;0;
20608;-13,9;-5,89;-13,9;-5,89;2,12;1,9;2,12;1,9;0;0;
20629;-15,64;-7,9;-15,64;-7,9;1,93;1,9;1,93;1,9;0;0;
20648;-12,97;-7,6;-12,97;-7,6;1,9;1,95;1,9;1,95;0;0;
20665;-17,86;-5,32;-17,86;-5,32;1,93;2,13;1,93;2,13;0;0;
20682;-17,35;-5,69;-17,35;-5,69;1,87;2,12;1,87;2,12;0;0;
20699;-17,35;-5,69;-17,35;-5,69;1,85;2,21;1,85;2,21;0;0;
20716;-22,04;-4,98;-22,04;-4,98;1,98;2,22;1,98;2,22;0;0;
20734;-15,45;-6,96;-15,45;-6,96;2,23;2,36;2,23;2,36;0;0;
20751;-15,11;-7,83;-15,11;-7,83;2,12;2,28;2,12;2,28;0;0;
20768;-17,27;-11,21;-17,27;-11,21;1,98;2,18;1,98;2,18;0;0;
20786;-18,67;-4,21;-18,67;-4,21;2,03;2,34;2,03;2,34;0;0;
20804;-17,21;-9,58;-17,21;-9,58;1,9;2,14;1,9;2,14;0;0;
20821;-17,6;-3,36;-17,6;-3,36;1,65;2,32;1,65;2,32;0;0;
20838;-17,6;-3,36;-17,6;-3,36;1,71;2,36;1,71;2,36;0;0;
20856;-18,74;-4,6;-18,74;-4,6;1,85;2,27;1,85;2,27;0;0;
20875;-15,35;-8,29;-15,35;-8,29;1,99;2,31;1,99;2,31;0;0;
20892;-18,57;-6,23;-18,57;-6,23;1,9;2,06;1,9;2,06;0;0;
20910;-15,36;-6,31;-15,36;-6,31;2,13;1,91;2,13;1,91;0;0;
20929;-13,3;-7,4;-13,3;-7,4;2,38;1,64;2,38;1,64;0;0;
20945;-17,85;-7,67;-17,85;-7,67;2,5;1,57;2,5;1,57;0;0;
20962;-13,18;-12,28;-13,18;-12,28;2,39;1,68;2,39;1,68;0;0;
20981;-20,25;-6,85;-20,25;-6,85;2,44;2,15;2,44;2,15;0;0;
20999;-20,25;-6,85;-20,25;-6,85;2,36;2,55;2,36;2,55;0;0;
21016;-17,81;-6,04;-17,81;-6,04;2,28;2,74;2,28;2,74;0;0;
21033;-13,23;-3,73;-13,23;-3,73;2,14;2,91;2,14;2,91;0;0;
21051;-16,76;-5,67;-16,76;-5,67;2,16;2,86;2,16;2,86;0;0;
21068;-14,45;-4,41;-14,45;-4,41;2,01;2,6;2,01;2,6;0;0;
21084;-15,35;-8,25;-15,35;-8,25;2,09;2,23;2,09;2,23;0;0;
21101;-18,11;-7,65;-18,11;-7,65;2,32;2,01;2,32;2,01;0;0;
21120;-20,76;-8,13;-20,76;-8,13;2,27;1,78;2,27;1,78;0;0;
21138;-20,76;-8,13;-20,76;-8,13;2,28;1,62;2,28;1,62;0;0;
21154;-17,39;-8,15;-17,39;-8,15;2,3;1,85;2,3;1,85;0;0;
21170;-18,91;-8,82;-18,91;-8,82;2,15;1,65;2,15;1,65;0;0;
21190;-11,22;-10,22;-11,22;-10,22;1,87;1,66;1,87;1,66;0;0;
21206;-11,22;-10,22;-11,22;-10,22;1,66;1,71;1,66;1,71;0;0;
21223;-18,39;-5,59;-18,39;-5,59;1,71;1,95;1,71;1,95;0;0;
21240;-15,95;-8,28;-15,95;-8,28;1,67;1,98;1,67;1,98;0;0;
21256;-15,95;-8,28;-15,95;-8,28;1,71;2,07;1,71;2,07;0;0;
21274;-17,08;-7,04;-17,08;-7,04;1,69;2,12;1,69;2,12;0;0;
21290;-16,55;-9,46;-16,55;-9,46;1,67;2,11;1,67;2,11;0;0;
21307;-21,26;-8,12;-21,26;-8,12;1,74;2,08;1,74;2,08;0;0;
21326;-14,77;-5,7;-14,77;-5,7;1,7;2,01;1,7;2,01;0;0;
21343;-16,33;-8,87;-16,33;-8,87;1,68;1,9;1,68;1,9;1;0;
21359;-16,33;-8,87;-16,33;-8,87;1,65;1,84;1,65;1,84;1;0;
21376;-14,92;-7,98;-14,92;-7,98;1,9;1,91;1,9;1,91;1;0;
21394;-28,02;-7,52;-28,02;-7,52;2,33;1,91;2,33;1,91;1;0;
21412;-470,96;21,81;-470,96;21,81;31,21;2,83;31,21;2,83;1;0;
21430;75,04;3,76;75,04;3,76;70,36;3,96;70,36;3,96;1;0;
21449;106,75;-0,98;106,75;-0,98;89,84;4,59;89,84;4,59;1;0;
21466;-64,21;-4,84;-64,21;-4,84;112,08;4,91;112,08;4,91;1;0;
21486;-263,62;-6,34;-263,62;-6,34;123,99;4,96;123,99;4,96;1;0;
21503;-30,9;-5,9;-30,9;-5,9;120,32;5,12;120,32;5,12;1;0;
21524;-380,02;-13,59;-380,02;-13,59;113,37;4,01;113,37;4,01;0;0;
21546;-152,13;-11,88;-152,13;-11,88;101,88;3,43;101,88;3,43;0;0;
21564;-18,21;-5,73;-18,21;-5,73;92,64;3,18;92,64;3,18;0;0;
21583;-113,2;-0,3;-113,2;-0,3;86,53;3,2;86,53;3,2;0;0;
21601;70,28;-7,93;70,28;-7,93;86,35;3,27;86,35;3,27;0;0;
21623;-127,48;-9,37;-127,48;-9,37;77,15;3,16;77,15;3,16;0;0;
21641;-81,17;-6,57;-81,17;-6,57;65,77;2,8;65,77;2,8;0;0;
21657;-81,17;-6,57;-81,17;-6,57;68,24;2,61;68,24;2,61;0;0;
21675;-53,46;-8,61;-53,46;-8,61;71,27;2,54;71,27;2,54;0;0;
21692;-13,25;-10,84;-13,25;-10,84;67,05;2,36;67,05;2,36;0;0;
21709;-16,7;-6,61;-16,7;-6,61;58,63;2,33;58,63;2,33;0;0;
21728;-12,59;-6,79;-12,59;-6,79;42,65;2,15;42,65;2,15;0;0;
21746;-241,67;-10,75;-241,67;-10,75;31,23;1,98;31,23;1,98;0;0;
21765;-17,31;-10,04;-17,31;-10,04;26,72;1,94;26,72;1,94;0;0;
21782;30,5;-4,87;30,5;-4,87;27,12;2,07;27,12;2,07;0;0;
21801;-13,85;-8,59;-13,85;-8,59;27,06;1,9;27,06;1,9;0;0;
21819;-13,85;-8,59;-13,85;-8,59;27,11;1,84;27,11;1,84;0;0;
21835;-15,78;-7,43;-15,78;-7,43;27,25;1,95;27,25;1,95;0;0;
21854;-18,93;-5,85;-18,93;-5,85;13,41;1,85;13,41;1,85;0;0;
21872;-11,92;-5,42;-11,92;-5,42;6,7;1,5;6,7;1,5;0;0;
21889;-12,16;-7,52;-12,16;-7,52;3,05;1,46;3,05;1,46;0;0;
21907;-19,06;-6,43;-19,06;-6,43;4,37;1,62;4,37;1,62;0;0;
21924;-17,1;-9,24;-17,1;-9,24;4,09;1,71;4,09;1,71;0;0;
21942;-12,69;-3,65;-12,69;-3,65;4,08;1,75;4,08;1,75;0;0;
21958;-12,69;-3,65;-12,69;-3,65;3,87;1,74;3,87;1,74;0;0;
21978;-11,08;-7,28;-11,08;-7,28;4,17;1,89;4,17;1,89;0;0;
21995;-13,86;-8,39;-13,86;-8,39;2,44;2,19;2,44;2,19;0;0;
22014;-14,77;-7,42;-14,77;-7,42;2,38;2,17;2,38;2,17;0;0;
22031;-12,92;-5,34;-12,92;-5,34;2,43;2,07;2,43;2,07;0;0;
22050;-15,7;-8,49;-15,7;-8,49;2,16;1,95;2,16;1,95;0;0;
22068;-15,83;-5,92;-15,83;-5,92;1,89;1,93;1,89;1,93;0;0;
22089;-17,73;-7,74;-17,73;-7,74;1,71;1,83;1,71;1,83;0;0;
22107;-17,22;-6,32;-17,22;-6,32;1,57;1,68;1,57;1,68;0;0;
22126;-17,93;-8,26;-17,93;-8,26;1,7;1,69;1,7;1,69;0;0;
22145;-17,41;-6,61;-17,41;-6,61;1,65;1,86;1,65;1,86;0;0;
22164;-20,76;-3,59;-20,76;-3,59;1,93;1,86;1,93;1,86;0;0;
22183;-15,56;-6,99;-15,56;-6,99;1,82;1,92;1,82;1,92;0;0;
22200;-18,85;-6,97;-18,85;-6,97;1,97;1,83;1,97;1,83;0;0;
22216;-18,85;-6,97;-18,85;-6,97;1,96;1,67;1,96;1,67;0;0;
22233;-17,75;-10,25;-17,75;-10,25;2,15;1,69;2,15;1,69;0;0;
22251;-13,03;-10,42;-13,03;-10,42;2,19;1,67;2,19;1,67;0;0;
22267;-21,35;-6,04;-21,35;-6,04;2,44;1,6;2,44;1,6;0;0;
22287;-14,72;-9,13;-14,72;-9,13;2,38;1,72;2,38;1,72;0;0;
22303;-16,96;-5,68;-16,96;-5,68;2,32;1,8;2,32;1,8;0;0;
22323;-20,2;-9,22;-20,2;-9,22;2,17;2,01;2,17;2,01;0;0;
22341;-13,27;-4,15;-13,27;-4,15;1,97;1,87;1,97;1,87;0;0;
22358;-13,27;-4,15;-13,27;-4,15;1,75;1,77;1,75;1,77;0;0;
22375;-11,62;-6,59;-11,62;-6,59;1,76;1,87;1,76;1,87;0;0;
22392;-15,95;-2,88;-15,95;-2,88;1,93;1,84;1,93;1,84;0;0;
22409;-14,51;-5,34;-14,51;-5,34;1,95;1,86;1,95;1,86;0;0;
22426;-16,66;-10,85;-16,66;-10,85;1,92;1,64;1,92;1,64;0;0;
22443;-17,06;-6,39;-17,06;-6,39;1,99;1,8;1,99;1,8;0;0;
22461;-17,03;-4,61;-17,03;-4,61;1,93;1,76;1,93;1,76;0;0;
22478;-17,03;-4,61;-17,03;-4,61;1,66;1,86;1,66;1,86;0;0;
22495;-14,9;-6,24;-14,9;-6,24;1,69;1,79;1,69;1,79;0;0;
22513;-19,07;-7,24;-19,07;-7,24;1,71;1,73;1,71;1,73;0;0;
22532;-21,51;-3,72;-21,51;-3,72;1,75;1,61;1,75;1,61;0;0;
22550;-13,99;-7,17;-13,99;-7,17;1,88;1,63;1,88;1,63;0;0;
22573;-17,06;-7,02;-17,06;-7,02;1,99;1,57;1,99;1,57;0;0;
22590;-16,69;-6,19;-16,69;-6,19;1,91;1,62;1,91;1,62;0;0;
22607;-17,34;-9,5;-17,34;-9,5;1,77;1,63;1,77;1,63;0;0;
22623;-14,14;-7,66;-14,14;-7,66;1,86;1,61;1,86;1,61;0;0;
22639;-14,14;-7,66;-14,14;-7,66;1,75;1,57;1,75;1,57;0;0;
22657;-18,07;-7,77;-18,07;-7,77;1,78;1,58;1,78;1,58;0;0;
22675;-15,1;-2,63;-15,1;-2,63;1,83;1,64;1,83;1,64;0;0;
22692;-12,04;-6,53;-12,04;-6,53;2,03;1,27;2,03;1,27;0;0;
22709;-18,85;-4,17;-18,85;-4,17;2,04;1,34;2,04;1,34;0;0;
22726;-20,2;-7,78;-20,2;-7,78;2,07;1,45;2,07;1,45;0;0;
22743;-13,37;-10,32;-13,37;-10,32;1,95;1,6;1,95;1,6;0;0;
22760;-19,2;-12,09;-19,2;-12,09;1,87;1,61;1,87;1,61;0;0;
22780;-14,96;-4,71;-14,96;-4,71;1,89;1,75;1,89;1,75;0;0;
22797;-14,96;-4,71;-14,96;-4,71;1,72;1,82;1,72;1,82;0;0;
22814;-16,5;-7,83;-16,5;-7,83;1,76;1,81;1,76;1,81;0;0;
22830;-13,71;-5,17;-13,71;-5,17;1,84;1,86;1,84;1,86;0;0;
22848;-15,44;-6,83;-15,44;-6,83;1,84;1,8;1,84;1,8;0;0;
22867;-18,49;-4,16;-18,49;-4,16;1,86;1,74;1,86;1,74;0;0;
22885;-18,72;-3,61;-18,72;-3,61;1,92;1,66;1,92;1,66;0;0;
22902;-11,5;-10,94;-11,5;-10,94;2;1,95;2;1,95;0;0;
22920;-11,5;-10,94;-11,5;-10,94;1,96;2,19;1,96;2,19;0;0;
22936;-15,62;-5,78;-15,62;-5,78;2,15;2,09;2,15;2,09;0;0;
22953;-19,38;-5,51;-19,38;-5,51;2,16;2,11;2,16;2,11;0;0;
22970;-16,84;-7,65;-16,84;-7,65;2,31;2,16;2,31;2,16;0;0;
22987;-12,21;-4,58;-12,21;-4,58;2,45;2,2;2,45;2,2;0;0;
23004;-13,71;-8,89;-13,71;-8,89;2,31;2,02;2,31;2,02;0;0;
23021;-17,99;-5,56;-17,99;-5,56;2,13;1,89;2,13;1,89;0;0;
23037;-17,99;-5,56;-17,99;-5,56;1,85;2,02;1,85;2,02;0;0;
23055;-11,18;-14,89;-11,18;-14,89;1,87;2,04;1,87;2,04;0;0;
23071;-21,48;-7,25;-21,48;-7,25;1,81;1,94;1,81;1,94;0;0;
23089;-15,33;-5,79;-15,33;-5,79;1,79;1,82;1,79;1,82;1;0;
23106;-14,82;-9,19;-14,82;-9,19;1,83;1,77;1,83;1,77;1;0;
23125;-20;-7,68;-20;-7,68;1,88;1,54;1,88;1,54;1;0;
23142;-19,28;-9,1;-19,28;-9,1;2,03;1,5;2,03;1,5;1;0;
23158;-19,28;-9,1;-19,28;-9,1;2,08;1,37;2,08;1,37;1;0;
23176;-15,52;-8,77;-15,52;-8,77;2,04;1,28;2,04;1,28;1;0;
23193;23,37;-7,96;23,37;-7,96;12,76;1,39;12,76;1,39;1;0;
23210;-106,07;-30,68;-106,07;-30,68;34,03;3,02;34,03;3,02;1;0;
23228;193,24;-17,94;193,24;-17,94;63,36;5,32;63,36;5,32;1;0;
23245;0;-6,66;0;-6,66;66,51;6,25;66,51;6,25;1;0;
23262;-323,03;-1,58;-323,03;-1,58;95,69;6,96;95,69;6,96;1;0;
23286;108,53;-6,86;108,53;-6,86;105,65;7,54;105,65;7,54;1;0;
23302;31,95;2,34;31,95;2,34;110,62;7,27;110,62;7,27;1;0;
23321;-11,76;-5,66;-11,76;-5,66;115,26;5,65;115,26;5,65;1;0;
23344;-12,18;-12,33;-12,18;-12,33;98,64;4,7;98,64;4,7;1;0;
23358;-12,18;-12,33;-12,18;-12,33;93,76;4,3;93,76;4,3;1;0;
23376;-15,18;-7,99;-15,18;-7,99;62,1;3,51;62,1;3,51;1;0;
23395;-16,06;-7,12;-16,06;-7,12;54,82;3,05;54,82;3,05;1;0;
23412;-18,11;-8,55;-18,11;-8,55;21,41;2,37;21,41;2,37;1;0;
23431;-3,89;-9,43;-3,89;-9,43;4,65;1,98;4,65;1,98;0;0;
23451;149,16;-7,32;149,16;-7,32;18,68;2,06;18,68;2,06;0;0;
23469;-41,54;-6,57;-41,54;-6,57;24,07;1,85;24,07;1,85;0;0;
23490;-13,7;-9,07;-13,7;-9,07;24,83;1,79;24,83;1,79;0;0;
23508;-13,35;-6,69;-13,35;-6,69;24,97;1,78;24,97;1,78;0;0;
23528;-15,16;-11,1;-15,16;-11,1;24,91;1,98;24,91;1,98;0;0;
23548;-17,28;-8,38;-17,28;-8,38;16,8;2,1;16,8;2,1;0;0;
23565;-15,19;-11,1;-15,19;-11,1;5,64;1,89;5,64;1,89;0;0;
23583;-16,49;-7,83;-16,49;-7,83;2,25;1,76;2,25;1,76;0;0;
23600;-20,33;-8,05;-20,33;-8,05;1,64;1,79;1,64;1,79;0;0;
23620;-18,51;-9,34;-18,51;-9,34;1,59;1,85;1,59;1,85;0;0;
23638;-18,51;-9,34;-18,51;-9,34;1,72;1,88;1,72;1,88;0;0;
23656;-19,23;-8,03;-19,23;-8,03;1,95;1,93;1,95;1,93;0;0;
23675;-16,66;-8,73;-16,66;-8,73;1,89;1,94;1,89;1,94;0;0;
23695;-15,15;-7,4;-15,15;-7,4;2,01;1,95;2,01;1,95;0;0;
23715;-15,07;-6,57;-15,07;-6,57;2,1;2,05;2,1;2,05;0;0;
23732;-20,64;-11,1;-20,64;-11,1;1,95;1,88;1,95;1,88;0;0;
23749;-17,49;-11,99;-17,49;-11,99;1,93;1,76;1,93;1,76;0;0;
23765;-20,4;-9,62;-20,4;-9,62;1,91;1,85;1,91;1,85;0;0;
23784;-17,82;-5,16;-17,82;-5,16;2,1;1,79;2,1;1,79;0;0;
23801;-20,01;-8,64;-20,01;-8,64;2,07;1,82;2,07;1,82;0;0;
23817;-20,01;-8,64;-20,01;-8,64;2,07;1,81;2,07;1,81;0;0;
23834;-18,52;-7,19;-18,52;-7,19;2,43;1,8;2,43;1,8;0;0;
23850;-14,35;-8,39;-14,35;-8,39;2,38;1,6;2,38;1,6;0;0;
23868;-14,35;-8,39;-14,35;-8,39;2,19;1,53;2,19;1,53;0;0;
23885;-12,29;-8,61;-12,29;-8,61;2,12;1,5;2,12;1,5;0;0;
23902;-16,58;-7,04;-16,58;-7,04;1,93;1,39;1,93;1,39;0;0;
23919;-16,58;-7,04;-16,58;-7,04;1,51;1,38;1,51;1,38;0;0;
23937;-21,41;-4,41;-21,41;-4,41;1,59;1,22;1,59;1,22;0;0;
23953;-16,49;-3,46;-16,49;-3,46;1,79;1,37;1,79;1,37;0;0;
23971;-9,16;-8,89;-9,16;-8,89;1,77;1,57;1,77;1,57;0;0;
23990;-16,56;-7,6;-16,56;-7,6;1,69;1,76;1,69;1,76;0;0;
24006;-13,13;-6,19;-13,13;-6,19;1,94;1,82;1,94;1,82;0;0;
24024;-17,98;-10,77;-17,98;-10,77;2,17;2,03;2,17;2,03;0;0;
24042;-13,67;-5,7;-13,67;-5,7;1,97;1,85;1,97;1,85;0;0;
24060;-14,62;-6,06;-14,62;-6,06;1,81;1,91;1,81;1,91;0;0;
24077;-14,62;-6,06;-14,62;-6,06;1,72;1,83;1,72;1,83;0;0;
24094;-17,06;-8,76;-17,06;-8,76;1,92;1,76;1,92;1,76;0;0;
24111;-17,27;-9,93;-17,27;-9,93;1,83;1,58;1,83;1,58;0;0;
24129;-15,41;-3,96;-15,41;-3,96;1,66;1,68;1,66;1,68;0;0;
24146;-14,92;-6,41;-14,92;-6,41;1,77;1,58;1,77;1,58;0;0;
24163;-16,78;-8,58;-16,78;-8,58;2,02;1,56;2,02;1,56;0;0;
24181;-16,59;-4,9;-16,59;-4,9;1,94;1,54;1,94;1,54;0;0;
24197;-16,59;-4,9;-16,59;-4,9;1,99;1,63;1,99;1,63;0;0;
24214;-12,54;-6,06;-12,54;-6,06;2,06;1,59;2,06;1,59;0;0;
24232;-18,58;-5,69;-18,58;-5,69;2,16;1,44;2,16;1,44;0;0;
24250;-13,96;-5,85;-13,96;-5,85;2;1,43;2;1,43;0;0;
24266;-19,81;-6,79;-19,81;-6,79;1,91;1,49;1,91;1,49;0;0;
24283;-18,72;-10,36;-18,72;-10,36;1,86;1,62;1,86;1,62;0;0;
24300;-15,99;-9,4;-15,99;-9,4;1,9;1,61;1,9;1,61;0;0;
24319;-15,99;-9,4;-15,99;-9,4;1,74;1,63;1,74;1,63;0;0;
24343;-16,26;-3,76;-16,26;-3,76;1,82;1,63;1,82;1,63;0;0;
24363;-15,05;-5,23;-15,05;-5,23;1,92;1,94;1,92;1,94;0;0;
24384;-15,9;-12,69;-15,9;-12,69;1,78;2,01;1,78;2,01;0;0;
24404;-16,86;-7,24;-16,86;-7,24;1,74;1,92;1,74;1,92;0;0;
24424;-16,21;-5,07;-16,21;-5,07;1,73;1,94;1,73;1,94;0;0;
24446;-15,13;-8,4;-15,13;-8,4;1,7;1,9;1,7;1,9;0;0;
24467;-15,4;-7,38;-15,4;-7,38;1,86;1,85;1,86;1,85;0;0;
24489;-15,3;-6,43;-15,3;-6,43;2,1;1,57;2,1;1,57;0;0;
24511;-15,93;-9,54;-15,93;-9,54;2,2;1,67;2,2;1,67;0;0;
24532;-20,64;-7,39;-20,64;-7,39;2,29;1,64;2,29;1,64;0;0;
24550;-14,53;-5,48;-14,53;-5,48;2,43;1,78;2,43;1,78;0;0;
24570;-13,4;-5,92;-13,4;-5,92;2,3;1,96;2,3;1,96;0;0;
24589;-14,86;-8,77;-14,86;-8,77;2,15;1,92;2,15;1,92;0;0;
24605;-18,8;-6,15;-18,8;-6,15;1,99;1,94;1,99;1,94;0;0;
24622;-18,35;-10,56;-18,35;-10,56;2,13;1,85;2,13;1,85;0;0;
24637;-18,35;-10,56;-18,35;-10,56;2,17;1,71;2,17;1,71;0;0;
24656;-18;-6,99;-18;-6,99;2,04;1,63;2,04;1,63;0;0;
24673;-13,86;-7,39;-13,86;-7,39;2,04;1,63;2,04;1,63;0;0;
24691;-18,24;-6,25;-18,24;-6,25;2,19;1,88;2,19;1,88;0;0;
24708;-16,31;-10,09;-16,31;-10,09;2,03;1,64;2,03;1,64;0;0;
24725;-18,17;-6,56;-18,17;-6,56;1,93;1,6;1,93;1,6;0;0;
24741;-16,49;-7,7;-16,49;-7,7;2,16;1,52;2,16;1,52;0;0;
24760;-16,49;-7,7;-16,49;-7,7;2,38;1,42;2,38;1,42;0;0;
24776;-13,02;-7,16;-13,02;-7,16;2,26;1,53;2,26;1,53;0;0;
24794;-15,14;-7,43;-15,14;-7,43;2,11;1,41;2,11;1,41;0;0;
24812;-18,48;-5,48;-18,48;-5,48;2,15;1,48;2,15;1,48;0;0;
24826;-12,72;-5,68;-12,72;-5,68;1,91;1,59;1,91;1,59;0;0;
24845;-14,33;-1,53;-14,33;-1,53;1,85;1,68;1,85;1,68;0;0;
24864;-14,34;-6,61;-14,34;-6,61;1,81;1,69;1,81;1,69;0;0;
24882;-17,77;-5,45;-17,77;-5,45;1,86;1,6;1,86;1,6;1;0;
24899;-17,77;-5,45;-17,77;-5,45;1,9;1,66;1,9;1,66;1;0;
24917;-56,32;-11,8;-56,32;-11,8;19,35;1,85;19,35;1,85;1;0;
24933;-340,44;-17,2;-340,44;-17,2;59,39;3,3;59,39;3,3;1;0;
24950;76,54;-2,43;76,54;-2,43;82,38;4,55;82,38;4,55;1;0;
24965;-84,56;-1,64;-84,56;-1,64;116,85;5,05;116,85;5,05;1;0;
24985;67,14;-2,78;67,14;-2,78;158,61;5,57;158,61;5,57;1;0;
25007;-360,37;-6,52;-360,37;-6,52;162,08;5,7;162,08;5,7;0;0;
25028;-334,89;0,58;-334,89;0,58;173,01;5,48;173,01;5,48;0;0;
25050;-109,69;-6,56;-109,69;-6,56;162,75;3,87;162,75;3,87;0;0;
25067;-109,69;-6,56;-109,69;-6,56;157,25;3,41;157,25;3,41;0;0;
25086;106,3;-8,14;106,3;-8,14;128,13;2,9;128,13;2,9;0;0;
25107;-43,27;-8,02;-43,27;-8,02;122,76;3,08;122,76;3,08;0;0;
25126;-18,4;-4,54;-18,4;-4,54;93,03;2,66;93,03;2,66;0;0;
25143;-86,38;-7,52;-86,38;-7,52;75,18;2,56;75,18;2,56;0;0;
25160;-86,38;-7,52;-86,38;-7,52;65,56;2,46;65,56;2,46;0;0;
25177;-21,7;-10,18;-21,7;-10,18;57,21;2,16;57,21;2,16;0;0;
25196;-5,85;-8,75;-5,85;-8,75;41,56;2,08;41,56;2,08;0;0;
25214;-15,93;-6,6;-15,93;-6,6;38,47;1,9;38,47;1,9;0;0;
25231;-17,52;-4,48;-17,52;-4,48;36,51;1,85;36,51;1,85;0;0;
25250;0,42;1,84;0,42;1,84;32,8;1,84;32,8;1,84;0;0;
25269;57,89;-6,61;57,89;-6,61;32,39;1,86;32,39;1,86;0;0;
25288;-18,97;-5,56;-18,97;-5,56;30,42;1,85;30,42;1,85;0;0;
25304;-12,43;-6,87;-12,43;-6,87;28,71;1,77;28,71;1,77;0;0;
25323;-19,88;-3,94;-19,88;-3,94;28,71;2,29;28,71;2,29;0;0;
25343;-15,96;-6,55;-15,96;-6,55;28,61;2,44;28,61;2,44;0;0;
25363;-19,61;-9,06;-19,61;-9,06;19,73;2,41;19,73;2,41;0;0;
25380;-43;-10,46;-43;-10,46;10,69;2,4;10,69;2,4;0;0;
25398;-43;-10,46;-43;-10,46;18,18;2,39;18,18;2,39;0;0;
25415;-26,67;-7,85;-26,67;-7,85;19,44;2,25;19,44;2,25;0;0;
25431;-15,72;-7,05;-15,72;-7,05;19,25;2,05;19,25;2,05;0;0;
25451;-12,59;-1,72;-12,59;-1,72;19,24;1,83;19,24;1,83;0;0;
25467;-17,01;-8,82;-17,01;-8,82;17,43;1,78;17,43;1,78;0;0;
25486;-11,68;-6,66;-11,68;-6,66;9,61;1,74;9,61;1,74;0;0;
25503;-18,09;-10,09;-18,09;-10,09;3,1;1,94;3,1;1,94;0;0;
25521;-15,55;-8,15;-15,55;-8,15;2,13;1,87;2,13;1,87;0;0;
25539;-15,55;-8,15;-15,55;-8,15;2,21;2,03;2,21;2,03;0;0;
25557;-19,85;-9,09;-19,85;-9,09;2,24;2,29;2,24;2,29;0;0;
25576;-16,29;-4,72;-16,29;-4,72;2,16;2,33;2,16;2,33;0;0;
25594;-18,33;-10,79;-18,33;-10,79;1,99;2,43;1,99;2,43;0;0;
25611;-16,33;-6,1;-16,33;-6,1;1,92;2,35;1,92;2,35;0;0;
25627;-15,42;-6,12;-15,42;-6,12;1,84;2,26;1,84;2,26;0;0;
25645;-19,25;-10,3;-19,25;-10,3;1,65;1,99;1,65;1,99;0;0;
25663;-20,42;-9,42;-20,42;-9,42;2;1,9;2;1,9;0;0;
25680;-20,42;-9,42;-20,42;-9,42;2,29;1,93;2,29;1,93;0;0;
25696;-15,64;-9,37;-15,64;-9,37;2,21;1,72;2,21;1,72;0;0;
25713;-17,66;-4,86;-17,66;-4,86;2,2;1,79;2,2;1,79;0;0;
25730;-15,53;-7,69;-15,53;-7,69;2,28;2,04;2,28;2,04;0;0;
25748;-11,86;-6,44;-11,86;-6,44;2,29;2,02;2,29;2,02;0;0;
25766;-17,36;-4,43;-17,36;-4,43;2,1;1,97;2,1;1,97;0;0;
25783;-16,59;-8,58;-16,59;-8,58;2,13;1,95;2,13;1,95;0;0;
25799;-16,59;-8,58;-16,59;-8,58;2,32;1,79;2,32;1,79;0;0;
25815;-17,59;-12,2;-17,59;-12,2;2,42;1,66;2,42;1,66;0;0;
25833;-15,95;-6,91;-15,95;-6,91;2,49;1,65;2,49;1,65;0;0;
25852;-14,95;-9,98;-14,95;-9,98;2,43;1,77;2,43;1,77;0;0;
25870;-18,74;-7,77;-18,74;-7,77;2,21;1,86;2,21;1,86;0;0;
25890;-15,93;-10,47;-15,93;-10,47;2,13;1,77;2,13;1,77;0;0;
25906;-18;-5,71;-18;-5,71;1,98;1,92;1,98;1,92;0;0;
25925;-15,92;-10,78;-15,92;-10,78;1,97;1,85;1,97;1,85;0;0;
25944;-17;-8,45;-17;-8,45;1,83;1,76;1,83;1,76;0;0;
25962;-17,63;-7,07;-17,63;-7,07;1,8;1,66;1,8;1,66;0;0;
25980;-17,63;-7,07;-17,63;-7,07;1,43;1,72;1,43;1,72;0;0;
25998;-17,98;-1,76;-17,98;-1,76;1,41;1,72;1,41;1,72;0;0;
26015;-18,27;-6,69;-18,27;-6,69;1,62;1,78;1,62;1,78;0;0;
26033;-18,26;-7,1;-18,26;-7,1;1,74;1,71;1,74;1,71;0;0;
26049;-14,73;-10,09;-14,73;-10,09;1,81;1,65;1,81;1,65;0;0;
26066;-18,14;-7,42;-18,14;-7,42;2,04;1,73;2,04;1,73;0;0;
26084;-15,6;-6,64;-15,6;-6,64;2,35;1,67;2,35;1,67;0;0;
26101;-21,79;-7,69;-21,79;-7,69;2,3;1,57;2,3;1,57;0;0;
26119;-21,79;-7,69;-21,79;-7,69;2,33;1,62;2,33;1,62;0;0;
26136;-14,72;-2,53;-14,72;-2,53;2,38;1,7;2,38;1,7;0;0;
26158;-19,43;-3,03;-19,43;-3,03;2,51;1,95;2,51;1,95;0;0;
26176;-11,07;-2,15;-11,07;-2,15;2,59;2,04;2,59;2,04;0;0;
26193;-16,75;-6,22;-16,75;-6,22;2,48;2,15;2,48;2,15;0;0;
26210;-18,59;-8,21;-18,59;-8,21;2,35;2,16;2,35;2,16;0;0;
26227;-14,19;-6,53;-14,19;-6,53;2,3;2,26;2,3;2,26;0;0;
26246;-19,88;-7,76;-19,88;-7,76;2,08;2,02;2,08;2,02;0;0;
26264;-15,72;-10,56;-15,72;-10,56;2,14;1,81;2,14;1,81;0;0;
26281;-17,75;-6,08;-17,75;-6,08;1,89;1,68;1,89;1,68;0;0;
26297;-17,75;-6,08;-17,75;-6,08;1,86;1,69;1,86;1,69;0;0;
26317;-13,84;-3,78;-13,84;-3,78;1,61;2,1;1,61;2,1;0;0;
26334;-18,52;-6,93;-18,52;-6,93;1,63;1,85;1,63;1,85;0;0;
26350;-16,75;-9,36;-16,75;-9,36;1,61;2,08;1,61;2,08;0;0;
26369;-13,33;-7,17;-13,33;-7,17;1,7;2,17;1,7;2,17;0;0;
26389;-11,08;-8,66;-11,08;-8,66;1,94;2,07;1,94;2,07;0;0;
26405;-15,58;-9,17;-15,58;-9,17;1,93;2,13;1,93;2,13;0;0;
26420;-15,96;-2,55;-15,96;-2,55;1,99;2,11;1,99;2,11;0;0;
26437;-15,96;-2,55;-15,96;-2,55;2,07;2,41;2,07;2,41;0;0;
26454;-18,43;-6,75;-18,43;-6,75;2,06;2,12;2,06;2,12;0;0;
26472;-16,49;-7,76;-16,49;-7,76;1,89;2,13;1,89;2,13;0;0;
26491;-16,46;-6,82;-16,46;-6,82;1,76;1,91;1,76;1,91;0;0;
26508;-15,55;-5,83;-15,55;-5,83;1,81;1,93;1,81;1,93;0;0;
26526;-15,55;-5,83;-15,55;-5,83;1,77;1,74;1,77;1,74;0;0;
26545;-17,12;-11,61;-17,12;-11,61;1,57;1,77;1,57;1,77;0;0;
26561;-17,08;-6,16;-17,08;-6,16;1,45;1,88;1,45;1,88;0;0;
26581;-18,84;-9,84;-18,84;-9,84;1,51;1,88;1,51;1,88;0;0;
26597;-18,84;-9,84;-18,84;-9,84;1,52;1,81;1,52;1,81;0;0;
26615;-11,41;-7,91;-11,41;-7,91;1,59;1,87;1,59;1,87;0;0;
26631;-17,36;-8,41;-17,36;-8,41;1,62;1,69;1,62;1,69;0;0;
26648;190,26;-5,02;190,26;-5,02;9,06;1,67;9,06;1,67;1;0;
26666;94,99;-6,57;94,99;-6,57;30,49;2,01;30,49;2,01;1;0;
26683;-2,49;-13,54;-2,49;-13,54;42,51;2,64;42,51;2,64;1;0;
26699;-2,49;-13,54;-2,49;-13,54;54,62;3,26;54,62;3,26;1;0;
26717;83,28;-16,77;83,28;-16,77;98,03;4,66;98,03;4,66;1;0;
26735;299,89;-9,32;299,89;-9,32;129,25;4,89;129,25;4,89;1;0;
26754;-74,49;-12,41;-74,49;-12,41;147,74;5,22;147,74;5,22;0;0;
26774;-115,83;-15,74;-115,83;-15,74;152,65;5,48;152,65;5,48;0;0;
26794;204,47;-14,63;204,47;-14,63;173,82;5,42;173,82;5,42;0;0;
26813;0,78;-1,86;0,78;-1,86;170,28;5,21;170,28;5,21;0;0;
26828;-172,99;-13,89;-172,99;-13,89;150,54;4,46;150,54;4,46;0;0;
26850;255,08;-16,19;255,08;-16,19;142,17;4,27;142,17;4,27;0;0;
26869;-71,22;-10,74;-71,22;-10,74;143,58;4,45;143,58;4,45;0;0;
26886;-121,76;-8,52;-121,76;-8,52;140,17;3,77;140,17;3,77;0;0;
26902;75,35;-3,68;75,35;-3,68;127,76;3,61;127,76;3,61;0;0;
26920;15,63;-8,63;15,63;-8,63;129,72;3,83;129,72;3,83;0;0;
26936;15,63;-8,63;15,63;-8,63;115,28;3,94;115,28;3,94;0;0;
26954;-19,54;-4,46;-19,54;-4,46;91,46;3,44;91,46;3,44;0;0;
26972;-8,99;-9,02;-8,99;-9,02;72,31;3,11;72,31;3,11;0;0;
26992;-172,53;-8,18;-172,53;-8,18;73,54;2,83;73,54;2,83;0;0;
27009;-28,39;-5,33;-28,39;-5,33;61,52;2,41;61,52;2,41;0;0;
27026;-8,23;-12,41;-8,23;-12,41;46,82;1,96;46,82;1,96;0;0;
27043;-12,12;-2,65;-12,12;-2,65;36,09;2;36,09;2;0;0;
27060;-12,12;-2,65;-12,12;-2,65;27,78;2;27,78;2;0;0;
27075;-12,13;-10,61;-12,13;-10,61;25,07;2,15;25,07;2,15;0;0;
27092;-7,89;-10,98;-7,89;-10,98;5,92;2,23;5,92;2,23;0;0;
27110;-24,21;-11,75;-24,21;-11,75;14,8;2,67;14,8;2,67;0;0;
27128;-28,03;-4,03;-28,03;-4,03;17,46;3,75;17,46;3,75;0;0;
27145;-11,21;-4,06;-11,21;-4,06;20,69;3,84;20,69;3,84;0;0;
27163;-18,97;-4,05;-18,97;-4,05;20,64;3,86;20,64;3,86;0;0;
27182;-16,6;-6,44;-16,6;-6,44;20,61;3,63;20,61;3,63;0;0;
27202;-16,9;-5,69;-16,9;-5,69;15,29;3,38;15,29;3,38;0;0;
27219;-16,9;-5,69;-16,9;-5,69;7,21;2,96;7,21;2,96;0;0;
27234;-16,44;-7,24;-16,44;-7,24;2,71;1,82;2,71;1,82;0;0;
27253;-15,11;-9,74;-15,11;-9,74;1,86;1,7;1,86;1,7;0;0;
27269;-11,47;-6,77;-11,47;-6,77;1,45;1,7;1,45;1,7;0;0;
27286;-18,53;-7,41;-18,53;-7,41;1,58;1,65;1,58;1,65;0;0;
27305;-17,26;-9,02;-17,26;-9,02;1,65;1,63;1,65;1,63;0;0;
27323;-17,26;-9,02;-17,26;-9,02;1,71;1,61;1,71;1,61;0;0;
27342;-14,19;-3,58;-14,19;-3,58;1,77;1,63;1,77;1,63;0;0;
27359;-14,19;-3,58;-14,19;-3,58;1,9;1,62;1,9;1,62;0;0;
27377;-19,79;-12,38;-19,79;-12,38;1,87;1,93;1,87;1,93;0;0;
27394;-17,25;-4,87;-17,25;-4,87;1,9;2,14;1,9;2,14;0;0;
27411;-19,17;-6,87;-19,17;-6,87;1,87;2,03;1,87;2,03;0;0;
27427;-16,1;-7,31;-16,1;-7,31;1,69;2,04;1,69;2,04;0;0;
27446;-16,31;-4,5;-16,31;-4,5;1,8;2,17;1,8;2,17;0;0;
27463;-19,22;-8,51;-19,22;-8,51;1,71;2,1;1,71;2,1;0;0;
27483;-16,14;-6,03;-16,14;-6,03;1,62;1,93;1,62;1,93;0;0;
27501;-15,28;-6,58;-15,28;-6,58;1,68;2,04;1,68;2,04;0;0;
27521;-15,63;-6,53;-15,63;-6,53;1,65;2,22;1,65;2,22;0;0;
27539;-15,63;-6,53;-15,63;-6,53;1,5;2,22;1,5;2,22;0;0;
27558;-11,07;-9,39;-11,07;-9,39;1,63;2,13;1,63;2,13;0;0;
27576;-18,46;-6,25;-18,46;-6,25;1,68;1,97;1,68;1,97;0;0;
27594;-14,51;-8,41;-14,51;-8,41;1,64;1,77;1,64;1,77;0;0;
27611;-16,22;-5,39;-16,22;-5,39;1,78;1,62;1,78;1,62;0;0;
27628;-17,4;-10,11;-17,4;-10,11;1,96;1,47;1,96;1,47;0;0;
27646;-15,73;-10,95;-15,73;-10,95;2,02;1,52;2,02;1,52;0;0;
27663;-15,73;-10,95;-15,73;-10,95;1,8;1,56;1,8;1,56;0;0;
27680;-15,24;-8,38;-15,24;-8,38;1,68;1,55;1,68;1,55;0;0;
27696;-15,24;-8,38;-15,24;-8,38;1,57;1,54;1,57;1,54;0;0;
27714;-15,91;-7,04;-15,91;-7,04;1,5;1,54;1,5;1,54;0;0;
27730;-20,53;-3,96;-20,53;-3,96;1,4;1,58;1,4;1,58;0;0;
27747;-16,28;-11,57;-16,28;-11,57;1,46;1,53;1,46;1,53;0;0;
27763;-12,37;-5,79;-12,37;-5,79;1,69;1,62;1,69;1,62;0;0;
27782;-16,15;-9,12;-16,15;-9,12;1,69;1,58;1,69;1,58;0;0;
27799;-16,15;-9,12;-16,15;-9,12;1,61;1,54;1,61;1,54;0;0;
27815;-13,43;-7,38;-13,43;-7,38;1,59;1,67;1,59;1,67;0;0;
27831;-16,06;-2,55;-16,06;-2,55;1,75;1,73;1,75;1,73;0;0;
27848;-14,08;-3,75;-14,08;-3,75;1,64;1,65;1,64;1,65;0;0;
27864;-18,49;-10,1;-18,49;-10,1;1,49;1,71;1,49;1,71;0;0;
27880;0;-10,54;0;-10,54;3,96;1,86;3,96;1,86;0;0;
27897;0;-10,54;0;-10,54;6,47;1,89;6,47;1,89;0;0;
27914;-11,89;-8,75;-11,89;-8,75;6,51;1,91;6,51;1,91;0;0;
27931;-14,9;-7,51;-14,9;-7,51;6,76;1,84;6,76;1,84;0;0;
27948;-19,71;-7,59;-19,71;-7,59;6,91;1,69;6,91;1,69;0;0;
27965;-10,35;-6,36;-10,35;-6,36;6,06;1,6;6,06;1,6;0;0;
27984;-18,3;-3,76;-18,3;-3,76;3,56;1,47;3,56;1,47;0;0;
28004;-19,33;-4,22;-19,33;-4,22;2,07;1,51;2,07;1,51;0;0;
28021;-17,25;-8,39;-17,25;-8,39;1,9;1,61;1,9;1,61;0;0;
28038;-17,25;-8,39;-17,25;-8,39;1,82;1,78;1,82;1,78;0;0;
28056;-15,48;-6,95;-15,48;-6,95;1,8;1,81;1,8;1,81;0;0;
28073;-14,7;-10,33;-14,7;-10,33;1,78;1,79;1,78;1,79;0;0;
28092;-15,98;-6,41;-15,98;-6,41;1,98;1,79;1,98;1,79;0;0;
28109;-9,35;-6,61;-9,35;-6,61;1,99;1,61;1,99;1,61;0;0;
28128;-16,26;-5,63;-16,26;-5,63;2,22;1,56;2,22;1,56;0;0;
28144;-14,01;-8,79;-14,01;-8,79;2,29;1,58;2,29;1,58;0;0;
28161;-16,33;-8,36;-16,33;-8,36;2,21;1,61;2,21;1,61;0;0;
28178;-16,33;-8,36;-16,33;-8,36;2,08;1,8;2,08;1,8;0;0;
28194;-15,68;-6,87;-15,68;-6,87;1,92;1,84;1,92;1,84;0;0;
28211;-13,11;-8,39;-13,11;-8,39;1,64;1,93;1,64;1,93;0;0;
28228;-16,82;-6,32;-16,82;-6,32;1,6;1,86;1,6;1,86;0;0;
28244;-12,96;-8,15;-12,96;-8,15;1,61;1,84;1,61;1,84;0;0;
28261;-16,37;-7,06;-16,37;-7,06;1,69;1,75;1,69;1,75;0;0;
28278;-16,37;-7,06;-16,37;-7,06;1,85;1,63;1,85;1,63;0;0;
28294;-16,51;-7,22;-16,51;-7,22;2,04;1,61;2,04;1,61;0;0;
28313;-17,53;-3,44;-17,53;-3,44;2,04;1,61;2,04;1,61;0;0;
28330;-12,49;-7,4;-12,49;-7,4;2,19;1,57;2,19;1,57;0;0;
28348;-15,28;-10,75;-15,28;-10,75;2,08;1,7;2,08;1,7;0;0;
28364;-15,89;-4,53;-15,89;-4,53;2,01;1,84;2,01;1,84;0;0;
28383;-17,43;-5,82;-17,43;-5,82;1,95;2,05;1,95;2,05;0;0;
28400;-13,19;-6,82;-13,19;-6,82;1,84;2,37;1,84;2,37;0;0;
28418;-13,19;-6,82;-13,19;-6,82;1,82;2,55;1,82;2,55;0;0;
28433;-16,33;-9,13;-16,33;-9,13;1,73;2,41;1,73;2,41;1;0;
28451;-15,97;-3,8;-15,97;-3,8;1,7;2,62;1,7;2,62;1;0;
28469;-81,38;-5,14;-81,38;-5,14;8,4;2,34;8,4;2,34;1;0;
28487;-146,46;-0,06;-146,46;-0,06;33,76;2,53;33,76;2,53;1;0;
28505;-54,97;-17,23;-54,97;-17,23;57,32;3,27;57,32;3,27;1;0;
28522;-133,28;-12,81;-133,28;-12,81;78,18;3,31;78,18;3,31;1;0;
28539;-133,28;-12,81;-133,28;-12,81;99,21;3,37;99,21;3,37;1;0;
28556;-46,75;-9,8;-46,75;-9,8;121;3,79;121;3,79;1;0;
28573;-19,54;-9,46;-19,54;-9,46;129,86;4,06;129,86;4,06;1;0;
28591;-24,28;-11,17;-24,28;-11,17;119,3;3,6;119,3;3,6;0;0;
28612;9,1;-9,87;9,1;-9,87;123,5;3,4;123,5;3,4;0;0;
28632;-110,85;-0,42;-110,85;-0,42;124,69;4,15;124,69;4,15;0;0;
28649;-57,47;-9,95;-57,47;-9,95;118,97;3,87;118,97;3,87;0;0;
28667;32,29;-9,86;32,29;-9,86;116,55;3,82;116,55;3,82;0;0;
28686;-41,74;-3,43;-41,74;-3,43;119,07;3,42;119,07;3,42;0;0;
28702;0,93;-14,3;0,93;-14,3;113,87;3,63;113,87;3,63;0;0;
28719;0,93;-14,3;0,93;-14,3;111,91;3,75;111,91;3,75;0;0;
28739;-14,78;-5,97;-14,78;-5,97;98,03;3,29;98,03;3,29;0;0;
28758;-68,78;-1,38;-68,78;-1,38;91,85;3,2;91,85;3,2;0;0;
28775;-8,78;-3,22;-8,78;-3,22;82,08;3,05;82,08;3,05;0;0;
28793;-175,48;-7,74;-175,48;-7,74;75,72;3,14;75,72;3,14;0;0;
28811;-4,76;-3,33;-4,76;-3,33;66,09;2,74;66,09;2,74;0;0;
28827;12,64;-12,92;12,64;-12,92;53,15;2,17;53,15;2,17;0;0;
28845;-14,28;-4,21;-14,28;-4,21;48,46;2,32;48,46;2,32;0;0;
28864;-18,99;-8,47;-18,99;-8,47;41,68;2,19;41,68;2,19;0;0;
28882;-20,27;-8,42;-20,27;-8,42;35,42;2,12;35,42;2,12;0;0;
28898;-20,27;-8,42;-20,27;-8,42;28,15;1,88;28,15;1,88;0;0;
28916;4,65;-9,05;4,65;-9,05;20,53;1,94;20,53;1,94;0;0;
28938;-18,79;-6,54;-18,79;-6,54;15,75;1,79;15,75;1,79;0;0;
28955;-17,12;-6,69;-17,12;-6,69;13,73;1,79;13,73;1,79;0;0;
28971;-23,19;-6,5;-23,19;-6,5;11,61;1,71;11,61;1,71;0;0;
28990;-15,3;-6,37;-15,3;-6,37;11,15;1,72;11,15;1,72;0;0;
29007;-19,23;-5,72;-19,23;-5,72;6,88;1,69;6,88;1,69;0;0;
29024;-17,69;-7,66;-17,69;-7,66;2,6;1,6;2,6;1,6;0;0;
29042;-15,17;-11,93;-15,17;-11,93;2,07;1,63;2,07;1,63;0;0;
29060;-12,44;-5,52;-12,44;-5,52;2,02;1,84;2,02;1,84;0;0;
29079;-12,44;-5,52;-12,44;-5,52;1,67;1,93;1,67;1,93;0;0;
29098;-17,48;-7,08;-17,48;-7,08;1,56;1,95;1,56;1,95;0;0;
29116;-10,03;-7,79;-10,03;-7,79;1,78;1,81;1,78;1,81;0;0;
29133;-18,97;-9,63;-18,97;-9,63;1,78;1,91;1,78;1,91;0;0;
29149;-17,36;-8,16;-17,36;-8,16;1,74;1,68;1,74;1,68;0;0;
29164;-18,92;-8,24;-18,92;-8,24;1,89;1,45;1,89;1,45;0;0;
29181;-14,44;-8,65;-14,44;-8,65;1,92;1,49;1,92;1,49;0;0;
29197;-14,44;-8,65;-14,44;-8,65;1,97;1,57;1,97;1,57;0;0;
29216;-16,55;-9,78;-16,55;-9,78;1,77;1,57;1,77;1,57;0;0;
29233;-17,14;-5,85;-17,14;-5,85;1,89;1,39;1,89;1,39;0;0;
29251;-17,77;-8;-17,77;-8;2,19;1,67;2,19;1,67;0;0;
29266;-14,97;-5,91;-14,97;-5,91;2,02;1,72;2,02;1,72;0;0;
29282;-19,3;-6,71;-19,3;-6,71;2,02;1,76;2,02;1,76;0;0;
29299;-19,3;-6,71;-19,3;-6,71;1,99;1,82;1,99;1,82;0;0;
29317;-16,42;-9,92;-16,42;-9,92;2,17;1,86;2,17;1,86;0;0;
29335;-14,96;-7,13;-14,96;-7,13;1,93;1,77;1,93;1,77;0;0;
29353;-20,2;-5,55;-20,2;-5,55;1,9;1,93;1,9;1,93;0;0;
29370;-15,57;-6,36;-15,57;-6,36;2,13;1,82;2,13;1,82;0;0;
29388;-15,17;-9,57;-15,17;-9,57;2,22;1,87;2,22;1,87;0;0;
29406;-15,24;-5,91;-15,24;-5,91;2,11;1,71;2,11;1,71;0;0;
29424;-20,22;-10,12;-20,22;-10,12;1,96;1,61;1,96;1,61;0;0;
29441;-16,51;-8,41;-16,51;-8,41;2,01;1,59;2,01;1,59;0;0;
29458;-16,51;-8,41;-16,51;-8,41;1,83;1,56;1,83;1,56;0;0;
29474;-14,68;-9,01;-14,68;-9,01;1,82;1,54;1,82;1,54;0;0;
29492;-18,79;-7,59;-18,79;-7,59;1,83;1,38;1,83;1,38;0;0;
29507;-17,59;-6,45;-17,59;-6,45;1,9;1,32;1,9;1,32;0;0;
29525;-15,31;-3,71;-15,31;-3,71;2,15;1,47;2,15;1,47;0;0;
29542;-17,47;-8,75;-17,47;-8,75;2,11;1,5;2,11;1,5;0;0;
29561;-16,79;-8,64;-16,79;-8,64;2,22;1,58;2,22;1,58;0;0;
29577;-16,79;-8,64;-16,79;-8,64;2,14;1,66;2,14;1,66;0;0;
29596;-9,9;-4,26;-9,9;-4,26;2,16;1,74;2,16;1,74;0;0;
29614;-18,17;-4,61;-18,17;-4,61;1,99;1,73;1,99;1,73;0;0;
29631;-13,34;-8,13;-13,34;-8,13;1,9;1,62;1,9;1,62;0;0;
29650;-16,63;-7,69;-16,63;-7,69;2,07;1,61;2,07;1,61;0;0;
29667;-19,56;-9,6;-19,56;-9,6;2,12;1,56;2,12;1,56;0;0;
29683;-19,71;-5,87;-19,71;-5,87;1,99;1,63;1,99;1,63;0;0;
29703;-13,22;-6,07;-13,22;-6,07;2,15;1,65;2,15;1,65;0;0;
29720;-13,22;-6,07;-13,22;-6,07;2,37;1,63;2,37;1,63;0;0;
29740;-19,23;-7,77;-19,23;-7,77;2,4;1,79;2,4;1,79;0;0;
29756;-8,86;-8,24;-8,86;-8,24;2,44;2;2,44;2;0;0;
29774;-16,88;-12,5;-16,88;-12,5;2,58;1,96;2,58;1,96;0;0;
29794;-15,22;-9,02;-15,22;-9,02;2,47;2,03;2,47;2,03;0;0;
29811;-18,24;-5,83;-18,24;-5,83;2,31;2,01;2,31;2,01;0;0;
29831;-18,74;-7,87;-18,74;-7,87;2,12;1,9;2,12;1,9;0;0;
29850;-16,82;-10,14;-16,82;-10,14;2,13;1,62;2,13;1,62;0;0;
29867;-16,22;-4,1;-16,22;-4,1;1,92;1,77;1,92;1,77;0;0;
29884;-14,02;-5,55;-14,02;-5,55;1,91;1,87;1,91;1,87;0;0;
29903;-16,38;-4,61;-16,38;-4,61;1,84;1,89;1,84;1,89;0;0;
29921;-18,29;-3,13;-18,29;-3,13;1,68;2,12;1,68;2,12;0;0;
29935;-18,29;-3,13;-18,29;-3,13;1,64;2,44;1,64;2,44;0;0;
29952;-15,33;-7,82;-15,33;-7,82;1,83;2,37;1,83;2,37;0;0;
29970;-17,38;-3,37;-17,38;-3,37;1,79;2,41;1,79;2,41;0;0;
29989;-18,49;-9,27;-18,49;-9,27;1,76;2,05;1,76;2,05;0;0;
30007;-18,87;-8,75;-18,87;-8,75;2,01;2,05;2,01;2,05;0;0;
30024;-19,27;-6,34;-19,27;-6,34;2,28;1,8;2,28;1,8;0;0;
30042;-16,31;-4,09;-16,31;-4,09;2,42;1,75;2,42;1,75;0;0;
30060;-16,41;-11,37;-16,41;-11,37;2,13;1,73;2,13;1,73;0;0;
30075;-16,41;-11,37;-16,41;-11,37;2,04;1,74;2,04;1,74;0;0;
30092;-17,12;-2,63;-17,12;-2,63;2;1,71;2;1,71;0;0;
30109;-18,77;-6,13;-18,77;-6,13;1,79;1,79;1,79;1,79;0;0;
30125;-15,09;-8,58;-15,09;-8,58;1,89;1,76;1,89;1,76;0;0;
30144;-19,07;-7,15;-19,07;-7,15;1,8;1,69;1,8;1,69;0;0;
30159;-19,07;-7,15;-19,07;-7,15;1,8;1,62;1,8;1,62;0;0;
30178;-16,79;-11,45;-16,79;-11,45;1,68;1,59;1,68;1,59;0;0;
30196;-13,92;-8,38;-13,92;-8,38;1,7;1,43;1,7;1,43;0;0;
30213;-15,3;-4,95;-15,3;-4,95;1,61;1,48;1,61;1,48;0;0;
30230;-10,48;-7,79;-10,48;-7,79;1,86;1,56;1,86;1,56;1;0;
30247;-16,13;-6,9;-16,13;-6,9;1,86;1,5;1,86;1,5;1;0;
30267;-42,48;-7,49;-42,48;-7,49;14,87;1,8;14,87;1,8;1;0;
30284;-185,85;-10,66;-185,85;-10,66;29,17;2,28;29,17;2,28;1;0;
30299;-185,85;-10,66;-185,85;-10,66;43,4;2,82;43,4;2,82;1;0;
30316;-55,46;-12,97;-55,46;-12,97;46,51;3,07;46,51;3,07;1;0;
30334;4,58;-5,82;4,58;-5,82;72,84;3,71;72,84;3,71;1;0;
30353;134,28;-4,44;134,28;-4,44;97,04;4,01;97,04;4,01;1;0;
30370;-7,52;2,8;-7,52;2,8;119,75;4,07;119,75;4,07;1;0;
30388;-26,4;-9,23;-26,4;-9,23;138,7;4,54;138,7;4,54;1;0;
30409;292,78;-10,23;292,78;-10,23;156,34;4,56;156,34;4,56;0;0;
30429;292,78;-10,23;292,78;-10,23;178,93;4,28;178,93;4,28;0;0;
30448;-377,87;-9,04;-377,87;-9,04;181,86;4,3;181,86;4,3;0;0;
30465;-24,19;-7,94;-24,19;-7,94;168,46;3,96;168,46;3,96;0;0;
30486;-80,02;-14,23;-80,02;-14,23;151;3,71;151;3,71;0;0;
30506;-132,32;-9,47;-132,32;-9,47;136,44;3,15;136,44;3,15;0;0;
30525;-153,86;-13,87;-153,86;-13,87;141,44;3,01;141,44;3,01;0;0;
30542;-78,31;-11,79;-78,31;-11,79;126;3,07;126;3,07;0;0;
30558;-78,31;-11,79;-78,31;-11,79;121,97;3,06;121,97;3,06;0;0;
30575;7,17;-10,22;7,17;-10,22;105,52;3,34;105,52;3,34;0;0;
30592;-99,68;-10,3;-99,68;-10,3;101,28;3,03;101,28;3,03;0;0;
30608;0,53;-4,41;0,53;-4,41;99,02;2,95;99,02;2,95;0;0;
30625;-60,47;-7,55;-60,47;-7,55;69,18;2,67;69,18;2,67;0;0;
30644;-48,55;-7,03;-48,55;-7,03;59,16;2,23;59,16;2,23;0;0;
30662;-0,24;-8,56;-0,24;-8,56;55,13;2,02;55,13;2,02;0;0;
30678;-0,24;-8,56;-0,24;-8,56;59,73;1,99;59,73;1,99;0;0;
30695;-33,65;-7,77;-33,65;-7,77;44,66;1,91;44,66;1,91;0;0;
30715;-16,63;-6,61;-16,63;-6,61;35,3;1,64;35,3;1,64;0;0;
30732;-18,38;-8,79;-18,38;-8,79;31,37;1,63;31,37;1,63;0;0;
30753;-22,27;-7,17;-22,27;-7,17;25,57;1,51;25,57;1,51;0;0;
30769;55,88;-6,67;55,88;-6,67;21,32;1,4;21,32;1,4;0;0;
30786;-91,05;-5,75;-91,05;-5,75;21,23;1,44;21,23;1,44;0;0;
30803;-16,78;-6,96;-16,78;-6,96;20,7;1,67;20,7;1,67;0;0;
30820;-16,74;-7,91;-16,74;-7,91;20,29;1,62;20,29;1,62;0;0;
30839;-16,74;-7,91;-16,74;-7,91;19,21;1,5;19,21;1,5;0;0;
30856;-15,58;-12,79;-15,58;-12,79;12,63;1,51;12,63;1,51;0;0;
30872;-17,34;-9,77;-17,34;-9,77;6,23;1,56;6,23;1,56;0;0;
30890;-18,04;-6,08;-18,04;-6,08;2,35;1,53;2,35;1,53;0;0;
30907;-14,54;-12,26;-14,54;-12,26;2,3;1,79;2,3;1,79;0;0;
30923;-22,28;-5,69;-22,28;-5,69;2,25;1,9;2,25;1,9;0;0;
30941;-13,92;-4,77;-13,92;-4,77;2,25;1,95;2,25;1,95;0;0;
30957;-13,92;-4,77;-13,92;-4,77;2,45;1,68;2,45;1,68;0;0;
30975;-17,7;-9,28;-17,7;-9,28;2,31;1,73;2,31;1,73;0;0;
30991;-17,1;-10,56;-17,1;-10,56;2,12;1,63;2,12;1,63;0;0;
31008;-12,81;-8,98;-12,81;-8,98;1,99;1,63;1,99;1,63;0;0;
31026;-11,79;-4,98;-11,79;-4,98;1,99;1,83;1,99;1,83;0;0;
31044;-19,65;-5,94;-19,65;-5,94;1,84;2,01;1,84;2,01;0;0;
31062;-17,45;-2,21;-17,45;-2,21;1,64;2,13;1,64;2,13;0;0;
31078;-17,45;-2,21;-17,45;-2,21;1,5;2,11;1,5;2,11;0;0;
31094;-15,97;-6,18;-15,97;-6,18;1,58;1,99;1,58;1,99;0;0;
31111;-22,67;-11,57;-22,67;-11,57;1,56;1,95;1,56;1,95;0;0;
31127;-16,14;-5,71;-16,14;-5,71;1,68;1,88;1,68;1,88;0;0;
31145;-12,4;-3,3;-12,4;-3,3;1,77;1,83;1,77;1,83;0;0;
31161;-19,46;-5,88;-19,46;-5,88;1,88;1,63;1,88;1,63;0;0;
31178;-19,46;-5,88;-19,46;-5,88;1,93;1,55;1,93;1,55;0;0;
31193;-15,36;-5,28;-15,36;-5,28;1,97;1,7;1,97;1,7;0;0;
31210;-14,91;-8,39;-14,91;-8,39;1,79;1,6;1,79;1,6;0;0;
31227;-14,67;-5,84;-14,67;-5,84;1,77;1,6;1,77;1,6;0;0;
31246;-17,14;-8,75;-17,14;-8,75;1,77;1,63;1,77;1,63;0;0;
31265;-12,93;-5,34;-12,93;-5,34;1,98;1,7;1,98;1,7;0;0;
31282;-17,69;-1,69;-17,69;-1,69;1,84;1,95;1,84;1,95;0;0;
31297;-17,69;-1,69;-17,69;-1,69;1,74;2,08;1,74;2,08;0;0;
31315;-16,16;-6,66;-16,16;-6,66;1,84;2,17;1,84;2,17;0;0;
31333;-15,84;-6,55;-15,84;-6,55;1,78;2,17;1,78;2,17;0;0;
31350;-19,29;-6,08;-19,29;-6,08;1,63;1,98;1,63;1,98;0;0;
31366;-13,3;-7,86;-13,3;-7,86;1,68;2,02;1,68;2,02;0;0;
31386;-14,99;-3,73;-14,99;-3,73;1,7;1,78;1,7;1,78;0;0;
31402;-9,64;-9,63;-9,64;-9,63;1,9;1,46;1,9;1,46;0;0;
31419;-9,64;-9,63;-9,64;-9,63;2,02;1,39;2,02;1,39;0;0;
31435;-20,29;-5,85;-20,29;-5,85;2,17;1,53;2,17;1,53;0;0;
31454;-10,86;-5,08;-10,86;-5,08;2,34;1,61;2,34;1,61;0;0;
31473;-18,44;-8,17;-18,44;-8,17;2,34;1,68;2,34;1,68;0;0;
31491;-14,88;-6,6;-14,88;-6,6;2,5;1,58;2,5;1,58;0;0;
31508;-18,22;-6,8;-18,22;-6,8;2,41;1,63;2,41;1,63;0;0;
31525;-20;-7,85;-20;-7,85;2,28;1,66;2,28;1,66;0;0;
31542;-16,68;-6,52;-16,68;-6,52;2,32;1,39;2,32;1,39;0;0;
31558;-16,68;-6,52;-16,68;-6,52;2,35;1,17;2,35;1,17;0;0;
31576;-18,62;-8,56;-18,62;-8,56;2,17;1,26;2,17;1,26;0;0;
31595;-18,41;-5,86;-18,41;-5,86;2,18;1,42;2,18;1,42;0;0;
31612;-16,39;-3,48;-16,39;-3,48;2,13;1,25;2,13;1,25;0;0;
31628;-20,59;-9,1;-20,59;-9,1;1,88;1,35;1,88;1,35;0;0;
31646;-16,87;-3,39;-16,87;-3,39;1,58;1,59;1,58;1,59;0;0;
31664;-14,57;-4,72;-14,57;-4,72;1,51;1,63;1,51;1,63;0;0;
31680;-12,5;-7,42;-12,5;-7,42;1,81;1,37;1,81;1,37;0;0;
31697;-12,5;-7,42;-12,5;-7,42;2,02;1,33;2,02;1,33;0;0;
31722;-18,84;-7,68;-18,84;-7,68;2,08;1,39;2,08;1,39;0;0;
31738;-18,84;-7,68;-18,84;-7,68;2,12;1,48;2,12;1,48;0;0;
31756;-13,29;-8,4;-13,29;-8,4;2,22;1,37;2,22;1,37;0;0;
31773;-15,51;-8,83;-15,51;-8,83;2,2;1,43;2,2;1,43;0;0;
31791;-14,78;-5,89;-14,78;-5,89;1,9;1,62;1,9;1,62;0;0;
31807;-19;-7,41;-19;-7,41;1,74;1,53;1,74;1,53;0;0;
31825;-19,12;-7,85;-19,12;-7,85;1,64;1,46;1,64;1,46;0;0;
31843;-15,89;-8,07;-15,89;-8,07;1,57;1,24;1,57;1,24;0;0;
31859;-15,89;-8,07;-15,89;-8,07;1,58;1,11;1,58;1,11;0;0;
31878;-17,89;-7,5;-17,89;-7,5;1,65;1,03;1,65;1,03;0;0;
31896;-20,36;-10,57;-20,36;-10,57;1,71;1,1;1,71;1,1;0;0;
31913;-17,98;-8,42;-17,98;-8,42;1,69;1,28;1,69;1,28;0;0;
31930;-20,35;-5,43;-20,35;-5,43;1,85;1,22;1,85;1,22;0;0;
31947;-18,49;-7,12;-18,49;-7,12;1,82;1,33;1,82;1,33;0;0;
31966;-12,78;-8,76;-12,78;-8,76;1,89;1,4;1,89;1,4;0;0;
31985;-19,22;-5,18;-19,22;-5,18;1,95;1,33;1,95;1,33;0;0;
32001;-20,19;-5,52;-20,19;-5,52;1,87;1,29;1,87;1,29;0;0;
32020;-15,42;-7,67;-15,42;-7,67;1,84;1,35;1,84;1,35;1;0;
32037;-15,42;-7,67;-15,42;-7,67;1,71;1,38;1,71;1,38;1;0;
32055;-20,07;-8,88;-20,07;-8,88;1,82;1,57;1,82;1,57;1;0;
32072;-13,65;-5,96;-13,65;-5,96;1,72;1,61;1,72;1,61;1;0;
32089;-14,36;-10,7;-14,36;-10,7;3,1;1,87;3,1;1,87;1;0;
32107;-80,4;-4,99;-80,4;-4,99;10,67;1,83;10,67;1,83;1;0;
32125;-1,64;-14,82;-1,64;-14,82;35,03;2,23;35,03;2,23;1;0;
32142;-58,59;-6,64;-58,59;-6,64;57,55;3,11;57,55;3,11;1;0;
32159;-58,59;-6,64;-58,59;-6,64;79,88;3,87;79,88;3,87;1;0;
32176;313,32;-2,26;313,32;-2,26;95,84;4,23;95,84;4,23;1;0;
32193;22,8;-17,36;22,8;-17,36;140,58;5,43;140,58;5,43;1;0;
32212;370,03;-8,08;370,03;-8,08;170,4;5,74;170,4;5,74;0;0;
32233;276;-9;276;-9;179,48;6,18;179,48;6,18;0;0;
32253;82,27;-3,89;82,27;-3,89;175,94;5,64;175,94;5,64;0;0;
32270;-50,97;-6,26;-50,97;-6,26;180,31;5,38;180,31;5,38;0;0;
32287;58,36;-7,41;58,36;-7,41;162,44;4,97;162,44;4,97;0;0;
32303;-4,39;-5,53;-4,39;-5,53;130,66;4,16;130,66;4,16;0;0;
32322;8,35;-5,61;8,35;-5,61;116,66;3,68;116,66;3,68;0;0;
32338;8,35;-5,61;8,35;-5,61;112,51;3,11;112,51;3,11;0;0;
32354;-51,93;-0,6;-51,93;-0,6;106,38;3,08;106,38;3,08;0;0;
32373;-30,04;-4,6;-30,04;-4,6;94,25;2,88;94,25;2,88;0;0;
32393;-22,27;-2,26;-22,27;-2,26;84,79;2,66;84,79;2,66;0;0;
32409;-23,99;-5,79;-23,99;-5,79;69,34;2,72;69,34;2,72;0;0;
32427;-13,51;-6,08;-13,51;-6,08;48,56;2,5;48,56;2,5;0;0;
32443;-13,79;-6,58;-13,79;-6,58;28,46;2,28;28,46;2,28;0;0;
32465;-19,29;-6,09;-19,29;-6,09;16,73;2,21;16,73;2,21;0;0;
32484;-31,46;-6,81;-31,46;-6,81;13,42;2,26;13,42;2,26;0;0;
32500;219,83;-7,95;219,83;-7,95;13,97;2,32;13,97;2,32;0;0;
32518;219,83;-7,95;219,83;-7,95;21,64;2,42;21,64;2,42;0;0;
32535;-9,25;-8,7;-9,25;-8,7;21,71;2,61;21,71;2,61;0;0;
32551;72,08;-8,08;72,08;-8,08;25,26;2,41;25,26;2,41;0;0;
32569;-27,1;-2,85;-27,1;-2,85;26,5;2,47;26,5;2,47;0;0;
32587;-15,31;-10,36;-15,31;-10,36;25,64;2,27;25,64;2,27;0;0;
32603;-17,94;-5,22;-17,94;-5,22;16,42;2,36;16,42;2,36;0;0;
32620;-16,49;-9,72;-16,49;-9,72;7,83;2,23;7,83;2,23;0;0;
32636;-16,49;-9,72;-16,49;-9,72;7,22;2,04;7,22;2,04;0;0;
32654;-16,14;-8,86;-16,14;-8,86;3,06;1,98;3,06;1,98;0;0;
32672;-18,41;-6,19;-18,41;-6,19;2,2;1,85;2,2;1,85;0;0;
32689;-19,38;-8,67;-19,38;-8,67;1,98;1,88;1,98;1,88;0;0;
32705;-14,21;-9,62;-14,21;-9,62;1,91;1,51;1,91;1,51;0;0;
32723;-16,64;-6,06;-16,64;-6,06;1,85;1,47;1,85;1,47;0;0;
32738;-16,64;-6,06;-16,64;-6,06;1,85;1,52;1,85;1,52;0;0;
32757;-21,34;-5,89;-21,34;-5,89;1,69;1,48;1,69;1,48;0;0;
32776;-16,65;-8,21;-16,65;-8,21;1,76;1,42;1,76;1,42;0;0;
32792;-20,28;-9,47;-20,28;-9,47;1,7;1,41;1,7;1,41;0;0;
32809;-18,71;-7,02;-18,71;-7,02;1,84;1,36;1,84;1,36;0;0;
32826;-17,47;-6,71;-17,47;-6,71;1,97;1,41;1,97;1,41;0;0;
32843;-15,51;-12,18;-15,51;-12,18;2,27;1,61;2,27;1,61;0;0;
32861;-13,76;-9,44;-13,76;-9,44;2,11;1,76;2,11;1,76;0;0;
32879;-13,76;-9,44;-13,76;-9,44;2,03;1,93;2,03;1,93;0;0;
32894;-19,98;-7,13;-19,98;-7,13;1,96;1,83;1,96;1,83;0;0;
32912;-14,05;-8,85;-14,05;-8,85;2;1,93;2;1,93;0;0;
32928;-16,57;-10,36;-16,57;-10,36;1,87;1,93;1,87;1,93;0;0;
32945;-17,16;-6,42;-17,16;-6,42;1,89;1,82;1,89;1,82;1;0;
32962;-15,94;-4,96;-15,94;-4,96;1,8;2,04;1,8;2,04;1;0;
32979;-15,94;-4,96;-15,94;-4,96;1,74;2,28;1,74;2,28;1;0;
32999;-20,63;-6,94;-20,63;-6,94;1,85;2,37;1,85;2,37;1;0;
33017;-104,76;-13,07;-104,76;-13,07;7,01;2,21;7,01;2,21;1;0;
33036;101,92;-12,72;101,92;-12,72;22,55;3,13;22,55;3,13;1;0;
33054;391,71;-3,14;391,71;-3,14;52,5;3,98;52,5;3,98;1;0;
33071;-75,82;-0,1;-75,82;-0,1;84,96;4,73;84,96;4,73;1;0;
33089;-95,82;1,13;-95,82;1,13;108,35;4,97;108,35;4,97;1;0;
33106;-311,22;12,57;-311,22;12,57;139,85;6,45;139,85;6,45;1;0;
33126;-77,63;2,63;-77,63;2,63;173,95;7,03;173,95;7,03;0;0;
33145;17,61;-14,75;17,61;-14,75;181,05;6,6;181,05;6,6;0;0;
33163;221,2;-9,4;221,2;-9,4;177,78;5,8;177,78;5,8;0;0;
33182;-290,14;-6,9;-290,14;-6,9;176,65;5,13;176,65;5,13;0;0;
33199;-290,14;-6,9;-290,14;-6,9;196,5;4,67;196,5;4,67;0;0;
33215;1,61;-10,5;1,61;-10,5;164,56;3,36;164,56;3,36;0;0;
33232;14,72;-7,62;14,72;-7,62;132,21;2,55;132,21;2,55;0;0;
33247;52,99;-9,86;52,99;-9,86;124,37;2,07;124,37;2,07;0;0;
33264;-102,25;-8,28;-102,25;-8,28;95,26;1,91;95,26;1,91;0;0;
33281;-98,57;-8,86;-98,57;-8,86;66,92;1,8;66,92;1,8;0;0;
33299;-98,57;-8,86;-98,57;-8,86;43,79;1,71;43,79;1,71;0;0;
33316;-91,8;-9,58;-91,8;-9,58;43,54;1,94;43,54;1,94;0;0;
33333;-18,09;-5,06;-18,09;-5,06;41,91;1,99;41,91;1,99;0;0;
33350;-0,07;-6,94;-0,07;-6,94;37,39;1,96;37,39;1,96;0;0;
33367;-23,54;-4,22;-23,54;-4,22;31,06;2,09;31,06;2,09;0;0;
33384;-24,04;-8,56;-24,04;-8,56;29,97;2,08;29,97;2,08;0;0;
33401;215,1;1,65;215,1;1,65;32,79;2,07;32,79;2,07;0;0;
33417;215,1;1,65;215,1;1,65;38,11;2,08;38,11;2,08;0;0;
33432;-45,72;-8,05;-45,72;-8,05;37,84;2,06;37,84;2,06;0;0;
33451;12,69;-9,02;12,69;-9,02;40,84;1,83;40,84;1,83;0;0;
33467;-13,58;-7,78;-13,58;-7,78;36,5;1,69;36,5;1,69;0;0;
33486;-12,09;-10,44;-12,09;-10,44;33,94;1,76;33,94;1,76;0;0;
33503;-20,56;-5,31;-20,56;-5,31;23,82;1,74;23,82;1,74;0;0;
33520;-15,29;-6,71;-15,29;-6,71;11,32;1,83;11,32;1,83;0;0;
33536;-15,29;-6,71;-15,29;-6,71;4,45;2,04;4,45;2,04;0;0;
33552;-29,46;-6,73;-29,46;-6,73;6,18;2,09;6,18;2,09;0;0;
33570;-14,47;-5,71;-14,47;-5,71;6,13;2,16;6,13;2,16;0;0;
33587;-14,08;-10,16;-14,08;-10,16;5,97;2,07;5,97;2,07;0;0;
33604;-18,12;-6,56;-18,12;-6,56;5,57;2,26;5,57;2,26;0;0;
33622;-13,1;-4,71;-13,1;-4,71;5,64;2,24;5,64;2,24;0;0;
33642;-16,1;-7,77;-16,1;-7,77;2,75;1,95;2,75;1,95;0;0;
33661;-17,6;-2,01;-17,6;-2,01;1,81;2,03;1,81;2,03;0;0;
33678;-17,6;-2,01;-17,6;-2,01;1,8;2,15;1,8;2,15;0;0;
33695;-18,36;-2,47;-18,36;-2,47;1,84;2,15;1,84;2,15;0;0;
33714;-19,67;-13,15;-19,67;-13,15;1,92;2,26;1,92;2,26;0;0;
33732;-18,24;-5,29;-18,24;-5,29;1,56;2,43;1,56;2,43;0;0;
33749;-17,51;-8,14;-17,51;-8,14;1,97;2,3;1,97;2,3;0;0;
33766;-10,86;-6,09;-10,86;-6,09;2,1;2,29;2,1;2,29;0;0;
33783;-20,38;-5,84;-20,38;-5,84;2,12;2,27;2,12;2,27;0;0;
33799;-16,48;-10,89;-16,48;-10,89;2,19;2,15;2,19;2,15;0;0;
33815;-16,48;-10,89;-16,48;-10,89;2,28;1,86;2,28;1,86;0;0;
33831;-14,94;-7,76;-14,94;-7,76;2,03;2,02;2,03;2,02;0;0;
33850;-18,62;-7,02;-18,62;-7,02;1,99;2;1,99;2;0;0;
33868;-14,17;-1,09;-14,17;-1,09;1,93;1,87;1,93;1,87;0;0;
33886;-15,38;-6,27;-15,38;-6,27;1,86;1,94;1,86;1,94;0;0;
33903;-19,22;-5,64;-19,22;-5,64;1,87;1,93;1,87;1,93;0;0;
33922;-17,9;-9,19;-17,9;-9,19;1,89;1,85;1,89;1,85;0;0;
33939;-17,9;-9,19;-17,9;-9,19;1,89;1,91;1,89;1,91;0;0;
33954;-17,11;-5,13;-17,11;-5,13;1,87;2;1,87;2;0;0;
33971;-17,11;-8,56;-17,11;-8,56;1,9;1,84;1,9;1,84;0;0;
33990;-15,99;-8,58;-15,99;-8,58;1,93;1,7;1,93;1,7;0;0;
34007;-17,15;-8,38;-17,15;-8,38;1,98;1,58;1,98;1,58;0;0;
34024;-16,8;-8,4;-16,8;-8,4;2,11;1,48;2,11;1,48;0;0;
34039;-16,8;-8,4;-16,8;-8,4;2,2;1,52;2,2;1,52;0;0;
34058;-14,65;-8,41;-14,65;-8,41;2,38;1,41;2,38;1,41;1;0;
34075;-17,16;-3,11;-17,16;-3,11;2,27;1,63;2,27;1,63;1;0;
34091;-18,36;-13,05;-18,36;-13,05;2,34;1,82;2,34;1,82;1;0;
34109;-10,76;-6,63;-10,76;-6,63;2,23;2,02;2,23;2,02;1;0;
34125;-16,48;-7,08;-16,48;-7,08;2,38;2,11;2,38;2,11;1;0;
34141;49,61;-3,22;49,61;-3,22;6,15;2,16;6,15;2,16;1;0;
34158;49,61;-3,22;49,61;-3,22;9,84;2,42;9,84;2,42;1;0;
34176;-319,21;0,43;-319,21;0,43;36,89;2,84;36,89;2,84;1;0;
34197;24,73;-2,65;24,73;-2,65;49,89;3,39;49,89;3,39;1;0;
34213;-52,86;-7,1;-52,86;-7,1;59,41;3,62;59,41;3,62;1;0;
34230;-42,09;-5,98;-42,09;-5,98;73,91;3,92;73,91;3,92;1;0;
34249;2,65;-6,1;2,65;-6,1;81,46;3,9;81,46;3,9;1;0;
34268;-66,05;-5,07;-66,05;-5,07;71,98;4;71,98;4;1;0;
34288;-13,74;-8,34;-13,74;-8,34;48,54;3,25;48,54;3,25;1;0;
34307;-12,48;-9,72;-12,48;-9,72;42,5;2,68;42,5;2,68;1;0;
34323;-17,27;-4,98;-17,27;-4,98;33,26;2,43;33,26;2,43;1;0;
34339;-17,27;-4,98;-17,27;-4,98;16,21;2,28;16,21;2,28;1;0;
34356;-10,16;-5,87;-10,16;-5,87;11,45;3,12;11,45;3,12;1;0;
34374;-133,92;-7,16;-133,92;-7,16;18,77;3,27;18,77;3,27;1;0;
34391;-18,55;-7,03;-18,55;-7,03;21,59;3,2;21,59;3,2;1;0;
34407;22,03;-2,04;22,03;-2,04;23,8;3,27;23,8;3,27;0;0;
34425;-18,18;-7,21;-18,18;-7,21;25,24;3,23;25,24;3,23;0;0;
34443;-13,21;-5,72;-13,21;-5,72;25,11;3;25,11;3;0;0;
34470;-14,14;-6,52;-14,14;-6,52;18,57;1,94;18,57;1,94;0;0;
34492;-19,12;-9,55;-19,12;-9,55;6,33;1,75;6,33;1,75;0;0;
34510;-13,7;-8,89;-13,7;-8,89;5,38;1,84;5,38;1,84;0;0;
34527;-18,91;-8,55;-18,91;-8,55;2,47;1,81;2,47;1,81;0;0;
34547;-20,09;-5,21;-20,09;-5,21;2,27;1,93;2,27;1,93;0;0;
34566;-18,08;-5,09;-18,08;-5,09;2,27;1,93;2,27;1,93;0;0;
34586;-14,79;-4,84;-14,79;-4,84;2,42;1,87;2,42;1,87;0;0;
34602;-15,16;-9,55;-15,16;-9,55;2,26;2,01;2,26;2,01;0;0;
34618;-15,16;-9,55;-15,16;-9,55;2,13;2,07;2,13;2,07;0;0;
34634;-16,74;-6,32;-16,74;-6,32;1,72;2,05;1,72;2,05;0;0;
34651;-17,14;-4,61;-17,14;-4,61;1,89;2,21;1,89;2,21;0;0;
34669;-20,95;-9,19;-20,95;-9,19;1,96;2,39;1,96;2,39;0;0;
34687;-18,03;-7,95;-18,03;-7,95;1,96;2,27;1,96;2,27;0;0;
34706;-16,86;-3,73;-16,86;-3,73;2,05;2,11;2,05;2,11;1;0;
34724;-20,69;-5,14;-20,69;-5,14;2,24;1,96;2,24;1,96;1;0;
34742;-17,76;-10,95;-17,76;-10,95;2,3;1,71;2,3;1,71;1;0;
34757;-17,76;-10,95;-17,76;-10,95;2,19;1,45;2,19;1,45;1;0;
34773;-16,27;-8,63;-16,27;-8,63;1,97;1,39;1,97;1,39;1;0;
34790;-19,51;-7,66;-19,51;-7,66;1,99;1,64;1,99;1,64;1;0;
34806;-21,64;-12,09;-21,64;-12,09;2,1;1,72;2,1;1,72;1;0;
34822;-145,87;-11,08;-145,87;-11,08;16,25;2,13;16,25;2,13;1;0;
34841;142,72;1,92;142,72;1,92;28,19;2,54;28,19;2,54;1;0;
34858;142,72;1,92;142,72;1,92;40,24;3,01;40,24;3,01;1;0;
34873;10,88;-3,6;10,88;-3,6;45,35;3,14;45,35;3,14;1;0;
34889;-194,73;-11,94;-194,73;-11,94;86,77;3,97;86,77;3,97;1;0;
34908;-21,07;-13,45;-21,07;-13,45;105,66;4,52;105,66;4,52;1;0;
34925;-155,17;-6,01;-155,17;-6,01;131,53;4,24;131,53;4,24;1;0;
34941;-492,83;-14,11;-492,83;-14,11;154,59;4,43;154,59;4,43;0;0;
34961;15,43;-6,87;15,43;-6,87;159,7;4,09;159,7;4,09;0;0;
34982;-5,5;-5,47;-5,5;-5,47;147,95;3,66;147,95;3,66;0;0;
34998;-5,5;-5,47;-5,5;-5,47;107,16;2,9;107,16;2,9;0;0;
35015;-18,84;-5,68;-18,84;-5,68;88,24;2,49;88,24;2,49;0;0;
35035;-15,17;-4,35;-15,17;-4,35;45,11;2,08;45,11;2,08;0;0;
35054;-14,29;26,89;-14,29;26,89;13,23;2,65;13,23;2,65;0;0;
35072;44,11;-14,99;44,11;-14,99;12,26;3,04;12,26;3,04;0;0;
35090;3,95;-2,99;3,95;-2,99;14,62;3,89;14,62;3,89;0;0;
35108;-9,27;-5,21;-9,27;-5,21;16,63;3,78;16,63;3,78;0;0;
35125;7,45;-8,02;7,45;-8,02;19,02;3,93;19,02;3,93;0;0;
35142;-22,95;-7,11;-22,95;-7,11;20,32;3,96;20,32;3,96;0;0;
35159;-22,95;-7,11;-22,95;-7,11;20,35;2,98;20,35;2,98;0;0;
35177;-14,58;-9,32;-14,58;-9,32;13,27;2,53;13,27;2,53;0;0;
35194;-18,87;-8,03;-18,87;-8,03;11,44;2,16;11,44;2,16;0;0;
35212;-17,24;-9,75;-17,24;-9,75;8,02;1,93;8,02;1,93;0;0;
35227;-14,88;-6,77;-14,88;-6,77;5,68;2,05;5,68;2,05;0;0;
35244;-13,92;-25,49;-13,92;-25,49;4,63;2,19;4,63;2,19;0;0;
35261;-16,72;-7,87;-16,72;-7,87;3,93;2,12;3,93;2,12;0;0;
35279;-16,72;-7,87;-16,72;-7,87;3,85;1,85;3,85;1,85;0;0;
35295;-15,45;-12,42;-15,45;-12,42;2,33;1,94;2,33;1,94;0;0;
35313;-19,21;-5,41;-19,21;-5,41;2,17;1,83;2,17;1,83;0;0;
35329;-14,76;-9,37;-14,76;-9,37;2,04;1,98;2,04;1,98;0;0;
35347;-15,21;-5,73;-15,21;-5,73;1,9;1,79;1,9;1,79;0;0;
35366;-18,85;-8,41;-18,85;-8,41;1,93;1,68;1,93;1,68;0;0;
35383;-16,54;-7,51;-16,54;-7,51;1,96;1,71;1,96;1,71;0;0;
35402;-20,32;-5,44;-20,32;-5,44;1,95;1,62;1,95;1,62;0;0;
35417;-20,32;-5,44;-20,32;-5,44;1,82;1,6;1,82;1,6;0;0;
35433;-16,26;-11,28;-16,26;-11,28;2;1,6;2;1,6;0;0;
35451;-17,57;3,15;-17,57;3,15;2,03;2,76;2,03;2,76;0;0;
35467;-14,32;-4,8;-14,32;-4,8;1,97;2,93;1,97;2,93;0;0;
35486;-17,9;-9,24;-17,9;-9,24;2,18;3,25;2,18;3,25;0;0;
35503;-14,33;-5,93;-14,33;-5,93;2,26;3,62;2,26;3,62;0;0;
35522;-14,33;-5,93;-14,33;-5,93;2,21;3,94;2,21;3,94;0;0;
35541;-15,24;-6,79;-15,24;-6,79;2,15;3,65;2,15;3,65;0;0;
35557;-15,24;-6,79;-15,24;-6,79;2,02;2,43;2,02;2,43;0;0;
35573;-17,09;-20,57;-17,09;-20,57;1,8;2,68;1,8;2,68;0;0;
35591;-14,63;-5,95;-14,63;-5,95;1,93;3,48;1,93;3,48;0;0;
35608;-14,68;-6,18;-14,68;-6,18;2,03;3,24;2,03;3,24;1;0;
35623;-14,11;-3,74;-14,11;-3,74;2,06;3,04;2,06;3,04;1;0;
35639;-14,11;-3,74;-14,11;-3,74;2,1;3,14;2,1;3,14;1;0;
35656;-18,09;-6,61;-18,09;-6,61;1,99;3,19;1,99;3,19;1;0;
35672;-17,67;-9,13;-17,67;-9,13;1,93;1,8;1,93;1,8;1;0;
35691;-13,63;-8,22;-13,63;-8,22;1,81;1,86;1,81;1,86;1;0;
35710;-15,99;-4,9;-15,99;-4,9;1,65;1,96;1,65;1,96;1;0;
35727;-12,74;-10,73;-12,74;-10,73;1,56;1,92;1,56;1,92;1;0;
35743;-66,91;-10,8;-66,91;-10,8;19,32;2,03;19,32;2,03;1;0;
35760;-66,91;-10,8;-66,91;-10,8;37,19;2,42;37,19;2,42;1;0;
35777;221,93;3,9;221,93;3,9;76,82;4,25;76,82;4,25;1;0;
35793;-109,39;-2,87;-109,39;-2,87;88,06;4,72;88,06;4,72;1;0;
35810;201,14;-10,51;201,14;-10,51;124,45;5,42;124,45;5,42;1;0;
35826;201,14;-10,51;201,14;-10,51;157,79;5,98;157,79;5,98;1;0;
35845;-341,74;-0,92;-341,74;-0,92;158,41;6,09;158,41;6,09;0;0;
35867;168,84;-12,17;168,84;-12,17;147,78;5,51;147,78;5,51;0;0;
35886;3,18;-7,93;3,18;-7,93;122,58;4,3;122,58;4,3;0;0;
35903;-28,56;-8,42;-28,56;-8,42;104,96;3,69;104,96;3,69;0;0;
35920;-20,31;-7,67;-20,31;-7,67;69,47;3,09;69,47;3,09;0;0;
35936;-20,31;-7,67;-20,31;-7,67;50,44;2,79;50,44;2,79;0;0;
35953;-18,5;11,27;-18,5;11,27;21,22;3,21;21,22;3,21;0;0;
35972;-26,54;-20,14;-26,54;-20,14;12,31;3,96;12,31;3,96;0;0;
35995;-31,37;-5,3;-31,37;-5,3;16,21;4,52;16,21;4,52;0;0;
36016;5,83;3,12;5,83;3,12;15,76;5,76;15,76;5,76;0;0;
36034;-19,46;6,48;-19,46;6,48;15,27;6,3;15,27;6,3;0;0;
36055;-34,38;-9,91;-34,38;-9,91;18,19;6,76;18,19;6,76;0;0;
36074;-13,89;-4,93;-13,89;-4,93;19,34;5,33;19,34;5,33;0;0;
36090;-16,59;-6,16;-16,59;-6,16;16,56;4,53;16,56;4,53;0;0;
36106;-19,54;-8,86;-19,54;-8,86;8,98;4,53;8,98;4,53;0;0;
36126;-15,41;-11,49;-15,41;-11,49;8,12;3,38;8,12;3,38;0;0;
36143;-16,02;-6,66;-16,02;-6,66;5,75;3,42;5,75;3,42;0;0;
36159;-16,02;-6,66;-16,02;-6,66;3,63;4,19;3,63;4,19;0;0;
36176;-14,4;-4,11;-14,4;-4,11;1,97;4,35;1,97;4,35;0;0;
36193;-13,86;-5,04;-13,86;-5,04;1,84;4,11;1,84;4,11;0;0;
36213;-13,98;-7,3;-13,98;-7,3;1,98;4;1,98;4;0;0;
36229;-15,76;-9,37;-15,76;-9,37;2,08;3,14;2,08;3,14;0;0;
36247;-11,61;-3,06;-11,61;-3,06;2,21;2,24;2,21;2,24;0;0;
36264;-17,63;-8,4;-17,63;-8,4;2,33;2,19;2,33;2,19;0;0;
36280;-17,79;-8,38;-17,79;-8,38;2,09;2,29;2,09;2,29;0;0;
36296;-17,79;-8,38;-17,79;-8,38;2;2,43;2;2,43;0;0;
36315;-16,78;-9,12;-16,78;-9,12;1,77;2,44;1,77;2,44;0;0;
36330;-14,6;-13,19;-14,6;-13,19;1,72;3,54;1,72;3,54;0;0;
36346;-17,75;-3,92;-17,75;-3,92;1,62;3,6;1,62;3,6;0;0;
36362;-18,53;-7,42;-18,53;-7,42;1,76;3,67;1,76;3,67;0;0;
36378;-18,53;-7,42;-18,53;-7,42;1,86;3,5;1,86;3,5;0;0;
36395;-17,58;-9,06;-17,58;-9,06;2;3,32;2;3,32;0;0;
36413;-14,88;-7,09;-14,88;-7,09;2,11;2,37;2,11;2,37;0;0;
36430;-13,92;-8,92;-13,92;-8,92;2,01;1,87;2,01;1,87;0;0;
36448;-18;-5,28;-18;-5,28;2,02;1,88;2,02;1,88;0;0;
36465;-17,43;-7,42;-17,43;-7,42;1,89;1,8;1,89;1,8;1;0;
36521;-13,7;-7,76;-13,7;-7,76;1,98;1,84;1,98;1,84;1;0;
36538;-13,7;-7,76;-13,7;-7,76;1,92;1,74;1,92;1,74;1;0;
36555;-19,75;-6,01;-19,75;-6,01;2,01;1,85;2,01;1,85;1;0;
36571;-15,36;-11,1;-15,36;-11,1;2,01;1,86;2,01;1,86;1;0;
36589;-19,12;-3,73;-19,12;-3,73;2,15;2,05;2,15;2,05;1;0;
36607;-14,12;-7,88;-14,12;-7,88;2,23;2,16;2,23;2,16;1;0;
36623;-249,63;-8,32;-249,63;-8,32;16,02;2,41;16,02;2,41;1;0;
36639;-249,63;-8,32;-249,63;-8,32;29,78;2,57;29,78;2,57;1;0;
36657;-68,28;-12,05;-68,28;-12,05;60,18;3,52;60,18;3,52;1;0;
36674;37,85;-11,1;37,85;-11,1;80,42;4,44;80,42;4,44;1;0;
36692;-31,86;-9,62;-31,86;-9,62;102,52;4,7;102,52;4,7;1;0;
36710;-58,41;-10,1;-58,41;-10,1;106,74;4,83;106,74;4,83;1;0;
36727;-17,93;-9,42;-17,93;-9,42;96,24;4,63;96,24;4,63;1;0;
36743;-16,99;-4,66;-16,99;-4,66;77,03;4,51;77,03;4,51;1;0;
36759;-16,99;-4,66;-16,99;-4,66;46,02;3,63;46,02;3,63;1;0;
36778;-18,17;-12,28;-18,17;-12,28;28,27;3,22;28,27;3,22;1;0;
36794;-15,27;-5,42;-15,27;-5,42;9,53;3,77;9,53;3,77;1;0;
36810;-19,24;-3,22;-19,24;-3,22;3,89;4,89;3,89;4,89;1;0;
36826;-22,35;-12,59;-22,35;-12,59;6,43;4,85;6,43;4,85;0;0;
36843;-15,6;13,5;-15,6;13,5;6,63;5,68;6,63;5,68;0;0;
36862;-20,41;-13,2;-20,41;-13,2;6,57;6;6,57;6;0;0;
36879;-20,41;-13,2;-20,41;-13,2;6,61;5,44;6,61;5,44;0;0;
36897;-14,9;-8,06;-14,9;-8,06;6,54;4,8;6,54;4,8;0;0;
36916;-18,52;-5,92;-18,52;-5,92;2,53;4,21;2,53;4,21;0;0;
36936;-17,18;-12,92;-17,18;-12,92;1,95;4,33;1,95;4,33;0;0;
36953;-16,13;-4,6;-16,13;-4,6;1,75;4,4;1,75;4,4;0;0;
36970;-17,56;-3,59;-17,56;-3,59;1,61;4,67;1,61;4,67;0;0;
36989;-12,57;-12,42;-12,57;-12,42;1,67;4,47;1,67;4,47;0;0;
37006;-23,02;-8,13;-23,02;-8,13;1,81;4,66;1,81;4,66;0;0;
37024;-17,41;-3,46;-17,41;-3,46;2,02;4,78;2,02;4,78;0;0;
37040;-13,48;-4,68;-13,48;-4,68;2,23;4,14;2,23;4,14;0;0;
37058;-13,48;-4,68;-13,48;-4,68;2,65;3,76;2,65;3,76;0;0;
37075;-16,53;-8,21;-16,53;-8,21;2,81;2,92;2,81;2,92;0;0;
37091;-14,55;-6,56;-14,55;-6,56;2,89;2,55;2,89;2,55;0;0;
37109;-19,37;-10,54;-19,37;-10,54;2,85;2,3;2,85;2,3;0;0;
37126;-18,52;-7,27;-18,52;-7,27;2,88;2,11;2,88;2,11;0;0;
37145;-18,36;-4,42;-18,36;-4,42;2,55;2,04;2,55;2,04;0;0;
37161;-14,51;-11,46;-14,51;-11,46;2,1;1,86;2,1;1,86;0;0;
37176;-14,51;-11,46;-14,51;-11,46;1,96;2,04;1,96;2,04;0;0;
37192;-17,85;-5,78;-17,85;-5,78;1,93;2,23;1,93;2,23;0;0;
37211;-17,62;-8,09;-17,62;-8,09;1,93;2,21;1,93;2,21;0;0;
37228;-15,3;-3,84;-15,3;-3,84;2,05;2,17;2,05;2,17;0;0;
37249;-19,14;-9,48;-19,14;-9,48;2,02;1,93;2,02;1,93;0;0;
37266;-19,73;-8,78;-19,73;-8,78;2,22;1,96;2,22;1,96;0;0;
37282;-20,68;-9,4;-20,68;-9,4;2,24;1,9;2,24;1,9;0;0;
37300;-16,77;-5,9;-16,77;-5,9;2,4;1,82;2,4;1,82;0;0;
37316;-16,77;-5,9;-16,77;-5,9;2,49;1,98;2,49;1,98;0;0;
37331;187,83;-10,01;187,83;-10,01;15,61;2,84;15,61;2,84;0;0;
37351;-48,23;-8,28;-48,23;-8,28;52,85;4,51;52,85;4,51;0;0;
37371;16,37;-11,25;16,37;-11,25;71,27;5,28;71,27;5,28;0;0;
37388;-51,58;-1,76;-51,58;-1,76;75,3;5,34;75,3;5,34;1;0;
37405;-206,37;-11,81;-206,37;-11,81;98,39;5,96;98,39;5,96;1;0;
37422;-409,54;-11,26;-409,54;-11,26;125,32;6,32;125,32;6,32;1;0;
37440;-214,82;-7,69;-214,82;-7,69;128,18;5,18;128,18;5,18;1;0;
37458;-214,82;-7,69;-214,82;-7,69;135,26;5;135,26;5;0;0;
37480;-19,98;-8,04;-19,98;-8,04;136,55;4,87;136,55;4,87;0;0;
37500;14,63;-7,61;14,63;-7,61;137,22;4,48;137,22;4,48;0;0;
37517;-31,84;-7,09;-31,84;-7,09;118,85;4,1;118,85;4,1;0;0;
37534;-15,77;-4,25;-15,77;-4,25;82,29;3,2;82,29;3,2;0;0;
37554;-12,42;-7,84;-12,42;-7,84;51,02;2,61;51,02;2,61;0;0;
37574;-21,66;-1,42;-21,66;-1,42;26,87;3,36;26,87;3,36;0;0;
37592;-20,57;-21,25;-20,57;-21,25;20,4;3,87;20,4;3,87;0;0;
37610;-21,51;7,86;-21,51;7,86;5,25;6,92;5,25;6,92;0;0;
37627;80,79;19,76;80,79;19,76;6,21;9,91;6,21;9,91;0;0;
37643;-31,4;-7,65;-31,4;-7,65;14,6;10,4;14,6;10,4;0;0;
37661;-13,6;-1,53;-13,6;-1,53;14,91;10,74;14,91;10,74;0;0;
37677;-13,6;-1,53;-13,6;-1,53;15,12;9,73;15,12;9,73;0;0;
37695;-17,29;-5,44;-17,29;-5,44;15,05;8,36;15,05;8,36;0;0;
37713;-14,58;-8,17;-14,58;-8,17;14,48;6,34;14,48;6,34;0;0;
37733;-20,24;-16,19;-20,24;-16,19;5,11;4,75;5,11;4,75;0;0;
37748;-21,94;-8,33;-21,94;-8,33;2,96;4,31;2,96;4,31;0;0;
37764;-13,49;-5,93;-13,49;-5,93;2,81;4,44;2,81;4,44;0;0;
37780;-16,8;-5,26;-16,8;-5,26;2,5;4,21;2,5;4,21;0;0;
37798;-16,8;-5,26;-16,8;-5,26;2,52;3,9;2,52;3,9;0;0;
37814;-19,83;-13,61;-19,83;-13,61;2,5;2,7;2,5;2,7;0;0;
37831;-18,65;-8,23;-18,65;-8,23;2,24;3,46;2,24;3,46;0;0;
37848;-17,25;-1,32;-17,25;-1,32;2,11;2,99;2,11;2,99;0;0;
37863;-16,69;-9,52;-16,69;-9,52;1,91;2,53;1,91;2,53;0;0;
37879;-16,69;-9,52;-16,69;-9,52;1,85;2,46;1,85;2,46;0;0;
37896;-17,36;-5,34;-17,36;-5,34;1,9;2,64;1,9;2,64;0;0;
37913;-15,6;-5,2;-15,6;-5,2;1,81;1,56;1,81;1,56;0;0;
37931;-18,68;-6,75;-18,68;-6,75;1,76;1,65;1,76;1,65;0;0;
37951;-20;-2,89;-20;-2,89;1,68;3,11;1,68;3,11;0;0;
37966;-15,15;-6,02;-15,15;-6,02;1,78;3,01;1,78;3,01;0;0;
37984;-13,26;-11,2;-13,26;-11,2;1,74;2,95;1,74;2,95;0;0;
38002;-18,38;-8,99;-18,38;-8,99;1,72;2,79;1,72;2,79;0;0;
38018;-18,38;-8,99;-18,38;-8,99;1,63;2,72;1,63;2,72;0;0;
38036;-13,55;-9,34;-13,55;-9,34;1,74;2,43;1,74;2,43;0;0;
38055;-12,31;-9;-12,31;-9;1,62;1,42;1,62;1,42;0;0;
38072;-16,51;-5,03;-16,51;-5,03;1,56;1,6;1,56;1,6;0;0;
38088;-15,7;-6,68;-15,7;-6,68;1,66;1,83;1,66;1,83;0;0;
38104;-13,3;-8,16;-13,3;-8,16;1,73;1,9;1,73;1,9;0;0;
38122;-21,49;-32,29;-21,49;-32,29;1,82;2,43;1,82;2,43;0;0;
38139;-21,49;-32,29;-21,49;-32,29;2;2,95;2;2,95;0;0;
38156;-14,63;-8,24;-14,63;-8,24;2,29;2,84;2,29;2,84;0;0;
38172;-17,32;-3,73;-17,32;-3,73;2,33;2,62;2,33;2,62;0;0;
38193;-16,3;-5,7;-16,3;-5,7;2,31;2,64;2,31;2,64;0;0;
38211;-23,33;-4,24;-23,33;-4,24;2,49;2,67;2,49;2,67;0;0;
38227;-15,47;-5,93;-15,47;-5,93;2,35;2,37;2,35;2,37;0;0;
38244;-18,78;-4,69;-18,78;-4,69;1,91;1,9;1,91;1,9;0;0;
38261;-16,25;-6,67;-16,25;-6,67;1,72;1,86;1,72;1,86;0;0;
38279;-16,25;-6,67;-16,25;-6,67;1,77;1,87;1,77;1,87;0;0;
38295;-17,81;-3,97;-17,81;-3,97;1,62;2,04;1,62;2,04;0;0;
38312;-18,15;-13,42;-18,15;-13,42;1,34;1,76;1,34;1,76;0;0;
38329;-11,64;-3,19;-11,64;-3,19;1,52;1,84;1,52;1,84;1;0;
38346;-17,8;-10,09;-17,8;-10,09;1,79;1,94;1,79;1,94;1;0;
38364;181,16;-0,71;181,16;-0,71;14,62;2,53;14,62;2,53;1;0;
38383;-246,3;8,37;-246,3;8,37;36,9;3,12;36,9;3,12;1;0;
38402;31,32;-3,96;31,32;-3,96;62,37;3,84;62,37;3,84;1;0;
38418;31,32;-3,96;31,32;-3,96;87,85;4,45;87,85;4,45;1;0;
38433;-155,76;-16,84;-155,76;-16,84;115,13;5,26;115,13;5,26;1;0;
38450;-107,42;-5,45;-107,42;-5,45;135;5,14;135;5,14;1;0;
38468;90,92;-7,02;90,92;-7,02;144,76;5,19;144,76;5,19;0;0;
38490;-396,82;-5,27;-396,82;-5,27;143,92;4,56;143,92;4,56;0;0;
38508;-61,1;-5,63;-61,1;-5,63;159,13;3,82;159,13;3,82;0;0;
38525;-30,81;-0,33;-30,81;-0,33;147,7;3,84;147,7;3,84;0;0;
38542;-9,53;-10,1;-9,53;-10,1;126,88;2,96;126,88;2,96;0;0;
38560;-16,61;-5,91;-16,61;-5,91;93,13;2,9;93,13;2,9;0;0;
38576;-16,61;-5,91;-16,61;-5,91;77,21;2,84;77,21;2,84;0;0;
38592;-19,82;-9,25;-19,82;-9,25;36,16;2,65;36,16;2,65;0;0;
38609;-15,55;-8,24;-15,55;-8,24;10,39;2,03;10,39;2,03;0;0;
38626;5,39;-14,17;5,39;-14,17;10,46;2,28;10,46;2,28;0;0;
38645;-85,53;-10,32;-85,53;-10,32;12,26;3,51;12,26;3,51;0;0;
38664;-29,02;-8,75;-29,02;-8,75;22,12;3,63;22,12;3,63;0;0;
38680;-47,08;-12,93;-47,08;-12,93;24,66;4,08;24,66;4,08;0;0;
38695;-47,08;-12,93;-47,08;-12,93;27,02;4,78;27,02;4,78;0;0;
38712;-17,04;-12,06;-17,04;-12,06;25,82;5,43;25,82;5,43;0;0;
