Time;EMG1;EMG2;EMG3;EMG4;EMG1_F;EMG2_F;EMG3_F;EMG4_F;Note_R;Note_V;;Level 1;Joueur;Score;Notes hit;% Reussite R;Offset EMG1;Onset EMG1;% Reussite V;Offset EMG2;Onset EMG2
14;-18,29;-34,64;-18,29;-34,64;1,79;1,69;1,79;1,69;0;0;;;1;16100;107;57,37705;-16,38454;21,79261;74;-34,79353;32,98816
33;-17,5;-28,89;-17,5;-28,89;1,81;2,03;1,81;2,03;0;0;;;2;16000;106;56,55738;-16,38454;21,79261;74;-34,79353;32,98816
50;-17,4;-37,67;-17,4;-37,67;2,01;2,15;2,01;2,15;0;0;
75;-17,64;-36,17;-17,64;-36,17;1,9;2,12;1,9;2,12;0;0;
95;-14,6;-36,1;-14,6;-36,1;1,65;2,05;1,65;2,05;0;0;
112;-14,75;-33,73;-14,75;-33,73;1,88;2,14;1,88;2,14;0;0;
129;-15,86;-35,26;-15,86;-35,26;1,84;2,04;1,84;2,04;0;0;
147;-16,95;-33,89;-16,95;-33,89;1,88;1,76;1,88;1,76;0;0;
164;-17,82;-33,82;-17,82;-33,82;1,82;1,84;1,82;1,84;0;0;
183;-14,99;-33,71;-14,99;-33,71;2,09;1,68;2,09;1,68;0;0;
198;-14,99;-33,71;-14,99;-33,71;2,29;1,69;2,29;1,69;0;0;
215;-17,28;-35,24;-17,28;-35,24;2,18;1,52;2,18;1,52;0;0;
235;-15,26;-34,26;-15,26;-34,26;2,12;1,48;2,12;1,48;0;0;
256;-14,11;-32,52;-14,11;-32,52;2,06;1,37;2,06;1,37;0;0;
273;-17,86;-34,51;-17,86;-34,51;2,1;1,32;2,1;1,32;0;0;
292;-16,93;-33,99;-16,93;-33,99;1,97;1,32;1,97;1,32;0;0;
309;-15,78;-32,3;-15,78;-32,3;1,8;1,42;1,8;1,42;0;0;
327;-16,49;-35,22;-16,49;-35,22;1,8;1,62;1,8;1,62;0;0;
346;-16,35;-35,5;-16,35;-35,5;1,92;1,76;1,92;1,76;0;0;
363;-16,52;-38,13;-16,52;-38,13;1,79;1,71;1,79;1,71;0;0;
382;-21,17;-34,02;-21,17;-34,02;1,84;1,97;1,84;1,97;0;0;
401;-13,89;-36,95;-13,89;-36,95;1,88;2;1,88;2;0;0;
420;-13,86;-35,13;-13,86;-35,13;1,76;1,93;1,76;1,93;0;0;
436;-13,86;-35,13;-13,86;-35,13;1,67;1,93;1,67;1,93;0;0;
455;-12,69;-33,89;-12,69;-33,89;1,73;1,89;1,73;1,89;0;0;
471;-15,05;-32,43;-15,05;-32,43;1,89;1,8;1,89;1,8;0;0;
489;-17,01;-31,2;-17,01;-31,2;1,72;1,71;1,72;1,71;0;0;
506;-15,04;-33,4;-15,04;-33,4;1,78;1,63;1,78;1,63;0;0;
524;-15,48;-31,09;-15,48;-31,09;1,68;1,55;1,68;1,55;0;0;
540;-14,79;-36,6;-14,79;-36,6;1,48;1,65;1,48;1,65;0;0;
563;-18,55;-34,48;-18,55;-34,48;1,57;1,74;1,57;1,74;0;0;
581;-14,98;-34,89;-14,98;-34,89;1,59;1,53;1,59;1,53;0;0;
598;-14,98;-34,89;-14,98;-34,89;1,64;1,44;1,64;1,44;0;0;
616;-15,73;-31,55;-15,73;-31,55;1,79;1,31;1,79;1,31;0;0;
632;-16,28;-37,55;-16,28;-37,55;1,75;1,39;1,75;1,39;0;0;
649;-16,42;-33,57;-16,42;-33,57;1,75;1,39;1,75;1,39;0;0;
667;-14,75;-37,44;-14,75;-37,44;1,69;1,52;1,69;1,52;0;0;
690;-16,89;-34,01;-16,89;-34,01;1,55;1,75;1,55;1,75;0;0;
709;-15,96;-33,29;-15,96;-33,29;1,53;1,81;1,53;1,81;0;0;
731;-20,01;-36,21;-20,01;-36,21;1,41;1,8;1,41;1,8;0;0;
750;-16,27;-35,97;-16,27;-35,97;1,42;1,91;1,42;1,91;0;0;
768;-13,89;-35,86;-13,89;-35,86;1,43;1,92;1,43;1,92;0;0;
785;-15,6;-33,6;-15,6;-33,6;1,72;1,85;1,72;1,85;0;0;
803;-20,67;-34,75;-20,67;-34,75;1,83;1,73;1,83;1,73;0;0;
818;-20,67;-34,75;-20,67;-34,75;1,88;1,49;1,88;1,49;0;0;
834;-18,35;-31,07;-18,35;-31,07;1,85;1,31;1,85;1,31;0;0;
852;-17,49;-36,12;-17,49;-36,12;1,78;1,26;1,78;1,26;0;0;
870;-14,03;-31,57;-14,03;-31,57;1,76;1,32;1,76;1,32;0;0;
891;-16,62;-32,31;-16,62;-32,31;1,6;1,48;1,6;1,48;0;0;
909;-20,18;-33,89;-20,18;-33,89;1,61;1,63;1,61;1,63;0;0;
929;-16,11;-31,57;-16,11;-31,57;1,56;2,02;1,56;2,02;0;0;
947;-15,82;-34,35;-15,82;-34,35;1,48;1,95;1,48;1,95;0;0;
963;-16,66;-35,41;-16,66;-35,41;1,35;2;1,35;2;0;0;
981;-19,82;-33,54;-19,82;-33,54;1,34;1,9;1,34;1,9;0;0;
1003;-15,15;-35,12;-15,15;-35,12;1,16;1,71;1,16;1,71;0;0;
1019;-15,15;-35,12;-15,15;-35,12;1,04;1,59;1,04;1,59;0;0;
1036;-17,25;-32,56;-17,25;-32,56;1,04;1,49;1,04;1,49;0;0;
1056;-18,74;-35,33;-18,74;-35,33;1,18;1,63;1,18;1,63;0;0;
1077;-17,49;-34,79;-17,49;-34,79;1,44;1,53;1,44;1,53;0;0;
1095;-16,34;-33,05;-16,34;-33,05;1,39;1,74;1,39;1,74;0;0;
1111;-16,61;-30,67;-16,61;-30,67;1,42;1,85;1,42;1,85;0;0;
1129;-16,17;-30,72;-16,17;-30,72;1,53;1,96;1,53;1,96;0;0;
1146;-16,41;-33,78;-16,41;-33,78;1,56;1,94;1,56;1,94;0;0;
1165;-15,91;-31,92;-15,91;-31,92;1,25;2,09;1,25;2,09;0;0;
1183;-15,67;-35,83;-15,67;-35,83;1,29;1,86;1,29;1,86;0;0;
1201;-18,16;-34,38;-18,16;-34,38;1,34;1,83;1,34;1,83;0;0;
1222;-14,81;-32,3;-14,81;-32,3;1,75;1,69;1,75;1,69;0;0;
1241;-17,28;-31,94;-17,28;-31,94;1,81;1,68;1,81;1,68;0;0;
1259;-17,28;-31,94;-17,28;-31,94;1,92;1,75;1,92;1,75;0;0;
1276;-15,87;-35,85;-15,87;-35,85;1,87;1,47;1,87;1,47;0;0;
1296;-16,89;-32,17;-16,89;-32,17;1,79;1,56;1,79;1,56;0;0;
1316;-14,73;-39,29;-14,73;-39,29;1,37;1,63;1,37;1,63;0;0;
1334;-21,14;-30,48;-21,14;-30,48;1,38;1,86;1,38;1,86;0;0;
1352;-15,38;-38,07;-15,38;-38,07;1,62;1,89;1,62;1,89;0;0;
1375;-12,59;-31,09;-12,59;-31,09;1,58;1,95;1,58;1,95;0;0;
1392;-18,97;-35,94;-18,97;-35,94;1,75;2,06;1,75;2,06;0;0;
1408;-14,39;-34,9;-14,39;-34,9;1,99;2,17;1,99;2,17;0;0;
1424;-20,28;-34,75;-20,28;-34,75;2,15;2,13;2,15;2,13;0;0;
1441;-14,86;-35,25;-14,86;-35,25;1,83;1,82;1,83;1,82;0;0;
1459;-14,86;-35,25;-14,86;-35,25;1,74;1,48;1,74;1,48;0;0;
1477;-16,49;-31,25;-16,49;-31,25;1,68;1,51;1,68;1,51;0;0;
1493;-19,13;-33,59;-19,13;-33,59;1,61;1,41;1,61;1,41;0;0;
1511;-14,87;-33,78;-14,87;-33,78;1,61;1,35;1,61;1,35;0;0;
1532;-20,45;-36,62;-20,45;-36,62;1,61;1,51;1,61;1,51;0;0;
1548;-14,08;-37,2;-14,08;-37,2;1,61;1,58;1,61;1,58;0;0;
1566;-17,63;-33,2;-17,63;-33,2;1,62;1,57;1,62;1,57;0;0;
1581;-17,26;-37,57;-17,26;-37,57;1,57;1,7;1,57;1,7;0;0;
1601;-14,1;-33,73;-14,1;-33,73;1,63;1,58;1,63;1,58;0;0;
1617;-14,1;-33,73;-14,1;-33,73;1,81;1,44;1,81;1,44;0;0;
1634;-17,5;-31,6;-17,5;-31,6;1,72;1,38;1,72;1,38;0;0;
1652;-14,18;-36,6;-14,18;-36,6;1,64;1,47;1,64;1,47;0;0;
1670;-13,03;-36,56;-13,03;-36,56;1,65;1,31;1,65;1,31;0;0;
1693;-13,58;-34,08;-13,58;-34,08;1,81;1,32;1,81;1,32;0;0;
1710;-18,27;-31,21;-18,27;-31,21;1,57;1,47;1,57;1,47;0;0;
1731;-15,91;-36,32;-15,91;-36,32;1,34;1,72;1,34;1,72;0;0;
1748;-18,09;-34,09;-18,09;-34,09;1,4;1,76;1,4;1,76;0;0;
1766;-18,69;-33,27;-18,69;-33,27;1,47;1,75;1,47;1,75;0;0;
1783;-18,3;-33,29;-18,3;-33,29;1,32;1,71;1,32;1,71;0;0;
1803;-18,24;-30,1;-18,24;-30,1;1,43;1,72;1,43;1,72;0;0;
1820;-13,56;-37,93;-13,56;-37,93;1,47;1,86;1,47;1,86;0;0;
1837;-13,56;-37,93;-13,56;-37,93;1,47;1,84;1,47;1,84;0;0;
1857;-16,9;-33,88;-16,9;-33,88;1,42;1,75;1,42;1,75;0;0;
1875;-16,27;-36,65;-16,27;-36,65;1,33;1,78;1,33;1,78;0;0;
1892;-18,44;-30,78;-18,44;-30,78;1,27;1,92;1,27;1,92;0;0;
1909;-14,45;-33,05;-14,45;-33,05;1,28;1,73;1,28;1,73;0;0;
1927;-15,16;-35,95;-15,16;-35,95;1,33;1,71;1,33;1,71;0;0;
1944;-16,76;-32,9;-16,76;-32,9;1,42;1,68;1,42;1,68;0;0;
1963;-18,47;-37,08;-18,47;-37,08;1,48;1,7;1,48;1,7;0;0;
1979;-18,47;-37,08;-18,47;-37,08;1,5;1,48;1,5;1,48;0;0;
1998;-16,64;-32,21;-16,64;-32,21;1,57;1,6;1,57;1,6;0;0;
2018;-15,74;-33,14;-15,74;-33,14;1,54;1,59;1,54;1,59;0;0;
2036;-14,91;-36,47;-14,91;-36,47;1,51;1,43;1,51;1,43;0;0;
2055;-15,64;-35,45;-15,64;-35,45;1,58;1,36;1,58;1,36;0;0;
2073;-17,93;-32,56;-17,93;-32,56;1,62;1,4;1,62;1,4;0;0;
2090;-9,05;-36,83;-9,05;-36,83;1,76;1,49;1,76;1,49;0;0;
2109;-17,48;-34,64;-17,48;-34,64;1,82;1,45;1,82;1,45;0;0;
2128;-17,92;-35,9;-17,92;-35,9;1,75;1,55;1,75;1,55;0;0;
2145;-15,24;-37,64;-15,24;-37,64;1,77;1,68;1,77;1,68;0;0;
2162;-16,63;-39,64;-16,63;-39,64;1,77;1,86;1,77;1,86;0;0;
2182;-13,97;-31,95;-13,97;-31,95;1,83;1,87;1,83;1,87;0;0;
2201;-17,87;-33,51;-17,87;-33,51;1,84;1,92;1,84;1,92;0;0;
2217;-17,87;-33,51;-17,87;-33,51;1,91;2,01;1,91;2,01;0;0;
2236;-17,37;-36,32;-17,37;-36,32;1,98;1,81;1,98;1,81;0;0;
2260;-20,06;-34,89;-20,06;-34,89;2,02;1,61;2,02;1,61;0;0;
2276;-13,82;-32,54;-13,82;-32,54;2,06;1,53;2,06;1,53;0;0;
2293;-14,72;-39,17;-14,72;-39,17;1,75;1,51;1,75;1,51;0;0;
2309;-18,76;-31,93;-18,76;-31,93;1,83;1,45;1,83;1,45;0;0;
2326;-16,39;-34,32;-16,39;-34,32;1,77;1,46;1,77;1,46;0;0;
2347;-12,4;-35,61;-12,4;-35,61;1,96;1,44;1,96;1,44;0;0;
2366;-15,17;-34,62;-15,17;-34,62;1,91;1,39;1,91;1,39;0;0;
2384;-20,21;-35,65;-20,21;-35,65;2;1,39;2;1,39;0;0;
2402;-16,57;-33,28;-16,57;-33,28;1,91;1,52;1,91;1,52;0;0;
2418;-16,57;-33,28;-16,57;-33,28;1,74;1,55;1,74;1,55;0;0;
2434;-16,66;-36,66;-16,66;-36,66;1,78;1,54;1,78;1,54;0;0;
2450;-17,35;-34,72;-17,35;-34,72;1,6;1,49;1,6;1,49;0;0;
2469;-18,97;-33,63;-18,97;-33,63;1,55;1,54;1,55;1,54;0;0;
2487;-14,39;-34,92;-14,39;-34,92;1,52;1,37;1,52;1,37;0;0;
2511;-17,1;-31,29;-17,1;-31,29;1,51;1,34;1,51;1,34;0;0;
2528;-16,09;-29,88;-16,09;-29,88;1,56;1,55;1,56;1,55;0;0;
2546;-18,19;-36,2;-18,19;-36,2;1,58;1,57;1,58;1,57;0;0;
2564;-15,98;-35,59;-15,98;-35,59;1,63;1,68;1,63;1,68;0;0;
2580;-13,56;-32,92;-13,56;-32,92;1,78;1,72;1,78;1,72;0;0;
2598;-13,56;-32,92;-13,56;-32,92;1,78;1,87;1,78;1,87;0;0;
2616;-14,46;-36,95;-14,46;-36,95;1,87;1,85;1,87;1,85;0;0;
2634;-15,29;-31,79;-15,29;-31,79;1,86;1,73;1,86;1,73;0;0;
2651;-18,53;-32,76;-18,53;-32,76;1,76;1,61;1,76;1,61;0;0;
2673;-14,34;-34,51;-14,34;-34,51;1,85;1,55;1,85;1,55;0;0;
2690;-15,6;-35,25;-15,6;-35,25;1,76;1,5;1,76;1,5;0;0;
2707;-15,66;-37,41;-15,66;-37,41;1,72;1,55;1,72;1,55;0;0;
2725;-18,16;-33,1;-18,16;-33,1;1,64;1,53;1,64;1,53;0;0;
2743;-17,02;-35,25;-17,02;-35,25;1,75;1,49;1,75;1,49;0;0;
2758;-17,02;-35,25;-17,02;-35,25;1,78;1,48;1,78;1,48;0;0;
2778;-13,96;-34,87;-13,96;-34,87;1,96;1,54;1,96;1,54;0;0;
2797;-18,52;-36,13;-18,52;-36,13;1,9;1,67;1,9;1,67;0;0;
2815;-12,59;-33,63;-12,59;-33,63;2,11;1,57;2,11;1,57;0;0;
2836;-16,92;-33,11;-16,92;-33,11;2,05;1,56;2,05;1,56;0;0;
2854;-18,58;-33,71;-18,58;-33,71;1,96;1,58;1,96;1,58;0;0;
2871;-14,15;-35,14;-14,15;-35,14;1,81;1,56;1,81;1,56;0;0;
2889;-14,38;-30,03;-14,38;-30,03;1,69;1,5;1,69;1,5;0;0;
2906;-18,3;-34,26;-18,3;-34,26;1,66;1,6;1,66;1,6;0;0;
2927;-16,5;-35,46;-16,5;-35,46;1,62;1,51;1,62;1,51;0;0;
2944;-16,73;-32,43;-16,73;-32,43;1,7;1,58;1,7;1,58;0;0;
2961;-16,96;-33,61;-16,96;-33,61;1,66;1,63;1,66;1,63;0;0;
2977;-16,96;-33,61;-16,96;-33,61;1,65;1,76;1,65;1,76;0;0;
3000;-16,1;-35,52;-16,1;-35,52;1,45;1,51;1,45;1,51;0;0;
3017;-16,52;-35,8;-16,52;-35,8;1,24;1,55;1,24;1,55;0;0;
3033;-15,78;-32,56;-15,78;-32,56;1,17;1,62;1,17;1,62;0;0;
3051;-15,89;-34,98;-15,89;-34,98;1,11;1,51;1,11;1,51;0;0;
3068;-13,42;-34,44;-13,42;-34,44;1,16;1,51;1,16;1,51;0;0;
3085;-18,24;-36,58;-18,24;-36,58;1,19;1,37;1,19;1,37;0;0;
3102;-13,95;-33,25;-13,95;-33,25;1,5;1,51;1,5;1,51;0;0;
3119;-13,95;-33,25;-13,95;-33,25;1,82;1,44;1,82;1,44;0;0;
3138;-16,4;-35,61;-16,4;-35,61;1,88;1,48;1,88;1,48;0;0;
3158;-17,68;-35,25;-17,68;-35,25;1,93;1,58;1,93;1,58;0;0;
3176;-15,83;-34,75;-15,83;-34,75;1,83;1,55;1,83;1,55;0;0;
3194;-14,45;-33,65;-14,45;-33,65;1,67;1,59;1,67;1,59;0;0;
3210;-20,9;-36,83;-20,9;-36,83;1,73;1,52;1,73;1,52;0;0;
3229;-16,78;-37,22;-16,78;-37,22;1,63;1,57;1,63;1,57;0;0;
3248;-15,91;-31,93;-15,91;-31,93;1,49;1,49;1,49;1,49;0;0;
3266;-14,37;-33,3;-14,37;-33,3;1,56;1,54;1,56;1,54;0;0;
3283;-17,87;-30,62;-17,87;-30,62;1,55;1,69;1,55;1,69;0;0;
3301;-11,05;-37,21;-11,05;-37,21;1,64;1,68;1,64;1,68;0;0;
3322;-19,63;-32,68;-19,63;-32,68;1,56;1,71;1,56;1,71;0;0;
3340;-19,63;-32,68;-19,63;-32,68;1,59;1,57;1,59;1,57;0;0;
3357;-17,48;-31,21;-17,48;-31,21;1,77;1,76;1,77;1,76;0;0;
3375;-17,16;-37,41;-17,16;-37,41;1,86;1,71;1,86;1,71;0;0;
3392;-13,06;-32,55;-13,06;-32,55;1,78;1,7;1,78;1,7;0;0;
3410;-17,53;-34,44;-17,53;-34,44;1,62;1,62;1,62;1,62;0;0;
3428;-14,54;-34,35;-14,54;-34,35;1,63;1,6;1,63;1,6;0;0;
3445;-14,33;-31,61;-14,33;-31,61;1,78;1,96;1,78;1,96;0;0;
3464;-14,26;-32,78;-14,26;-32,78;1,7;1,75;1,7;1,75;0;0;
3485;-14,19;-33,04;-14,19;-33,04;1,86;2,03;1,86;2,03;0;0;
3503;-17,49;-36,35;-17,49;-36,35;1,8;1,99;1,8;1,99;0;0;
3519;-17,49;-36,35;-17,49;-36,35;1,72;2,07;1,72;2,07;0;0;
3538;-18,31;-32,2;-18,31;-32,2;1,83;1,96;1,83;1,96;1;0;
3555;-16,46;-30,72;-16,46;-30,72;1,9;1,76;1,9;1,76;1;0;
3574;-18,6;-34,19;-18,6;-34,19;1,8;1,68;1,8;1,68;1;0;
3593;-13,08;-34,86;-13,08;-34,86;1,72;1,74;1,72;1,74;1;0;
3610;-15,25;-32,91;-15,25;-32,91;1,7;1,7;1,7;1,7;1;0;
3627;-20,13;-43,76;-20,13;-43,76;2,41;2,26;2,41;2,26;1;0;
3648;-32,85;-36,25;-32,85;-36,25;3,21;2,81;3,21;2,81;1;0;
3667;22,56;-13,01;22,56;-13,01;5,09;3,88;5,09;3,88;1;0;
3684;-19,83;-27,17;-19,83;-27,17;8,71;5,59;8,71;5,59;1;0;
3703;-7,44;-24,6;-7,44;-24,6;11,57;7,16;11,57;7,16;1;0;
3718;-7,44;-24,6;-7,44;-24,6;14,2;8,78;14,2;8,78;1;0;
3735;-60,6;-46,93;-60,6;-46,93;17,66;10,39;17,66;10,39;1;0;
3752;-63,94;-55,6;-63,94;-55,6;20,71;11,77;20,71;11,77;1;0;
3771;-19,95;-26,41;-19,95;-26,41;21,27;11,27;21,27;11,27;1;0;
3792;-7,34;-30,77;-7,34;-30,77;20,4;11,8;20,4;11,8;0;0;
3821;-5;-12,34;-5;-12,34;20,77;11,41;20,77;11,41;0;0;
3839;-5;-12,34;-5;-12,34;21,54;11,3;21,54;11,3;0;0;
3856;-9,66;-35,01;-9,66;-35,01;21,32;9,67;21,32;9,67;0;0;
3875;-3,91;-0,48;-3,91;-0,48;18,8;8,83;18,8;8,83;0;0;
3895;-13,1;-24,77;-13,1;-24,77;18,68;9,1;18,68;9,1;0;0;
3913;-9,22;-31,57;-9,22;-31,57;17,81;8,39;17,81;8,39;0;0;
3932;-16,47;-45,41;-16,47;-45,41;17,62;9,32;17,62;9,32;0;0;
3949;-21,61;-40,04;-21,61;-40,04;13,26;8,41;13,26;8,41;0;0;
3971;-16,89;-29,53;-16,89;-29,53;11,96;8,3;11,96;8,3;0;0;
3995;-9,45;-16,48;-9,45;-16,48;12,73;8,99;12,73;8,99;0;0;
4014;-9,14;-31,53;-9,14;-31,53;9,17;7,86;9,17;7,86;0;0;
4033;-15,82;-17,12;-15,82;-17,12;9,12;8,33;9,12;8,33;0;0;
4051;-13,31;-35,6;-13,31;-35,6;7,81;7,58;7,81;7,58;0;0;
4072;-20,09;-35,23;-20,09;-35,23;7,79;7,57;7,79;7,57;0;0;
4090;-8,15;-33,56;-8,15;-33,56;7,37;7,71;7,37;7,71;0;0;
4108;-17,25;-34,59;-17,25;-34,59;6,33;6,25;6,33;6,25;0;0;
4132;-17,57;-35,02;-17,57;-35,02;4,68;5,6;4,68;5,6;0;0;
4149;-14,93;-34,03;-14,93;-34,03;3,52;4,08;3,52;4,08;0;0;
4167;-15,56;-34,34;-15,56;-34,34;2,92;3,28;2,92;3,28;0;0;
4184;-18;-37,93;-18;-37,93;2,62;2,55;2,62;2,55;0;0;
4201;-16,36;-32,34;-16,36;-32,34;1,98;1,89;1,98;1,89;0;0;
4218;-16,36;-32,34;-16,36;-32,34;1,94;1,88;1,94;1,88;0;0;
4235;-14;-35,42;-14;-35,42;1,89;2,01;1,89;2,01;0;0;
4252;-19,19;-32,75;-19,19;-32,75;1,78;1,93;1,78;1,93;0;0;
4271;-16,09;-35,51;-16,09;-35,51;1,46;2,01;1,46;2,01;0;0;
4293;-17,43;-34,94;-17,43;-34,94;1,42;1,81;1,42;1,81;0;0;
4311;-17,06;-36,09;-17,06;-36,09;1,49;1,69;1,49;1,69;0;0;
4329;-17;-34,78;-17;-34,78;1,71;1,64;1,71;1,64;0;0;
4348;-20,47;-30,34;-20,47;-30,34;1,92;1,59;1,92;1,59;0;0;
4369;-15,64;-33,53;-15,64;-33,53;1,97;1,61;1,97;1,61;0;0;
4386;-12,97;-35,96;-12,97;-35,96;2,09;1,62;2,09;1,62;0;0;
4404;-15,49;-35,59;-15,49;-35,59;2,1;1,6;2,1;1,6;0;0;
4422;-17,46;-34,87;-17,46;-34,87;2,04;1,61;2,04;1,61;0;0;
4443;-18,6;-33,71;-18,6;-33,71;1,82;1,59;1,82;1,59;0;0;
4460;-17,77;-33,63;-17,77;-33,63;1,7;1,49;1,7;1,49;0;0;
4476;-17,77;-33,63;-17,77;-33,63;1,57;1,42;1,57;1,42;0;0;
4492;-19,43;-34,51;-19,43;-34,51;1,49;1,45;1,49;1,45;0;0;
4511;-16,44;-34,08;-16,44;-34,08;1,61;1,42;1,61;1,42;0;0;
4531;-21,07;-35,62;-21,07;-35,62;1,74;1,31;1,74;1,31;0;0;
4548;-16,63;-30,34;-16,63;-30,34;1,77;1,42;1,77;1,42;0;0;
4566;-17,54;-31,3;-17,54;-31,3;1,77;1,59;1,77;1,59;0;0;
4583;-12,62;-36,84;-12,62;-36,84;1,71;1,79;1,71;1,79;0;0;
4604;-18,35;-37,77;-18,35;-37,77;1,66;1,76;1,66;1,76;0;0;
4621;-16,52;-37,67;-16,52;-37,67;1,46;1,86;1,46;1,86;0;0;
4637;-16,52;-37,67;-16,52;-37,67;1,37;1,94;1,37;1,94;0;0;
4652;-16,5;-35,67;-16,5;-35,67;1,43;1,78;1,43;1,78;0;0;
4671;-15,66;-35,9;-15,66;-35,9;1,39;1,5;1,39;1,5;0;0;
4688;-14,4;-33,92;-14,4;-33,92;1,62;1,39;1,62;1,39;0;0;
4707;-18,35;-32,19;-18,35;-32,19;1,61;1,6;1,61;1,6;0;0;
4724;-13,47;-34,88;-13,47;-34,88;1,69;1,64;1,69;1,64;0;0;
4742;-11,61;-33,76;-11,61;-33,76;1,75;1,49;1,75;1,49;0;0;
4765;-16,4;-35,85;-16,4;-35,85;1,74;1,59;1,74;1,59;0;0;
4782;-19;-33,41;-19;-33,41;1,65;1,75;1,65;1,75;0;0;
4801;-16,44;-33,61;-16,44;-33,61;1,51;1,69;1,51;1,69;0;0;
4820;-13,76;-33,04;-13,76;-33,04;1,49;1,52;1,49;1,52;0;0;
4836;-13,76;-33,04;-13,76;-33,04;1,56;1,69;1,56;1,69;0;0;
4853;-14,63;-33,76;-14,63;-33,76;1,46;1,75;1,46;1,75;0;0;
4873;-20,63;-33,15;-20,63;-33,15;1,46;1,76;1,46;1,76;0;0;
4890;-16,62;-31,92;-16,62;-31,92;1,62;1,7;1,62;1,7;0;0;
4910;-16,57;-31,25;-16,57;-31,25;1,58;1,67;1,58;1,67;0;0;
4931;-18,13;-34,37;-18,13;-34,37;1,68;1,54;1,68;1,54;0;0;
4949;-13,91;-32,18;-13,91;-32,18;1,75;1,49;1,75;1,49;0;0;
4967;-16,06;-32,07;-16,06;-32,07;1,75;1,5;1,75;1,5;0;0;
4984;-19,23;-33,02;-19,23;-33,02;1,58;1,44;1,58;1,44;0;0;
5003;-15,17;-33,9;-15,17;-33,9;1,66;1,35;1,66;1,35;0;0;
5019;-15,17;-33,9;-15,17;-33,9;1,66;1,28;1,66;1,28;0;0;
5036;-10,89;-36,22;-10,89;-36,22;1,62;1,35;1,62;1,35;0;0;
5056;-16,08;-32,3;-16,08;-32,3;1,7;1,43;1,7;1,43;0;0;
5074;-13,27;-34,13;-13,27;-34,13;1,75;1,45;1,75;1,45;0;0;
5097;-14,53;-34,45;-14,53;-34,45;1,63;1,47;1,63;1,47;0;0;
5114;-17,61;-34,25;-17,61;-34,25;1,44;1,67;1,44;1,67;0;0;
5134;-14,12;-36,61;-14,12;-36,61;1,39;1,75;1,39;1,75;0;0;
5153;-20,74;-31,65;-20,74;-31,65;1,37;1,77;1,37;1,77;0;0;
5171;-15,13;-37,56;-15,13;-37,56;1,36;1,79;1,36;1,79;0;0;
5188;-18,8;-33,88;-18,8;-33,88;1,33;1,64;1,33;1,64;0;0;
5206;-18,67;-34,27;-18,67;-34,27;1,38;1,38;1,38;1,38;0;0;
5223;-17,07;-34,5;-17,07;-34,5;1,45;1,65;1,45;1,65;0;0;
5241;-14,76;-34,62;-14,76;-34,62;1,41;1,56;1,41;1,56;0;0;
5262;-15,58;-34,49;-15,58;-34,49;1,33;1,59;1,33;1,59;0;0;
5279;-15,58;-34,49;-15,58;-34,49;1,5;1,66;1,5;1,66;0;0;
5295;-11,97;-33,01;-11,97;-33,01;1,77;1,73;1,77;1,73;0;0;
5313;-18,65;-33,17;-18,65;-33,17;1,95;1,81;1,95;1,81;0;0;
5331;-12,81;-33,25;-12,81;-33,25;2,09;1,96;2,09;1,96;0;0;
5347;-16,28;-34,13;-16,28;-34,13;1,96;1,85;1,96;1,85;0;0;
5372;-14,56;-30,14;-14,56;-30,14;1,87;1,82;1,87;1,82;0;0;
5388;-15,78;-37,94;-15,78;-37,94;1,76;1,9;1,76;1,9;0;0;
5407;-17,66;-34,26;-17,66;-34,26;1,55;2;1,55;2;0;0;
5429;-16,77;-32,7;-16,77;-32,7;1,72;1,84;1,72;1,84;0;0;
5447;-14,56;-35,92;-14,56;-35,92;1,74;1,78;1,74;1,78;0;0;
5465;-15,68;-34,74;-15,68;-34,74;1,8;1,7;1,8;1,7;0;0;
5483;-17,96;-33,71;-17,96;-33,71;1,81;1,66;1,81;1,66;0;0;
5500;-17,15;-32,29;-17,15;-32,29;1,83;1,58;1,83;1,58;0;0;
5516;-17,15;-32,29;-17,15;-32,29;1,69;1,57;1,69;1,57;0;0;
5536;-16,95;-35,35;-16,95;-35,35;1,73;1,4;1,73;1,4;0;0;
5552;-16,52;-34,45;-16,52;-34,45;1,63;1,48;1,63;1,48;0;0;
5570;-14,88;-36,18;-14,88;-36,18;1,69;1,42;1,69;1,42;0;0;
5594;-12,72;-33,72;-12,72;-33,72;1,74;1,53;1,74;1,53;0;0;
5611;-16,77;-34,76;-16,77;-34,76;1,61;1,49;1,61;1,49;0;0;
5628;-13,13;-36,95;-13,13;-36,95;1,58;1,4;1,58;1,4;0;0;
5646;-17,9;-34,25;-17,9;-34,25;1,59;1,46;1,59;1,46;1;0;
5666;-20,19;-33,6;-20,19;-33,6;1,73;1,54;1,73;1,54;1;0;
5682;-18,54;-36,33;-18,54;-36,33;1,78;1,48;1,78;1,48;1;0;
5699;-18,54;-36,33;-18,54;-36,33;1,93;1,37;1,93;1,37;1;0;
5715;-16,7;-33,65;-16,7;-33,65;1,96;1,54;1,96;1,54;1;0;
5734;-16,05;-36,96;-16,05;-36,96;1,84;1,52;1,84;1,52;1;0;
5755;-18,2;-34,06;-18,2;-34,06;1,79;1,69;1,79;1,69;1;0;
5771;-16,03;-33,16;-16,03;-33,16;1,7;1,59;1,7;1,59;1;0;
5788;-23,87;-38,35;-23,87;-38,35;1,84;1,91;1,84;1,91;1;0;
5807;-14,78;-34,8;-14,78;-34,8;2,78;2,38;2,78;2,38;1;0;
5824;-46,23;-47,66;-46,23;-47,66;5,26;3,85;5,26;3,85;1;0;
5842;-11,66;-33,03;-11,66;-33,03;8,91;5,82;8,91;5,82;1;0;
5860;-16,72;-28,9;-16,72;-28,9;11,81;7,41;11,81;7,41;1;0;
5876;-16,72;-28,9;-16,72;-28,9;14,59;9,14;14,59;9,14;1;0;
5895;-11,81;-31,31;-11,81;-31,31;17,84;10,94;17,84;10,94;1;0;
5916;-35,18;-43,38;-35,18;-43,38;20,47;12,5;20,47;12,5;1;0;
5935;-8,89;-26,97;-8,89;-26,97;19,08;11,3;19,08;11,3;1;0;
5953;-17,78;-35,14;-17,78;-35,14;18,02;11,5;18,02;11,5;1;0;
5970;-41,55;-35,54;-41,55;-35,54;17,87;11,54;17,87;11,54;1;0;
5988;1,89;-38,23;1,89;-38,23;17,91;10,66;17,91;10,66;0;0;
6007;39,05;14,31;39,05;14,31;16,62;10,55;16,62;10,55;0;0;
6023;-10,63;-32,32;-10,63;-32,32;18,59;10,91;18,59;10,91;0;0;
6046;-41,23;-39,23;-41,23;-39,23;17,25;10,29;17,25;10,29;0;0;
6066;-17,88;-23,89;-17,88;-23,89;16,24;10,07;16,24;10,07;0;0;
6089;-23,01;-38,45;-23,01;-38,45;13,68;8,2;13,68;8,2;0;0;
6108;-8,55;-36,54;-8,55;-36,54;12,26;7,98;12,26;7,98;0;0;
6130;-26,03;-39,55;-26,03;-39,55;6,84;5,92;6,84;5,92;0;0;
6147;-18,81;-35,97;-18,81;-35,97;7,17;6,62;7,17;6,62;0;0;
6164;-12,25;-26,2;-12,25;-26,2;5,8;5,66;5,8;5,66;0;0;
6184;-14,77;-37,31;-14,77;-37,31;5,08;5,92;5,08;5,92;0;0;
6203;-13,9;-33,99;-13,9;-33,99;4,77;5,71;4,77;5,71;0;0;
6221;-19,43;-34,7;-19,43;-34,7;4,41;5,12;4,41;5,12;0;0;
6241;-18,21;-33,26;-18,21;-33,26;3,37;3,22;3,37;3,22;0;0;
6261;-12,82;-33,54;-12,82;-33,54;3,13;3,04;3,13;3,04;0;0;
6278;-12,82;-33,54;-12,82;-33,54;2,9;2,21;2,9;2,21;0;0;
6294;-15,38;-35,23;-15,38;-35,23;2,35;1,32;2,35;1,32;0;0;
6311;-14,7;-34,38;-14,7;-34,38;2,3;1,23;2,3;1,23;0;0;
6330;-15,43;-33,55;-15,43;-33,55;2,32;1,41;2,32;1,41;0;0;
6349;-13,5;-36,45;-13,5;-36,45;2,2;1,39;2,2;1,39;0;0;
6366;-14,76;-31,1;-14,76;-31,1;2,01;1,38;2,01;1,38;0;0;
6383;-17,33;-34,62;-17,33;-34,62;1,93;1,46;1,93;1,46;0;0;
6406;-14,45;-34,26;-14,45;-34,26;1,92;1,49;1,92;1,49;0;0;
6425;-15,95;-34,47;-15,95;-34,47;1,64;1,46;1,64;1,46;0;0;
6441;-15,75;-37,79;-15,75;-37,79;1,73;1,5;1,73;1,5;0;0;
6458;-15,75;-37,79;-15,75;-37,79;1,74;1,67;1,74;1,67;0;0;
6475;-15,52;-30,86;-15,52;-30,86;1,77;1,63;1,77;1,63;0;0;
6492;-16,88;-35,23;-16,88;-35,23;1,6;1,67;1,6;1,67;0;0;
6508;-17,2;-33,54;-17,2;-33,54;1,79;1,63;1,79;1,63;0;0;
6526;-14,66;-37,38;-14,66;-37,38;1,76;1,6;1,76;1,6;0;0;
6544;-14,79;-35,41;-14,79;-35,41;1,72;1,63;1,72;1,63;0;0;
6565;-16,53;-34,24;-16,53;-34,24;1,85;1,54;1,85;1,54;0;0;
6585;-16,99;-34,78;-16,99;-34,78;1,9;1,54;1,9;1,54;0;0;
6603;-17,44;-35,91;-17,44;-35,91;1,7;1,73;1,7;1,73;0;0;
6620;-16;-31,83;-16;-31,83;1,62;1,8;1,62;1,8;0;0;
6635;-16;-31,83;-16;-31,83;1,56;1,77;1,56;1,77;0;0;
6652;-17,97;-34,89;-17,97;-34,89;1,57;1,75;1,57;1,75;0;0;
6670;-13,27;-37,31;-13,27;-37,31;1,54;1,85;1,54;1,85;0;0;
6690;-15,31;-32,55;-15,31;-32,55;1,74;1,9;1,74;1,9;0;0;
6709;-15,16;-33,91;-15,16;-33,91;1,8;1,81;1,8;1,81;0;0;
6732;-22,15;-34,63;-22,15;-34,63;1,78;1,8;1,78;1,8;0;0;
6750;-15,57;-32,56;-15,57;-32,56;1,9;1,89;1,9;1,89;0;0;
6767;-19,22;-29,86;-19,22;-29,86;1,83;1,94;1,83;1,94;0;0;
6787;-17,55;-32,93;-17,55;-32,93;1,78;1,95;1,78;1,95;0;0;
6805;-16,28;-35,25;-16,28;-35,25;1,76;1,93;1,76;1,93;0;0;
6823;-16,63;-34,2;-16,63;-34,2;2,09;1,85;2,09;1,85;0;0;
6842;-17,27;-33,54;-17,27;-33,54;1,95;1,56;1,95;1,56;0;0;
6861;-16,01;-35,55;-16,01;-35,55;2,01;1,56;2,01;1,56;0;0;
6883;-18,23;-34;-18,23;-34;2;1,46;2;1,46;0;0;
6901;-14,77;-32,84;-14,77;-32,84;1,89;1,5;1,89;1,5;0;0;
6919;-14,77;-32,84;-14,77;-32,84;1,62;1,68;1,62;1,68;0;0;
6942;-12,98;-36,11;-12,98;-36,11;1,66;1,66;1,66;1,66;0;0;
6961;-16,41;-32,55;-16,41;-32,55;1,65;1,83;1,65;1,83;0;0;
6977;-16,41;-32,55;-16,41;-32,55;1,7;1,8;1,7;1,8;0;0;
6994;-17,61;-30,09;-17,61;-30,09;1,67;1,93;1,67;1,93;0;0;
7013;-15,21;-32,79;-15,21;-32,79;1,75;1,95;1,75;1,95;0;0;
7033;-17,12;-38,04;-17,12;-38,04;1,65;1,96;1,65;1,96;0;0;
7050;-18,26;-32,91;-18,26;-32,91;1,68;1,92;1,68;1,92;0;0;
7068;-16,24;-33,57;-16,24;-33,57;1,68;1,83;1,68;1,83;0;0;
7085;-23,19;-33,06;-23,19;-33,06;1,72;1,55;1,72;1,55;0;0;
7103;-14,07;-31,56;-14,07;-31,56;1,91;1,35;1,91;1,35;0;0;
7119;-14,07;-31,56;-14,07;-31,56;2,01;1,32;2,01;1,32;0;0;
7139;-15,81;-28,38;-15,81;-28,38;1,98;1,31;1,98;1,31;0;0;
7158;-18,42;-34,88;-18,42;-34,88;1,72;1,57;1,72;1,57;0;0;
7177;-16,15;-34,53;-16,15;-34,53;1,81;1,61;1,81;1,61;0;0;
7202;-19,59;-36,24;-19,59;-36,24;1,56;1,64;1,56;1,64;0;0;
7221;-15,84;-34,5;-15,84;-34,5;1,38;1,57;1,38;1,57;0;0;
7239;-15,84;-34,5;-15,84;-34,5;1,34;1,48;1,34;1,48;0;0;
7256;-16,72;-35,51;-16,72;-35,51;1,48;1,29;1,48;1,29;0;0;
7275;-16,46;-33,88;-16,46;-33,88;1,55;1,19;1,55;1,19;0;0;
7291;-17,66;-35,43;-17,66;-35,43;1,64;1,29;1,64;1,29;0;0;
7309;-16;-35,44;-16;-35,44;1,65;1,29;1,65;1,29;0;0;
7327;-19,1;-36,24;-19,1;-36,24;1,83;1,34;1,83;1,34;0;0;
7347;-18,39;-35,41;-18,39;-35,41;1,79;1,3;1,79;1,3;0;0;
7367;-13,73;-32,91;-13,73;-32,91;1,92;1,34;1,92;1,34;0;0;
7384;-16,83;-34,39;-16,83;-34,39;1,92;1,29;1,92;1,29;0;0;
7404;-16,78;-31,73;-16,78;-31,73;1,96;1,29;1,96;1,29;0;0;
7421;-17,7;-33,86;-17,7;-33,86;1,86;1,25;1,86;1,25;0;0;
7437;-17,7;-33,86;-17,7;-33,86;1,6;1,23;1,6;1,23;0;0;
7454;-17,14;-36,18;-17,14;-36,18;1,55;1,2;1,55;1,2;0;0;
7471;-17,81;-35,67;-17,81;-35,67;1,48;1,21;1,48;1,21;0;0;
7489;-14,89;-33,3;-14,89;-33,3;1,33;1,37;1,33;1,37;0;0;
7510;-18,6;-32,73;-18,6;-32,73;1,27;1,36;1,27;1,36;0;0;
7530;-16,6;-34,71;-16,6;-34,71;1,39;1,48;1,39;1,48;0;0;
7546;-17,12;-35,6;-17,12;-35,6;1,43;1,64;1,43;1,64;0;0;
7565;-17,16;-32,54;-17,16;-32,54;1,22;1,66;1,22;1,66;1;0;
7582;-16,35;-33,86;-16,35;-33,86;1,3;1,81;1,3;1,81;1;0;
7622;-16,88;-30,25;-16,88;-30,25;1,41;1,84;1,41;1,84;1;0;
7641;-14,66;-37,29;-14,66;-37,29;1,44;2,14;1,44;2,14;1;0;
7662;-14,71;-32,54;-14,71;-32,54;1,39;2,14;1,39;2,14;1;0;
7681;-16,14;-37,71;-16,14;-37,71;1,41;2,13;1,41;2,13;1;0;
7698;-16,14;-37,71;-16,14;-37,71;1,39;2,19;1,39;2,19;1;0;
7715;-16,74;-37,21;-16,74;-37,21;1,53;2,28;1,53;2,28;1;0;
7733;-20,27;-35,95;-20,27;-35,95;1,68;2,05;1,68;2,05;1;0;
7750;-13,33;-36,53;-13,33;-36,53;1,8;2,01;1,8;2,01;1;0;
7766;-12,83;-35,15;-12,83;-35,15;1,85;1,95;1,85;1,95;1;0;
7783;-18,43;-40,64;-18,43;-40,64;1,87;2,04;1,87;2,04;1;0;
7802;-18,54;-33,15;-18,54;-33,15;1,96;2,02;1,96;2,02;1;0;
7823;-17,54;-35,61;-17,54;-35,61;2,07;1,83;2,07;1,83;1;0;
7839;-17,54;-35,61;-17,54;-35,61;2,03;1,74;2,03;1,74;1;0;
7858;-22,11;-40,87;-22,11;-40,87;6,54;3,85;6,54;3,85;1;0;
7876;-58,6;-28,35;-58,6;-28,35;10,44;6,8;10,44;6,8;1;0;
7897;40,73;11,6;40,73;11,6;14,4;9,43;14,4;9,43;1;0;
7914;-16,71;-45,03;-16,71;-45,03;17,56;11,81;17,56;11,81;0;0;
7932;-10,72;-22,96;-10,72;-22,96;18,54;13,01;18,54;13,01;0;0;
7950;-12,81;-36,57;-12,81;-36,57;18,19;13,75;18,19;13,75;0;0;
7968;-34,23;-33,07;-34,23;-33,07;15,22;12,98;15,22;12,98;0;0;
7990;14,37;-16,85;14,37;-16,85;12,37;11,35;12,37;11,35;0;0;
8013;-25,02;-37,68;-25,02;-37,68;8,96;8,78;8,96;8,78;0;0;
8029;-12,39;-34,48;-12,39;-34,48;9,16;9,36;9,16;9,36;0;0;
8047;-12,8;-27,13;-12,8;-27,13;8,53;8,95;8,53;8,95;0;0;
8067;-18,27;-31,78;-18,27;-31,78;8,59;8,8;8,59;8,8;0;0;
8084;-20,28;-35,73;-20,28;-35,73;6,35;6,63;6,35;6,63;0;0;
8101;-2,72;-21,06;-2,72;-21,06;4,39;5,61;4,39;5,61;0;0;
8118;-2,72;-21,06;-2,72;-21,06;3,45;4,46;3,45;4,46;0;0;
8141;-11,92;-31,6;-11,92;-31,6;3,44;4,3;3,44;4,3;0;0;
8159;-11,92;-31,6;-11,92;-31,6;3,43;3,54;3,43;3,54;0;0;
8176;-24,1;-28,96;-24,1;-28,96;3,48;3,46;3,48;3,46;0;0;
8194;-22,42;-36,75;-22,42;-36,75;5,48;4,18;5,48;4,18;0;0;
8212;-9,83;-28,01;-9,83;-28,01;5,61;4,16;5,61;4,16;0;0;
8229;-15,78;-27,03;-15,78;-27,03;5,33;3,86;5,33;3,86;0;0;
8245;-17,51;-38,03;-17,51;-38,03;5,13;4,09;5,13;4,09;0;0;
8264;-13,36;-24,96;-13,36;-24,96;4,67;4,08;4,67;4,08;0;0;
8283;-16,29;-31,09;-16,29;-31,09;3,67;3,35;3,67;3,35;0;0;
8304;-15,79;-33,4;-15,79;-33,4;2,07;2,53;2,07;2,53;0;0;
8322;-15,28;-36,33;-15,28;-36,33;1,83;2,21;1,83;2,21;0;0;
8338;-15,28;-36,33;-15,28;-36,33;1,46;1,77;1,46;1,77;0;0;
8354;-16,6;-35,24;-16,6;-35,24;1,8;1,71;1,8;1,71;0;0;
8371;-15,87;-32,2;-15,87;-32,2;1,87;1,48;1,87;1,48;0;0;
8389;-14,44;-35,06;-14,44;-35,06;1,98;1,39;1,98;1,39;0;0;
8408;-10,01;-35,13;-10,01;-35,13;1,97;1,51;1,97;1,51;0;0;
8426;-12,85;-34,99;-12,85;-34,99;2,03;1,46;2,03;1,46;0;0;
8443;-16,15;0;-16,15;0;2,11;6,87;2,11;6,87;0;0;
8466;-15,31;-33,94;-15,31;-33,94;2,02;7,56;2,02;7,56;0;0;
8483;-14,59;-31,8;-14,59;-31,8;1,96;7,68;1,96;7,68;0;0;
8502;-14,08;-34,01;-14,08;-34,01;2,12;7,68;2,12;7,68;1;0;
8517;-14,08;-34,01;-14,08;-34,01;2,06;7,55;2,06;7,55;1;0;
8542;-15,25;-32,42;-15,25;-32,42;2;5,38;2;5,38;1;0;
8561;-16,11;-38,42;-16,11;-38,42;2,02;1,48;2,02;1,48;1;0;
8576;-16,11;-38,42;-16,11;-38,42;2,09;1,3;2,09;1,3;1;0;
8593;-14,84;-33,35;-14,84;-33,35;1,91;1,38;1,91;1,38;1;0;
8615;-13;-33,99;-13;-33,99;2,55;1,71;2,55;1,71;1;0;
8634;-21,14;-35,29;-21,14;-35,29;2,5;1,86;2,5;1,86;1;0;
8651;-55,3;-59,39;-55,3;-59,39;3,78;2,78;3,78;2,78;1;0;
8669;-1,53;-22,54;-1,53;-22,54;6,19;3,95;6,19;3,95;1;0;
8687;-13,47;-27,37;-13,47;-27,37;9,07;5,36;9,07;5,36;1;0;
8703;-17,92;-35,61;-17,92;-35,61;11,11;7,26;11,11;7,26;1;0;
8721;-12,32;-37,36;-12,32;-37,36;13,31;9,11;13,31;9,11;1;0;
8739;-12,32;-37,36;-12,32;-37,36;15,6;10,92;15,6;10,92;1;0;
8757;62,66;13,17;62,66;13,17;15,07;12,24;15,07;12,24;1;0;
8779;-13,82;-34,71;-13,82;-34,71;16,36;13,28;16,36;13,28;1;0;
8797;-22,5;-24,61;-22,5;-24,61;19,67;13,92;19,67;13,92;1;0;
8817;15,61;-4,46;15,61;-4,46;17,82;13,18;17,82;13,18;1;0;
8835;-114,47;-92,45;-114,47;-92,45;18,55;13,58;18,55;13,58;1;0;
8853;-23,64;-30,95;-23,64;-30,95;18,99;13,44;18,99;13,44;0;0;
8871;-42,6;-43,79;-42,6;-43,79;19,05;11,53;19,05;11,53;0;0;
8888;-10,62;-106,21;-10,62;-106,21;17,42;12,14;17,42;12,14;0;0;
8906;0,27;-25,54;0,27;-25,54;15,53;13,01;15,53;13,01;0;0;
8926;-15,76;-33,1;-15,76;-33,1;16,31;13,19;16,31;13,19;0;0;
8949;-9,5;-37,51;-9,5;-37,51;14,08;11,76;14,08;11,76;0;0;
8968;-17,94;-39,22;-17,94;-39,22;12,7;11,31;12,7;11,31;0;0;
8985;-4,02;-24,11;-4,02;-24,11;9,93;8,16;9,93;8,16;0;0;
9004;-17,35;-33,28;-17,35;-33,28;9,02;7,74;9,02;7,74;0;0;
9021;-18,75;-30,08;-18,75;-30,08;7,75;6,5;7,75;6,5;0;0;
9039;-18,75;-30,08;-18,75;-30,08;5,47;5,37;5,47;5,37;0;0;
9057;-21,06;-31,82;-21,06;-31,82;5,69;5,73;5,69;5,73;0;0;
9075;-15,83;-28,44;-15,83;-28,44;3,76;5;3,76;5;0;0;
9096;-21,07;-33,91;-21,07;-33,91;2,74;3,93;2,74;3,93;0;0;
9113;-15,66;-37,56;-15,66;-37,56;2,5;3,53;2,5;3,53;0;0;
9131;-12,67;-31,65;-12,67;-31,65;3;4,61;3;4,61;0;0;
9148;-20,81;-29,88;-20,81;-29,88;2,87;4,64;2,87;4,64;0;0;
9167;-13,04;-36,06;-13,04;-36,06;3,01;4,39;3,01;4,39;0;0;
9185;-30,55;-54,67;-30,55;-54,67;3,16;4,44;3,16;4,44;0;0;
9204;-16,45;-36,59;-16,45;-36,59;3,08;4,4;3,08;4,4;0;0;
9223;-27,19;-35,71;-27,19;-35,71;3,16;4,01;3,16;4,01;0;0;
9241;-14,5;-32,2;-14,5;-32,2;2,81;2,72;2,81;2,72;0;0;
9262;-17,91;-33,38;-17,91;-33,38;2,37;2,07;2,37;2,07;0;0;
9277;-17,91;-33,38;-17,91;-33,38;2,09;2,02;2,09;2,02;0;0;
9292;-23,01;-35,6;-23,01;-35,6;1,83;1,14;1,83;1,14;0;0;
9310;-12,76;-33,53;-12,76;-33,53;2,16;1,21;2,16;1,21;0;0;
9330;-15,95;-33;-15,95;-33;2,07;1,27;2,07;1,27;0;0;
9346;-20,46;-34,63;-20,46;-34,63;1,94;1,29;1,94;1,29;0;0;
9364;-15,54;-33,64;-15,54;-33,64;2,03;1,29;2,03;1,29;0;0;
9385;-16,34;-33,29;-16,34;-33,29;1,97;1,34;1,97;1,34;0;0;
9402;-17,32;-36,28;-17,32;-36,28;1,72;1,46;1,72;1,46;0;0;
9425;-18,68;-33,64;-18,68;-33,64;1,53;1,33;1,53;1,33;0;0;
9444;-15,36;-31,77;-15,36;-31,77;1,59;1,31;1,59;1,31;0;0;
9463;-19,09;-35,25;-19,09;-35,25;1,63;1,39;1,63;1,39;0;0;
9481;-17,37;-31,94;-17,37;-31,94;1,51;1,4;1,51;1,4;0;0;
9498;-17,37;-31,94;-17,37;-31,94;1,4;1,42;1,4;1,42;0;0;
9516;-14,74;-34,1;-14,74;-34,1;1,42;1,37;1,42;1,37;0;0;
9535;-17,67;-38,85;-17,67;-38,85;1,47;1,56;1,47;1,56;0;0;
9554;-13,85;-33,02;-13,85;-33,02;1,33;1,51;1,33;1,51;0;0;
9575;-16,2;-34,46;-16,2;-34,46;1,28;1,54;1,28;1,54;0;0;
9593;-18,29;-34,55;-18,29;-34,55;1,4;1,63;1,4;1,63;0;0;
9610;-19,63;-33,77;-19,63;-33,77;1,56;1,5;1,56;1,5;0;0;
9629;-17,23;-34,63;-17,23;-34,63;1,59;1,62;1,59;1,62;0;0;
9646;-15,74;-32,56;-15,74;-32,56;1,52;1,58;1,52;1,58;0;0;
9666;-16,75;-34,39;-16,75;-34,39;1,53;1,61;1,53;1,61;0;0;
9684;-17,77;-34,01;-17,77;-34,01;1,48;1,6;1,48;1,6;0;0;
9701;-13,82;-38,64;-13,82;-38,64;1,55;1,58;1,55;1,58;0;0;
9719;-13,82;-38,64;-13,82;-38,64;1,53;1,51;1,53;1,51;0;0;
9742;-17,79;-32,27;-17,79;-32,27;1,72;1,41;1,72;1,41;0;0;
9759;-17,79;-32,27;-17,79;-32,27;1,99;1,51;1,99;1,51;0;0;
9776;-17,74;-34,25;-17,74;-34,25;1,94;1,54;1,94;1,54;0;0;
9793;-15,29;-33,73;-15,29;-33,73;1,97;1,58;1,97;1,58;0;0;
9812;-15,73;-41,48;-15,73;-41,48;1,77;1,87;1,77;1,87;0;0;
9829;-12,54;-37,24;-12,54;-37,24;1,73;2,07;1,73;2,07;0;0;
9847;-14,13;-34,71;-14,13;-34,71;1,61;1,98;1,61;1,98;0;0;
9866;-15,74;-31,87;-15,74;-31,87;1,49;2,05;1,49;2,05;0;0;
9884;-17,25;-27,28;-17,25;-27,28;1,53;2,16;1,53;2,16;0;0;
9906;-17,22;-34,51;-17,22;-34,51;1,5;2,28;1,5;2,28;0;0;
9924;-16,46;-30,41;-16,46;-30,41;1,51;2,14;1,51;2,14;0;0;
9943;-13,8;-32,72;-13,8;-32,72;1,45;2,01;1,45;2,01;0;0;
9959;-13,8;-32,72;-13,8;-32,72;1,68;1,89;1,68;1,89;0;0;
9978;-16,36;-34,28;-16,36;-34,28;1,87;1,79;1,87;1,79;0;0;
9996;-11,72;-35,58;-11,72;-35,58;1,88;1,49;1,88;1,49;0;0;
10012;-15,65;-33,36;-15,65;-33,36;1,96;1,49;1,96;1,49;0;0;
10029;-13,76;-33,92;-13,76;-33,92;1,94;1,51;1,94;1,51;0;0;
10048;-17,49;-36,63;-17,49;-36,63;1,76;1,55;1,76;1,55;0;0;
10071;-15,16;-34,63;-15,16;-34,63;1,59;1,68;1,59;1,68;0;0;
10092;-14,58;-36,47;-14,58;-36,47;1,57;1,66;1,57;1,66;0;0;
10109;-19,44;-35,95;-19,44;-35,95;1,43;1,68;1,43;1,68;0;0;
10126;-16,46;-33,78;-16,46;-33,78;1,42;1,68;1,42;1,68;0;0;
10145;-14,98;-34,89;-14,98;-34,89;1,52;1,63;1,52;1,63;0;0;
10163;-16,43;-30,39;-16,43;-30,39;1,58;1,57;1,58;1,57;0;0;
10180;-16,46;-34,44;-16,46;-34,44;1,73;1,78;1,73;1,78;0;0;
10198;-16,46;-34,44;-16,46;-34,44;1,85;1,95;1,85;1,95;0;0;
10219;-15,75;-36,6;-15,75;-36,6;1,82;1,88;1,82;1,88;0;0;
10238;-16,79;-32,69;-16,79;-32,69;1,66;1,86;1,66;1,86;0;0;
10256;-16,85;-32,45;-16,85;-32,45;1,7;1,97;1,7;1,97;0;0;
10275;-14,13;-33,48;-14,13;-33,48;1,46;1,84;1,46;1,84;0;0;
10292;-21,97;-34,27;-21,97;-34,27;1,42;1,58;1,42;1,58;0;0;
10309;-16,32;-33,99;-16,32;-33,99;1,48;1,58;1,48;1,58;0;0;
10327;-16,99;-35,12;-16,99;-35,12;1,57;1,45;1,57;1,45;0;0;
10345;-11,7;-35,6;-11,7;-35,6;1,55;1,39;1,55;1,39;0;0;
10362;-16,28;-32,74;-16,28;-32,74;1,66;1,57;1,66;1,57;0;0;
10382;-16,04;-33,43;-16,04;-33,43;1,75;1,62;1,75;1,62;0;0;
10398;-16,04;-33,43;-16,04;-33,43;1,81;1,7;1,81;1,7;0;0;
10417;-19,45;-36,06;-19,45;-36,06;2,01;1,72;2,01;1,72;0;0;
10435;-16,59;-32,57;-16,59;-32,57;1,93;1,79;1,93;1,79;0;0;
10452;-19,4;-37,19;-19,4;-37,19;1,97;1,67;1,97;1,67;0;0;
10469;-15,35;-36,69;-15,35;-36,69;1,89;1,57;1,89;1,57;0;0;
10486;-16,65;-34,43;-16,65;-34,43;1,71;1,42;1,71;1,42;0;0;
10504;-17,43;-31,93;-17,43;-31,93;1,51;1,33;1,51;1,33;0;0;
10520;-12,72;-34,53;-12,72;-34,53;1,37;1,22;1,37;1,22;0;0;
10543;-19,38;-34,16;-19,38;-34,16;1,5;1,16;1,5;1,16;0;0;
10559;-19,38;-34,16;-19,38;-34,16;1,55;1,15;1,55;1,15;0;0;
10576;-15,45;-36,45;-15,45;-36,45;1,55;1,41;1,55;1,41;0;0;
10595;-13,86;-31,27;-13,86;-31,27;1,7;1,6;1,7;1,6;0;0;
10613;-18,59;-30,06;-18,59;-30,06;1,8;1,57;1,8;1,57;0;0;
10629;-16,91;-33,3;-16,91;-33,3;1,5;1,77;1,5;1,77;0;0;
10647;-15,72;-35,61;-15,72;-35,61;1,51;1,82;1,51;1,82;0;0;
10665;-15,42;-31,33;-15,42;-31,33;1,63;1,67;1,63;1,67;0;0;
10682;-14,94;-33,06;-14,94;-33,06;1,73;1,57;1,73;1,57;0;0;
10702;-17,44;-34,13;-17,44;-34,13;1,55;1,62;1,55;1,62;0;0;
10720;-14,17;-34,26;-14,17;-34,26;1,65;1,81;1,65;1,81;0;0;
10738;-14,17;-34,26;-14,17;-34,26;1,72;1,85;1,72;1,85;0;0;
10756;-16,7;-36,31;-16,7;-36,31;1,56;1,84;1,56;1,84;0;0;
10772;-17,9;-35,22;-17,9;-35,22;1,43;1,77;1,43;1,77;0;0;
10790;-13,01;-33,49;-13,01;-33,49;1,53;1,64;1,53;1,64;0;0;
10807;-16,3;-35,79;-16,3;-35,79;1,46;1,46;1,46;1,46;0;0;
10823;-13,94;-34,97;-13,94;-34,97;1,49;1,19;1,49;1,19;0;0;
10841;-17,81;-33,28;-17,81;-33,28;1,34;1,35;1,34;1,35;0;0;
10862;-15,11;-33,28;-15,11;-33,28;1,62;1,38;1,62;1,38;0;0;
10879;-15,11;-33,28;-15,11;-33,28;1,81;1,48;1,81;1,48;0;0;
10895;-13,67;-36,97;-13,67;-36,97;1,68;1,45;1,68;1,45;0;0;
10912;-16,06;-32,97;-16,06;-32,97;1,69;1,47;1,69;1,47;0;0;
10931;-18,09;-34,4;-18,09;-34,4;1,8;1,4;1,8;1,4;0;0;
10951;-17,47;-31,19;-17,47;-31,19;1,71;1,35;1,71;1,35;0;0;
10967;-17,37;-31,13;-17,37;-31,13;1,55;1,27;1,55;1,27;0;0;
10986;-17,34;-35,07;-17,34;-35,07;1,54;1,27;1,54;1,27;0;0;
11005;-16,88;-31,41;-16,88;-31,41;1,68;1,41;1,68;1,41;0;0;
11026;-14,95;-31,41;-14,95;-31,41;1,6;1,68;1,6;1,68;0;0;
11046;-13,94;-34,61;-13,94;-34,61;1,71;1,88;1,71;1,88;0;0;
11065;-16,98;-30,71;-16,98;-30,71;1,75;1,79;1,75;1,79;0;0;
11082;-15,26;-32,21;-15,26;-32,21;1,78;1,91;1,78;1,91;0;0;
11098;-15,26;-32,21;-15,26;-32,21;1,65;2,19;1,65;2,19;0;0;
11116;-15,91;-36,24;-15,91;-36,24;1,59;2,09;1,59;2,09;0;0;
11135;-14,19;-34,25;-14,19;-34,25;1,6;2,45;1,6;2,45;0;0;
11152;-18,13;-34,44;-18,13;-34,44;1,6;2,27;1,6;2,27;0;0;
11170;-16,57;-31,06;-16,57;-31,06;1,59;2,28;1,59;2,28;0;0;
11191;-22,46;-38,06;-22,46;-38,06;1,83;2,25;1,83;2,25;0;0;
11208;-19,22;-35,59;-19,22;-35,59;2,07;2,2;2,07;2,2;0;0;
11226;-15;-35,92;-15;-35,92;2,28;1,66;2,28;1,66;0;0;
11243;-19,43;-31,79;-19,43;-31,79;2,29;1,74;2,29;1,74;0;0;
11261;-15,23;-32,32;-15,23;-32,32;2,15;1,76;2,15;1,76;0;0;
11278;-15,23;-32,32;-15,23;-32,32;2,24;1,58;2,24;1,58;0;0;
11294;-19,29;-34,33;-19,29;-34,33;1,98;1,61;1,98;1,61;0;0;
11311;-16,01;-32,67;-16,01;-32,67;1,79;1,82;1,79;1,82;0;0;
11330;-15,56;-34,91;-15,56;-34,91;1,55;1,92;1,55;1,92;0;0;
11350;-16,69;-35,87;-16,69;-35,87;1,54;1,78;1,54;1,78;0;0;
11367;-15,95;-35,74;-15,95;-35,74;1,41;1,76;1,41;1,76;0;0;
11384;-16,65;-32,02;-16,65;-32,02;1,32;1,87;1,32;1,87;0;0;
11402;-15,41;-34,48;-15,41;-34,48;1,28;1,73;1,28;1,73;0;0;
11419;-15,41;-34,48;-15,41;-34,48;1,33;1,51;1,33;1,51;0;0;
11435;-16,26;-35,24;-16,26;-35,24;1,25;1,54;1,25;1,54;0;0;
11451;-12,41;-32,41;-12,41;-32,41;1,41;1,45;1,41;1,45;0;0;
11469;-16,83;-35,26;-16,83;-35,26;1,52;1,37;1,52;1,37;0;0;
11486;-16,88;-35,91;-16,88;-35,91;1,73;1,41;1,73;1,41;0;0;
11506;-14,27;-32,74;-14,27;-32,74;1,9;1,44;1,9;1,44;0;0;
11526;-17,91;-31,73;-17,91;-31,73;1,96;1,46;1,96;1,46;0;0;
11548;-13,08;-32,61;-13,08;-32,61;2,08;1,47;2,08;1,47;0;0;
11567;-11,98;-34,34;-11,98;-34,34;2,01;1,47;2,01;1,47;0;0;
11587;-17,64;-29,06;-17,64;-29,06;2,14;1,6;2,14;1,6;0;0;
11606;-17,47;-35,26;-17,47;-35,26;1,96;1,69;1,96;1,69;0;0;
11623;-20,86;-31,19;-20,86;-31,19;2,06;1,87;2,06;1,87;0;0;
11640;-15,3;-36,18;-15,3;-36,18;2,07;2,03;2,07;2,03;0;0;
11668;-12,36;-32,21;-12,36;-32,21;2,13;2,21;2,13;2,21;0;0;
11685;-14,92;-35,73;-14,92;-35,73;2,15;2,28;2,15;2,28;0;0;
11702;-17,99;-32,8;-17,99;-32,8;2,16;2,16;2,16;2,16;0;0;
11719;-17,99;-32,8;-17,99;-32,8;2,02;2,13;2,02;2,13;0;0;
11737;-20,11;-33,71;-20,11;-33,71;1,83;1,91;1,83;1,91;0;0;
11755;-14,9;-32,06;-14,9;-32,06;1,69;1,87;1,69;1,87;0;0;
11771;-15,6;-33,53;-15,6;-33,53;1,49;1,62;1,49;1,62;0;0;
11788;-16,08;-32,73;-16,08;-32,73;1,47;1,63;1,47;1,63;0;0;
11806;-20,04;-35,07;-20,04;-35,07;1,44;1,43;1,44;1,43;0;0;
11825;-17,95;-30,72;-17,95;-30,72;1,47;1,36;1,47;1,36;0;0;
11842;-12,39;-36,23;-12,39;-36,23;1,49;1,54;1,49;1,54;0;0;
11860;-13,32;-34,29;-13,32;-34,29;1,6;1,75;1,6;1,75;0;0;
11880;-16,95;-31,6;-16,95;-31,6;1,65;1,9;1,65;1,9;0;0;
11896;-16,95;-31,6;-16,95;-31,6;1,7;1,96;1,7;1,96;0;0;
11914;-13,2;-33,78;-13,2;-33,78;1,87;2,02;1,87;2,02;0;0;
11933;-15,25;-33,62;-15,25;-33,62;1,8;1,96;1,8;1,96;0;0;
11951;-16,27;-34,22;-16,27;-34,22;1,68;1,98;1,68;1,98;0;0;
11970;-16,45;-33,54;-16,45;-33,54;1,71;1,93;1,71;1,93;0;0;
11992;-17,79;-33,59;-17,79;-33,59;1,64;1,81;1,64;1,81;0;0;
12010;-17,24;-35,92;-17,24;-35,92;1,56;1,72;1,56;1,72;0;0;
12027;-18,28;-31,03;-18,28;-31,03;1,44;1,9;1,44;1,9;0;0;
12046;-16,77;-30,69;-16,77;-30,69;1,6;2,02;1,6;2,02;0;0;
12065;-13,89;-33,67;-13,89;-33,67;1,52;1,98;1,52;1,98;0;0;
12084;-19,1;-34,5;-19,1;-34,5;1,34;1,85;1,34;1,85;0;0;
12102;-16,39;-32,55;-16,39;-32,55;1,39;1,94;1,39;1,94;0;0;
12118;-16,39;-32,55;-16,39;-32,55;1,5;1,85;1,5;1,85;0;0;
12136;-15,75;-36,6;-15,75;-36,6;1,29;1,75;1,29;1,75;0;0;
12157;-16,62;-35,74;-16,62;-35,74;1,49;1,83;1,49;1,83;0;0;
12174;-17,44;-31,75;-17,44;-31,75;1,59;1,86;1,59;1,86;0;0;
12192;-14,73;-33,74;-14,73;-33,74;1,79;1,88;1,79;1,88;0;0;
12209;-17,3;-34,11;-17,3;-34,11;1,89;1,92;1,89;1,92;0;0;
12228;-17,13;-35,16;-17,13;-35,16;1,85;1,88;1,85;1,88;0;0;
12245;-18,65;-33,27;-18,65;-33,27;1,96;1,86;1,96;1,86;0;0;
12263;-14,01;-33,9;-14,01;-33,9;2,02;1,63;2,02;1,63;0;0;
12282;-14,13;-32,8;-14,13;-32,8;1,98;1,76;1,98;1,76;0;0;
12303;-19,99;-35,62;-19,99;-35,62;2,13;1,91;2,13;1,91;0;0;
12325;-17,65;-30,84;-17,65;-30,84;2,21;1,95;2,21;1,95;0;0;
12344;-13,22;-35,4;-13,22;-35,4;2,14;1,85;2,14;1,85;0;0;
12363;-15,98;-34,99;-15,98;-34,99;2;1,79;2;1,79;0;0;
12381;-17,85;-34,77;-17,85;-34,77;1,9;1,68;1,9;1,68;0;0;
12398;-17,85;-34,77;-17,85;-34,77;1,67;1,54;1,67;1,54;0;0;
12417;-17,78;-35,58;-17,78;-35,58;1,49;1,48;1,49;1,48;0;0;
12438;-15,49;-36,32;-15,49;-36,32;1,36;1,37;1,36;1,37;0;0;
12462;-18,58;-34,98;-18,58;-34,98;1,32;1,33;1,32;1,33;0;0;
12483;-16,6;-33,64;-16,6;-33,64;1,53;1,75;1,53;1,75;0;0;
12499;-16,6;-33,64;-16,6;-33,64;1,74;2,13;1,74;2,13;0;0;
12517;-17,52;-31,92;-17,52;-31,92;1,8;2,23;1,8;2,23;0;0;
12535;-20,11;-31,53;-20,11;-31,53;1,81;2,1;1,81;2,1;1;0;
12551;-16,54;-33,41;-16,54;-33,41;1,83;2,25;1,83;2,25;1;0;
12570;-19,7;-32,04;-19,7;-32,04;1,79;2,14;1,79;2,14;1;0;
12586;-16,93;-37,69;-16,93;-37,69;1,72;1,85;1,72;1,85;1;0;
12605;-15,47;-35,56;-15,47;-35,56;1,76;1,74;1,76;1,74;1;0;
12622;-18,35;-32,16;-18,35;-32,16;1,69;1,8;1,69;1,8;1;0;
12644;-19,05;-37,21;-19,05;-37,21;1,83;1,76;1,83;1,76;1;0;
12662;-6,38;-33,84;-6,38;-33,84;2,38;1,96;2,38;1,96;1;0;
12678;-6,38;-33,84;-6,38;-33,84;2,89;2,2;2,89;2,2;1;0;
12695;-49,31;-51,13;-49,31;-51,13;5,12;3,36;5,12;3,36;1;0;
12712;10,27;-43,01;10,27;-43,01;10,78;5,35;10,78;5,35;1;0;
12730;-16,25;-42,44;-16,25;-42,44;14,15;7,51;14,15;7,51;1;0;
12748;-43,46;-63,95;-43,46;-63,95;18,34;10,42;18,34;10,42;1;0;
12765;33,97;3,09;33,97;3,09;21,38;11,89;21,38;11,89;1;0;
12784;-17,98;-28,1;-17,98;-28,1;23,54;13,19;23,54;13,19;1;0;
12808;29,81;-10,03;29,81;-10,03;23,35;13,74;23,35;13,74;0;0;
12827;-22,45;-20,52;-22,45;-20,52;22,37;16,17;22,37;16,17;0;0;
12848;11,33;-60,99;11,33;-60,99;21,11;17,62;21,11;17,62;0;0;
12867;16,34;-0,44;16,34;-0,44;18,49;19,64;18,49;19,64;0;0;
12884;-37,69;-16,21;-37,69;-16,21;17,11;20,05;17,11;20,05;0;0;
12901;-37,69;-16,21;-37,69;-16,21;16,34;20,57;16,34;20,57;0;0;
12918;-37,69;-16,21;-37,69;-16,21;14,12;19,61;14,12;19,61;0;0;
12937;-29,59;-33,95;-29,59;-33,95;15,33;18,67;15,33;18,67;0;0;
12958;-1,89;-29,26;-1,89;-29,26;14,79;15,98;14,79;15,98;0;0;
12979;-20,93;-10,02;-20,93;-10,02;14,49;17,31;14,49;17,31;0;0;
12997;-5,29;-29,99;-5,29;-29,99;13,01;16,72;13,01;16,72;0;0;
13016;-15,83;-43,79;-15,83;-43,79;11,63;15,8;11,63;15,8;0;0;
13033;-16,98;-33,46;-16,98;-33,46;8,85;11;8,85;11;0;0;
13052;-14,64;-29,43;-14,64;-29,43;7,64;10,4;7,64;10,4;0;0;
13072;-19,08;-31,04;-19,08;-31,04;4,92;8,08;4,92;8,08;0;0;
13090;-19,32;-30,84;-19,32;-30,84;3,78;4,29;3,78;4,29;0;0;
13110;-23,38;-26,44;-23,38;-26,44;3,05;3,53;3,05;3,53;0;0;
13128;-16,68;-39,99;-16,68;-39,99;4,09;3,9;4,09;3,9;0;0;
13144;-18,79;-31,81;-18,79;-31,81;4,16;3,68;4,16;3,68;0;0;
13162;-14,48;-34,23;-14,48;-34,23;4,46;3,86;4,46;3,86;0;0;
13182;-15,88;-28,28;-15,88;-28,28;4,58;4,04;4,58;4,04;0;0;
13201;-19,82;-36,42;-19,82;-36,42;3,95;3,84;3,95;3,84;0;0;
13217;-19,82;-36,42;-19,82;-36,42;2,77;2,95;2,77;2,95;0;0;
13239;-16,68;-29,32;-16,68;-29,32;2,01;2,37;2,01;2,37;0;0;
13270;-13,42;-32,54;-13,42;-32,54;2,06;2,41;2,06;2,41;0;0;
13289;-15,19;-33,64;-15,19;-33,64;1,5;2,24;1,5;2,24;1;0;
13312;-18;-32,93;-18;-32,93;1,56;2,12;1,56;2,12;1;0;
13335;-14,42;-30,22;-14,42;-30,22;1,63;2,21;1,63;2,21;1;0;
13357;-12,7;-30,36;-12,7;-30,36;2,85;2,5;2,85;2,5;1;0;
13379;-17,83;-35,23;-17,83;-35,23;3,23;2,59;3,23;2,59;1;0;
13401;-39,35;-51,45;-39,35;-51,45;5,68;3,93;5,68;3,93;1;0;
13425;-56,84;-61,22;-56,84;-61,22;9,13;5,61;9,13;5,61;1;0;
13445;-37,94;-45,17;-37,94;-45,17;12,74;7,27;12,74;7,27;1;0;
13466;-18,48;-33,24;-18,48;-33,24;14,43;8,54;14,43;8,54;1;0;
13486;-18,15;-8,47;-18,15;-8,47;15,69;10;15,69;10;1;0;
13504;-17,92;-46,13;-17,92;-46,13;19,36;13,5;19,36;13,5;1;0;
13523;4,75;-17,07;4,75;-17,07;16,79;15,65;16,79;15,65;1;0;
13539;4,75;-17,07;4,75;-17,07;14,65;18,54;14,65;18,54;1;0;
13555;-3,87;-31,02;-3,87;-31,02;15,64;19,99;15,64;19,99;1;0;
13576;-23,65;-46,11;-23,65;-46,11;13,9;20,46;13,9;20,46;1;0;
13597;-34,81;-24,86;-34,81;-24,86;17,08;21,43;17,08;21,43;1;0;
13618;-108,21;-61,62;-108,21;-61,62;20,37;23,01;20,37;23,01;1;0;
13639;-10,59;-22,43;-10,59;-22,43;21,12;23,9;21,12;23,9;0;0;
13657;21,6;-3,59;21,6;-3,59;21,45;26,11;21,45;26,11;0;0;
13674;-6,77;-14,13;-6,77;-14,13;20,55;24,68;20,55;24,68;0;0;
13692;-31,12;-43,81;-31,12;-43,81;23;26,41;23;26,41;0;0;
13711;-17,83;-39,25;-17,83;-39,25;18,91;23,24;18,91;23,24;0;0;
13734;-14,41;-43,61;-14,41;-43,61;15,51;22,73;15,51;22,73;0;0;
13754;-16,77;-41,09;-16,77;-41,09;13,85;17,74;13,85;17,74;0;0;
13775;-14,54;-36,5;-14,54;-36,5;12,3;12,96;12,3;12,96;0;0;
13793;-17,35;-38,16;-17,35;-38,16;10,28;10,06;10,28;10,06;0;0;
13809;-11,05;-25,73;-11,05;-25,73;6,59;7,23;6,59;7,23;0;0;
13825;-19,22;-37,94;-19,22;-37,94;5,48;6,35;5,48;6,35;0;0;
13841;-11,25;-34,63;-11,25;-34,63;4,23;4,92;4,23;4,92;0;0;
13858;-11,25;-34,63;-11,25;-34,63;4,11;3,83;4,11;3,83;0;0;
13875;-16,91;-33,09;-16,91;-33,09;2,97;2,88;2,97;2,88;0;0;
13899;-15,29;-27,44;-15,29;-27,44;2,6;3,09;2,6;3,09;0;0;
13918;-17,41;-36,64;-17,41;-36,64;2,16;2,55;2,16;2,55;0;0;
13936;-18,79;-34,35;-18,79;-34,35;2;2,59;2;2,59;0;0;
13954;-16,99;-35,54;-16,99;-35,54;1,73;2,74;1,73;2,74;0;0;
13971;-14,03;-31,25;-14,03;-31,25;1,48;2,59;1,48;2,59;0;0;
13988;-16,48;-35,46;-16,48;-35,46;1,58;2,42;1,58;2,42;0;0;
14007;-16,89;-32,74;-16,89;-32,74;1,64;1,96;1,64;1,96;0;0;
14023;-19,23;-27,9;-19,23;-27,9;1,78;2,16;1,78;2,16;0;0;
14042;-14,61;-31,56;-14,61;-31,56;1,72;2,17;1,72;2,17;0;0;
14062;-16,71;-35,56;-16,71;-35,56;1,67;2,04;1,67;2,04;0;0;
14078;-16,71;-35,56;-16,71;-35,56;1,69;1,97;1,69;1,97;0;0;
14095;-15,73;-35,04;-15,73;-35,04;1,35;2,01;1,35;2,01;0;0;
14111;-15,28;-35,25;-15,28;-35,25;1,53;1,83;1,53;1,83;0;0;
14129;-9,65;-30,58;-9,65;-30,58;1,77;1,78;1,77;1,78;0;0;
14146;-16,77;-34;-16,77;-34;1,89;1,79;1,89;1,79;0;0;
14164;-15,23;-34,2;-15,23;-34,2;1,9;1,71;1,9;1,71;0;0;
14183;-18,6;-31,97;-18,6;-31,97;1,93;1,83;1,93;1,83;0;0;
14202;-15,62;-34,65;-15,62;-34,65;1,88;2,01;1,88;2,01;0;0;
14225;-11,68;-33,16;-11,68;-33,16;1,62;1,96;1,62;1,96;0;0;
14243;-13,58;-32,77;-13,58;-32,77;1,47;1,71;1,47;1,71;0;0;
14261;-17,48;-33,41;-17,48;-33,41;1,68;1,79;1,68;1,79;0;0;
14280;-17,48;-33,41;-17,48;-33,41;1,88;1,78;1,88;1,78;0;0;
14297;-15,06;-31,45;-15,06;-31,45;1,87;1,83;1,87;1,83;0;0;
14315;-17,52;-36,08;-17,52;-36,08;1,96;1,87;1,96;1,87;0;0;
14334;-14,08;-33,17;-14,08;-33,17;1,72;1,88;1,72;1,88;0;0;
14353;-13,81;-35,87;-13,81;-35,87;1,79;1,9;1,79;1,9;0;0;
14373;-16,82;-35,26;-16,82;-35,26;1,68;1,94;1,68;1,94;0;0;
14391;-14,77;-35,73;-14,77;-35,73;1,61;2,13;1,61;2,13;0;0;
14409;-15,06;-36,16;-15,06;-36,16;1,56;1,73;1,56;1,73;0;0;
14426;-15,06;-36,16;-15,06;-36,16;1,65;1,71;1,65;1,71;0;0;
14442;-14,58;-32,92;-14,58;-32,92;1,65;1,53;1,65;1,53;0;0;
14460;-14,69;-32,57;-14,69;-32,57;1,72;1,56;1,72;1,56;0;0;
14476;-14,69;-32,57;-14,69;-32,57;1,92;1,63;1,92;1,63;0;0;
14492;-16,78;-36,22;-16,78;-36,22;2,03;1,49;2,03;1,49;0;0;
14509;-15,8;-35,74;-15,8;-35,74;2,03;1,63;2,03;1,63;0;0;
14531;-19,42;-37,09;-19,42;-37,09;2,06;1,77;2,06;1,77;0;0;
14549;-16,35;-32,38;-16,35;-32,38;2,11;1,9;2,11;1,9;0;0;
14567;-14,55;-36,58;-14,55;-36,58;1,88;1,96;1,88;1,96;0;0;
14585;-17,4;-33,39;-17,4;-33,39;1,68;1,81;1,68;1,81;0;0;
14603;-16,56;-30,94;-16,56;-30,94;1,57;1,81;1,57;1,81;0;0;
14619;-16,56;-30,94;-16,56;-30,94;1,47;1,85;1,47;1,85;0;0;
14638;-14,52;-35,63;-14,52;-35,63;1,53;1,9;1,53;1,9;0;0;
14654;-17,81;-32,78;-17,81;-32,78;1,36;1,84;1,36;1,84;0;0;
14673;-17,79;-35,44;-17,79;-35,44;1,39;1,68;1,39;1,68;0;0;
14695;-15,98;-35,97;-15,98;-35,97;1,31;1,65;1,31;1,65;0;0;
14711;-14,74;-36,2;-14,74;-36,2;1,34;1,62;1,34;1,62;0;0;
14729;-20,55;-30,12;-20,55;-30,12;1,29;1,76;1,29;1,76;0;0;
14746;-16,34;-35,76;-16,34;-35,76;1,38;1,74;1,38;1,74;0;0;
14763;-16,06;-35,26;-16,06;-35,26;1,33;1,69;1,33;1,69;0;0;
14780;-16,16;-32,89;-16,16;-32,89;1,36;1,79;1,36;1,79;0;0;
14798;-16,16;-32,89;-16,16;-32,89;1,41;1,77;1,41;1,77;0;0;
14817;-20,11;-30,21;-20,11;-30,21;1,6;1,77;1,6;1,77;0;0;
14839;-15,85;-32,7;-15,85;-32,7;1,53;1,75;1,53;1,75;0;0;
14861;-20,39;-34,12;-20,39;-34,12;1,87;1,71;1,87;1,71;0;0;
14878;-20,39;-34,12;-20,39;-34,12;2,18;1,52;2,18;1,52;0;0;
14895;-17,76;-36,59;-17,76;-36,59;2,22;1,55;2,22;1,55;0;0;
14914;-16,5;-33,71;-16,5;-33,71;2,1;1,57;2,1;1,57;0;0;
14932;-14,14;-32,15;-14,14;-32,15;1,92;1,43;1,92;1,43;0;0;
14949;-18,06;-33,11;-18,06;-33,11;1,93;1,43;1,93;1,43;0;0;
14966;-18,65;-32,81;-18,65;-32,81;1,94;1,76;1,94;1,76;0;0;
14985;-18,65;-32,81;-18,65;-32,81;1,96;1,9;1,96;1,9;0;0;
15006;-13,09;-36,34;-13,09;-36,34;1,94;1,88;1,94;1,88;0;0;
15026;-17,98;-35,26;-17,98;-35,26;1,95;1,98;1,95;1,98;0;0;
15043;-18,37;-32,8;-18,37;-32,8;1,98;2,06;1,98;2,06;0;0;
15060;-18,79;-32,7;-18,79;-32,7;1,95;1,93;1,95;1,93;0;0;
15079;-18,79;-32,7;-18,79;-32,7;1,71;1,71;1,71;1,71;0;0;
15097;-18,54;-29,87;-18,54;-29,87;1,47;1,62;1,47;1,62;0;0;
15115;-17,44;-33,14;-17,44;-33,14;1,31;1,6;1,31;1,6;0;0;
15132;-16,21;-30,23;-16,21;-30,23;1,28;1,78;1,28;1,78;0;0;
15150;-16,74;-35,86;-16,74;-35,86;1,2;1,73;1,2;1,73;0;0;
15168;-15,08;-33,29;-15,08;-33,29;1,26;1,72;1,26;1,72;0;0;
15188;-18,47;-31,28;-18,47;-31,28;1,3;1,86;1,3;1,86;0;0;
15207;-17,31;-34,43;-17,31;-34,43;1,26;1,7;1,26;1,7;0;0;
15224;-20,01;-33,25;-20,01;-33,25;1,42;1,61;1,42;1,61;0;0;
15241;-17,62;-33,09;-17,62;-33,09;1,57;1,63;1,57;1,63;0;0;
15258;-17,62;-33,09;-17,62;-33,09;1,66;1,76;1,66;1,76;0;0;
15276;-14,66;-34,75;-14,66;-34,75;1,7;1,72;1,7;1,72;0;0;
15293;-14,82;-32,41;-14,82;-32,41;1,78;1,87;1,78;1,87;0;0;
15310;-14,75;-34,52;-14,75;-34,52;1,84;2,03;1,84;2,03;0;0;
15328;-18,08;-32,56;-18,08;-32,56;1,82;2,02;1,82;2,02;0;0;
15349;-19,31;-37,96;-19,31;-37,96;1,81;1,87;1,81;1,87;0;0;
15368;-18,6;-34,8;-18,6;-34,8;1,68;1,81;1,68;1,81;0;0;
15387;-13,5;-31,19;-13,5;-31,19;1,58;1,89;1,58;1,89;0;0;
15406;-16,9;-34,54;-16,9;-34,54;1,57;1,54;1,57;1,54;0;0;
15424;-14,68;-36,09;-14,68;-36,09;1,52;1,41;1,52;1,41;0;0;
15442;-17,93;-33,55;-17,93;-33,55;1,44;1,41;1,44;1,41;0;0;
15460;-17,63;-34,5;-17,63;-34,5;1,48;1,55;1,48;1,55;0;0;
15476;-17,63;-34,5;-17,63;-34,5;1,5;1,63;1,5;1,63;0;0;
15495;-15,56;-38,99;-15,56;-38,99;1,45;1,58;1,45;1,58;0;0;
15516;-16,98;-34,69;-16,98;-34,69;1,77;1,76;1,77;1,76;0;0;
15534;-16,68;-31,36;-16,68;-31,36;1,8;1,79;1,8;1,79;0;0;
15550;-15,68;-35,27;-15,68;-35,27;1,76;1,85;1,76;1,85;0;0;
15568;-18,98;-31,42;-18,98;-31,42;1,76;1,78;1,76;1,78;0;0;
15586;-13,1;-34,26;-13,1;-34,26;1,81;1,81;1,81;1,81;0;0;
15604;-15,62;-34,87;-15,62;-34,87;1,73;1,61;1,73;1,61;1;0;
15622;-20,65;-34,33;-20,65;-34,33;1,65;1,65;1,65;1,65;1;0;
15637;-20,65;-34,33;-20,65;-34,33;1,8;1,48;1,8;1,48;1;0;
15654;-16,51;-34;-16,51;-34;1,93;1,36;1,93;1,36;1;0;
15674;-18,21;-33,02;-18,21;-33,02;1,95;1,4;1,95;1,4;1;0;
15691;-17,52;-32,57;-17,52;-32,57;1,87;1,64;1,87;1,64;1;0;
15710;-16,9;-31,12;-16,9;-31,12;2,06;1,98;2,06;1,98;1;0;
15728;-18,6;-31,74;-18,6;-31,74;2,03;2,05;2,03;2,05;1;0;
15747;-16,1;-32,28;-16,1;-32,28;1,97;2,3;1,97;2,3;1;0;
15764;-12,87;-34,28;-12,87;-34,28;2,28;2,26;2,28;2,26;1;0;
15782;-17,48;-35,56;-17,48;-35,56;4,22;3,15;4,22;3,15;1;0;
15800;1,39;-34,3;1,39;-34,3;7,68;5,16;7,68;5,16;1;0;
15818;1,39;-34,3;1,39;-34,3;11,19;7,35;11,19;7,35;1;0;
15838;21,67;11,77;21,67;11,77;18,15;11,47;18,15;11,47;1;0;
15855;-16,41;-70,64;-16,41;-70,64;23,95;16,16;23,95;16,16;1;0;
15873;-7,52;-25,79;-7,52;-25,79;24,65;19,7;24,65;19,7;0;0;
15894;-29,62;-36,34;-29,62;-36,34;22,71;19,7;22,71;19,7;0;0;
15914;-14,35;-27,03;-14,35;-27,03;20,53;21,39;20,53;21,39;0;0;
15932;-10,21;-56,38;-10,21;-56,38;16,75;20,79;16,75;20,79;0;0;
15948;-19,64;-21,33;-19,64;-21,33;13,39;18,92;13,39;18,92;0;0;
15965;0,9;-34,97;0,9;-34,97;10,11;16,39;10,11;16,39;0;0;
15983;-39,52;-49,22;-39,52;-49,22;10;13,87;10;13,87;0;0;
16008;-11,44;-40,68;-11,44;-40,68;8,48;11,68;8,48;11,68;0;0;
16027;-20,89;-42,88;-20,89;-42,88;7,54;9,76;7,54;9,76;0;0;
16045;-19,3;-34,4;-19,3;-34,4;5,8;7,25;5,8;7,25;0;0;
16064;-15,18;-23,79;-15,18;-23,79;5,24;5,37;5,24;5,37;0;0;
16081;-13,8;-27,29;-13,8;-27,29;5,06;4,86;5,06;4,86;0;0;
16099;-13,8;-27,29;-13,8;-27,29;4,94;4,5;4,94;4,5;0;0;
16115;-28,02;-36,15;-28,02;-36,15;4,61;4,23;4,61;4,23;0;0;
16133;-14,41;-35,62;-14,41;-35,62;4,66;3,81;4,66;3,81;0;0;
16151;-16,73;-29,69;-16,73;-29,69;3,92;3,95;3,92;3,95;0;0;
16171;-22,1;-37,93;-22,1;-37,93;3,52;3,3;3,52;3,3;0;0;
16188;-12,35;-34,2;-12,35;-34,2;3,38;2,9;3,38;2,9;0;0;
16204;-25,61;-45,11;-25,61;-45,11;3,46;3,01;3,46;3,01;0;0;
16222;-17,52;-45,44;-17,52;-45,44;3,67;3,69;3,67;3,69;0;0;
16237;-17,52;-45,44;-17,52;-45,44;4,12;4,19;4,12;4,19;0;0;
16256;-14,3;-31,29;-14,3;-31,29;4,05;4,47;4,05;4,47;0;0;
16272;-15,52;-32,97;-15,52;-32,97;4,02;4,21;4,02;4,21;0;0;
16290;-16,19;-33,26;-16,19;-33,26;3,78;4,19;3,78;4,19;0;0;
16309;-17,41;-34,98;-17,41;-34,98;2,64;2,88;2,64;2,88;0;0;
16332;-16,68;-35,31;-16,68;-35,31;2,08;2,12;2,08;2,12;0;0;
16347;-18,85;-36,24;-18,85;-36,24;2,11;2,22;2,11;2,22;0;0;
16365;-12,15;-37,3;-12,15;-37,3;2,08;2,07;2,08;2,07;0;0;
16388;-16,57;-36,78;-16,57;-36,78;2,06;2,24;2,06;2,24;0;0;
16406;-14,27;-35,23;-14,27;-35,23;1,87;2,11;1,87;2,11;0;0;
16422;-16,38;-34,73;-16,38;-34,73;2,06;2,01;2,06;2,01;0;0;
16438;-16,38;-34,73;-16,38;-34,73;2,23;2,03;2,23;2,03;0;0;
16455;-16,94;-35,32;-16,94;-35,32;2,13;1,87;2,13;1,87;0;0;
16473;-15,75;-35,98;-15,75;-35,98;1,85;1,74;1,85;1,74;0;0;
16493;-17,86;-31,45;-17,86;-31,45;1,92;1,82;1,92;1,82;0;0;
16511;-15,65;-33,78;-15,65;-33,78;1,88;1,87;1,88;1,87;0;0;
16531;-15,34;-35,02;-15,34;-35,02;1,71;1,78;1,71;1,78;0;0;
16549;-14,02;-34,51;-14,02;-34,51;1,78;2,11;1,78;2,11;0;0;
16565;-17,54;-35,94;-17,54;-35,94;1,83;2,12;1,83;2,12;0;0;
16581;-16,21;-33,79;-16,21;-33,79;1,97;2,59;1,97;2,59;0;0;
16600;-16,21;-33,79;-16,21;-33,79;2,25;3,12;2,25;3,12;0;0;
16616;-14,76;-35,96;-14,76;-35,96;2,35;3,08;2,35;3,08;0;0;
16632;-22,31;-31,76;-22,31;-31,76;2,25;2,91;2,25;2,91;0;0;
16653;-14,96;-37,48;-14,96;-37,48;2,14;2,85;2,14;2,85;0;0;
16671;-14,23;-38,56;-14,23;-38,56;2,34;2,48;2,34;2,48;0;0;
16688;-17,76;-35,75;-17,76;-35,75;2,02;1,88;2,02;1,88;0;0;
16707;-13,33;-34,26;-13,33;-34,26;2,07;1,69;2,07;1,69;0;0;
16725;-16,03;-35,23;-16,03;-35,23;2,09;1,76;2,09;1,76;0;0;
16742;-16,9;-33,88;-16,9;-33,88;1,85;1,62;1,85;1,62;0;0;
16759;-16,9;-33,88;-16,9;-33,88;1,44;1,43;1,44;1,43;0;0;
16775;-17,06;-28,38;-17,06;-28,38;1,43;1,57;1,43;1,57;0;0;
16792;-16,74;-34,87;-16,74;-34,87;1,46;1,65;1,46;1,65;0;0;
16813;-19,45;-28,85;-19,45;-28,85;1,16;1,83;1,16;1,83;0;0;
16830;-17,39;-34,86;-17,39;-34,86;1,47;1,82;1,47;1,82;0;0;
16847;-17,68;-32,82;-17,68;-32,82;1,61;1,97;1,61;1,97;0;0;
16866;-13,96;-32,73;-13,96;-32,73;1,82;2,05;1,82;2,05;0;0;
16882;-18,81;-32,8;-18,81;-32,8;1,72;1,82;1,72;1,82;0;0;
16898;-18,81;-32,8;-18,81;-32,8;1,83;1,93;1,83;1,93;0;0;
16914;-17,22;-36,57;-17,22;-36,57;1,65;1,83;1,65;1,83;0;0;
16933;-18,26;-29,86;-18,26;-29,86;1,61;2,03;1,61;2,03;0;0;
16950;-16,29;-37,58;-16,29;-37,58;1,57;1,93;1,57;1,93;0;0;
16972;-14,7;-33,43;-14,7;-33,43;1,53;1,79;1,53;1,79;0;0;
16990;-19,03;-31,92;-19,03;-31,92;1,73;1,83;1,73;1,83;0;0;
17008;-16,52;-34,11;-16,52;-34,11;1,71;1,89;1,71;1,89;0;0;
17025;-17,57;-33,05;-17,57;-33,05;1,85;1,91;1,85;1,91;0;0;
17042;-19,55;-35,99;-19,55;-35,99;2;1,64;2;1,64;0;0;
17059;-19,55;-35,99;-19,55;-35,99;1,94;1,76;1,94;1,76;0;0;
17075;-14,96;-32,37;-14,96;-32,37;1,83;1,67;1,83;1,67;0;0;
17093;-14,4;-36,58;-14,4;-36,58;1,9;1,56;1,9;1,56;0;0;
17111;-14,26;-30,34;-14,26;-30,34;1,88;1,71;1,88;1,71;0;0;
17133;-18,4;-31,73;-18,4;-31,73;1,86;1,73;1,86;1,73;0;0;
17151;-14,58;-36,59;-14,58;-36,59;1,81;1,89;1,81;1,89;0;0;
17168;-14,58;-36,59;-14,58;-36,59;1,78;2,07;1,78;2,07;0;0;
17188;-14,04;-32,55;-14,04;-32,55;1,86;2,11;1,86;2,11;0;0;
17206;-16,36;-36,73;-16,36;-36,73;1,74;2,13;1,74;2,13;0;0;
17224;-19,19;-36,15;-19,19;-36,15;1,69;1,95;1,69;1,95;0;0;
17242;-17,99;-31,66;-17,99;-31,66;1,73;2,04;1,73;2,04;0;0;
17259;-17,99;-31,66;-17,99;-31,66;1,77;2,04;1,77;2,04;0;0;
17276;-18,55;-34,97;-18,55;-34,97;1,6;1,88;1,6;1,88;0;0;
17295;-12,96;-34,87;-12,96;-34,87;1,51;1,84;1,51;1,84;0;0;
17312;-16,25;-35,58;-16,25;-35,58;1,51;2,04;1,51;2,04;0;0;
17330;-17,13;-34,52;-17,13;-34,52;1,35;1,78;1,35;1,78;0;0;
17349;-19,02;-36,23;-19,02;-36,23;1,46;1,75;1,46;1,75;0;0;
17366;-15,92;-32,57;-15,92;-32,57;1,44;1,64;1,44;1,64;0;0;
17383;-19,07;-32,55;-19,07;-32,55;1,4;1,82;1,4;1,82;0;0;
17401;-15,64;-33,81;-15,64;-33,81;1,41;1,89;1,41;1,89;0;0;
17418;-15,64;-33,81;-15,64;-33,81;1,35;1,98;1,35;1,98;0;0;
17435;-17,13;-33,71;-17,13;-33,71;1,31;1,96;1,31;1,96;0;0;
17455;-17,03;-33,14;-17,03;-33,14;1,17;1,96;1,17;1,96;0;0;
17475;-18,24;-34,75;-18,24;-34,75;1,22;1,89;1,22;1,89;0;0;
17492;-19,89;-34,75;-19,89;-34,75;1,24;1,65;1,24;1,65;0;0;
17508;-15,15;-35,26;-15,15;-35,26;1,24;1,57;1,24;1,57;0;0;
17526;-17,09;-39,06;-17,09;-39,06;1,3;1,41;1,3;1,41;0;0;
17544;-16,35;-31,21;-16,35;-31,21;1,25;1,44;1,25;1,44;1;0;
17581;-14,01;-32,02;-14,01;-32,02;1,36;1,69;1,36;1,69;1;0;
17600;-14,05;-32,37;-14,05;-32,37;1,4;1,92;1,4;1,92;1;0;
17621;-16,33;-27,35;-16,33;-27,35;1,35;2,16;1,35;2,16;1;0;
17637;-16,33;-27,35;-16,33;-27,35;1,41;2,3;1,41;2,3;1;0;
17657;-15,89;-34,27;-15,89;-34,27;1,48;2,23;1,48;2,23;1;0;
17674;-18,67;-37,21;-18,67;-37,21;1,42;1,94;1,42;1,94;1;0;
17690;20,67;-2,16;20,67;-2,16;2,4;2,36;2,4;2,36;1;0;
17706;20,67;-2,16;20,67;-2,16;3,47;2,88;3,47;2,88;1;0;
17724;-23,11;-42,39;-23,11;-42,39;8,48;5,62;8,48;5,62;1;0;
17742;-39,66;-53,11;-39,66;-53,11;14,12;8;14,12;8;1;0;
17760;3,45;-45,44;3,45;-45,44;16,89;10,94;16,89;10,94;1;0;
17781;-58,66;-27,67;-58,66;-27,67;22,47;14,03;22,47;14,03;1;0;
17802;-58,06;-48,08;-58,06;-48,08;24,98;14,82;24,98;14,82;0;0;
17823;-5,11;-21,82;-5,11;-21,82;23,84;16,35;23,84;16,35;0;0;
17844;-34,66;-54,47;-34,66;-54,47;23,7;18,34;23,7;18,34;0;0;
17861;-28,81;-32,38;-28,81;-32,38;20,47;20,79;20,47;20,79;0;0;
17878;-28,81;-32,38;-28,81;-32,38;16,06;20,58;16,06;20,58;0;0;
17897;-4,33;-5,86;-4,33;-5,86;14,07;21,74;14,07;21,74;0;0;
17918;-45,65;-59,99;-45,65;-59,99;15,84;21,68;15,84;21,68;0;0;
17948;-20,21;-56,82;-20,21;-56,82;13,96;20,62;13,96;20,62;0;0;
17964;-22,48;-40,34;-22,48;-40,34;11,23;17,65;11,23;17,65;0;0;
17981;-2,59;-45,02;-2,59;-45,02;11,69;15,26;11,69;15,26;0;0;
18000;-2,75;-7,45;-2,75;-7,45;12,4;14,23;12,4;14,23;0;0;
18022;-13,27;-24,7;-13,27;-24,7;9,86;11,5;9,86;11,5;0;0;
18038;-13,27;-24,7;-13,27;-24,7;6,45;9,64;6,45;9,64;0;0;
18055;-15,69;-34,26;-15,69;-34,26;5,34;8,34;5,34;8,34;0;0;
18072;-15,16;-35,28;-15,16;-35,28;4,07;7,49;4,07;7,49;0;0;
18094;-14,57;-34,44;-14,57;-34,44;2,75;5,36;2,75;5,36;0;0;
18112;-16,61;-33,96;-16,61;-33,96;1,71;3,14;1,71;3,14;0;0;
18130;-17,72;-38,24;-17,72;-38,24;1,69;2,4;1,69;2,4;0;0;
18148;-16,37;-35,25;-16,37;-35,25;1,64;1,75;1,64;1,75;0;0;
18164;-14,24;-35,67;-14,24;-35,67;1,56;1,71;1,56;1,71;0;0;
18181;-18,27;-35,59;-18,27;-35,59;1,55;1,61;1,55;1,61;0;0;
18198;-18,27;-35,59;-18,27;-35,59;1,62;1,64;1,62;1,64;0;0;
18214;-16,73;-36,21;-16,73;-36,21;1,46;1,34;1,46;1,34;0;0;
18230;-19,59;-37,57;-19,59;-37,57;1,62;1,29;1,62;1,29;0;0;
18252;-15,06;-32,73;-15,06;-32,73;1,68;1,23;1,68;1,23;0;0;
18269;-15,71;-35,78;-15,71;-35,78;1,73;1,47;1,73;1,47;0;0;
18288;-16,27;-31,82;-16,27;-31,82;1,64;1,49;1,64;1,49;0;0;
18305;-15,5;-35,26;-15,5;-35,26;1,75;1,46;1,75;1,46;0;0;
18322;-14,3;-30,57;-14,3;-30,57;1,88;1,56;1,88;1,56;0;0;
18339;-14,3;-30,57;-14,3;-30,57;2,02;1,65;2,02;1,65;0;0;
18362;-16,7;-32,19;-16,7;-32,19;1,96;1,7;1,96;1,7;0;0;
18379;-16,7;-32,19;-16,7;-32,19;1,87;1,64;1,87;1,64;0;0;
18397;-14,08;-34,38;-14,08;-34,38;1,93;1,77;1,93;1,77;0;0;
18417;-14,83;-35,51;-14,83;-35,51;1,76;1,87;1,76;1,87;0;0;
18434;-14,83;-35,51;-14,83;-35,51;1,56;1,86;1,56;1,86;0;0;
18452;-16,78;-34,7;-16,78;-34,7;1,55;1,64;1,55;1,64;0;0;
18469;-18,27;-34,52;-18,27;-34,52;1,75;1,5;1,75;1,5;0;0;
18487;-14,89;-34,49;-14,89;-34,49;1,83;1,39;1,83;1,39;0;0;
18505;-17,09;-35,5;-17,09;-35,5;1,96;1,37;1,96;1,37;0;0;
18523;-15,99;-33,27;-15,99;-33,27;1,98;1,66;1,98;1,66;0;0;
18541;-17,78;-34;-17,78;-34;1,84;1,83;1,84;1,83;0;0;
18558;-17,78;-34;-17,78;-34;1,73;1,92;1,73;1,92;0;0;
18577;-17,07;-38,18;-17,07;-38,18;1,48;2,01;1,48;2,01;0;0;
18594;-16,69;-31,93;-16,69;-31,93;1,33;1,97;1,33;1,97;0;0;
18611;-17,28;-33,27;-17,28;-33,27;1,12;1,66;1,12;1,66;0;0;
18626;-18,36;-34,86;-18,36;-34,86;1,15;1,63;1,15;1,63;0;0;
18643;-15,62;-34,38;-15,62;-34,38;1,18;1,48;1,18;1,48;0;0;
18660;-14,85;-32,93;-14,85;-32,93;1,27;1,32;1,27;1,32;0;0;
18677;-14,85;-32,93;-14,85;-32,93;1,41;1,36;1,41;1,36;0;0;
18694;-14,42;-31,2;-14,42;-31,2;1,47;1,59;1,47;1,59;0;0;
18711;-11,7;-34,7;-11,7;-34,7;1,61;1,67;1,61;1,67;0;0;
18734;-15,51;-32,57;-15,51;-32,57;1,66;1,88;1,66;1,88;0;0;
18751;-18,45;-36,58;-18,45;-36,58;1,75;1,87;1,75;1,87;0;0;
18768;-15,63;-33,89;-15,63;-33,89;1,68;2,13;1,68;2,13;0;0;
18785;-16,73;-35,59;-16,73;-35,59;1,47;1,98;1,47;1,98;0;0;
18804;-17,36;-32,72;-17,36;-32,72;1,6;1,87;1,6;1,87;0;0;
18822;-18,34;-35,64;-18,34;-35,64;1,46;1,91;1,46;1,91;0;0;
18838;-18,34;-35,64;-18,34;-35,64;1,49;1,84;1,49;1,84;0;0;
18861;-17,02;-35,37;-17,02;-35,37;1,43;1,62;1,43;1,62;0;0;
18881;-16,7;-33,66;-16,7;-33,66;1,55;1,48;1,55;1,48;0;0;
18900;-16,06;-33,49;-16,06;-33,49;1,41;1,49;1,41;1,49;0;0;
18917;-16,06;-33,49;-16,06;-33,49;1,29;1,44;1,29;1,44;0;0;
18934;-19,24;-34,76;-19,24;-34,76;1,29;1,43;1,29;1,43;0;0;
18951;-13,27;-36,22;-13,27;-36,22;1,24;1,55;1,24;1,55;0;0;
18968;-17,76;-31,54;-17,76;-31,54;1,18;1,56;1,18;1,56;0;0;
18987;-18,48;-34,19;-18,48;-34,19;1,32;1,65;1,32;1,65;0;0;
19005;-14,79;-34,16;-14,79;-34,16;1,43;1,83;1,43;1,83;0;0;
19022;-18,5;-32,14;-18,5;-32,14;1,42;2,13;1,42;2,13;0;0;
19038;-18,5;-32,14;-18,5;-32,14;1,45;2,3;1,45;2,3;0;0;
19059;-20,48;-34,14;-20,48;-34,14;1,55;2,32;1,55;2,32;0;0;
19078;-18,71;-32,98;-18,71;-32,98;1,48;2,2;1,48;2,2;0;0;
19095;-16,15;-35,72;-16,15;-35,72;1,5;1,9;1,5;1,9;0;0;
19112;-15,74;-35,63;-15,74;-35,63;1,48;1,59;1,48;1,59;0;0;
19131;-16,4;-34,38;-16,4;-34,38;1,55;1,36;1,55;1,36;0;0;
19147;-14,79;-30,66;-14,79;-30,66;1,51;1,4;1,51;1,4;0;0;
19168;-17,24;-34,53;-17,24;-34,53;1,46;1,47;1,46;1,47;0;0;
19185;-18,68;-31,75;-18,68;-31,75;1,4;1,53;1,4;1,53;0;0;
19202;-17,92;-32,49;-17,92;-32,49;1,58;1,44;1,58;1,44;0;0;
19223;-19,56;-33,28;-19,56;-33,28;1,66;1,49;1,66;1,49;0;0;
19240;-11,57;-33,17;-11,57;-33,17;2,06;1,56;2,06;1,56;0;0;
19257;-11,57;-33,17;-11,57;-33,17;2,59;1,45;2,59;1,45;0;0;
19275;-13,95;-33,45;-13,95;-33,45;2,59;1,38;2,59;1,38;0;0;
19293;-14,34;-27,85;-14,34;-27,85;2,33;1,44;2,33;1,44;0;0;
19311;-14,31;-32,25;-14,31;-32,25;2,73;2,19;2,73;2,19;1;0;
19328;-11,69;-33,29;-11,69;-33,29;2,78;2,41;2,78;2,41;1;0;
19346;-19,23;-34,68;-19,23;-34,68;2,42;2,42;2,42;2,42;1;0;
19362;-17,31;-35,52;-17,31;-35,52;2,49;2,47;2,49;2,47;1;0;
19383;-16,1;-33,2;-16,1;-33,2;2,41;2,58;2,41;2,58;1;0;
19400;-18,37;-40,29;-18,37;-40,29;2,29;2,1;2,29;2,1;1;0;
19418;-18,37;-40,29;-18,37;-40,29;1,98;1,79;1,98;1,79;1;0;
19435;-14,06;-36,68;-14,06;-36,68;2,9;2,19;2,9;2,19;1;0;
19452;-6,06;-30,61;-6,06;-30,61;3,48;2,5;3,48;2,5;1;0;
19469;-40,23;-49,5;-40,23;-49,5;6,6;3,82;6,6;3,82;1;0;
19492;-37,41;-55,19;-37,41;-55,19;11,05;7,46;11,05;7,46;1;0;
19510;-9,97;-28,99;-9,97;-28,99;13,71;9,42;13,71;9,42;1;0;
19528;-1,97;-19,6;-1,97;-19,6;14,3;10,39;14,3;10,39;1;0;
19549;-7,66;-7,57;-7,66;-7,57;18,38;13,6;18,38;13,6;1;0;
19566;-41,6;-52,43;-41,6;-52,43;23;16,78;23;16,78;1;0;
19586;-10,83;-45,75;-10,83;-45,75;23,09;18,52;23,09;18,52;0;0;
19607;-7,67;-18,49;-7,67;-18,49;20,02;16,97;20,02;16,97;0;0;
19627;-35,6;-67,41;-35,6;-67,41;19,78;20,02;19,78;20,02;0;0;
19644;-20,06;-51,25;-20,06;-51,25;18,65;19,2;18,65;19,2;0;0;
19663;-12,93;-18,38;-12,93;-18,38;17,06;18,36;17,06;18,36;0;0;
19683;-10,59;-39,35;-10,59;-39,35;9,15;12,81;9,15;12,81;0;0;
19704;-28,27;-40,35;-28,27;-40,35;7,99;12,43;7,99;12,43;0;0;
19722;-26,71;-45,33;-26,71;-45,33;7,28;8,54;7,28;8,54;0;0;
19738;-26,71;-45,33;-26,71;-45,33;6,07;7,14;6,07;7,14;0;0;
19754;-25,08;-46,2;-25,08;-46,2;5,25;6,4;5,25;6,4;0;0;
19772;-16,27;-36,92;-16,27;-36,92;4,78;5,46;4,78;5,46;0;0;
19789;-21,63;-34,59;-21,63;-34,59;4,31;4,8;4,31;4,8;0;0;
19806;-14,22;-24,96;-14,22;-24,96;3,42;4,49;3,42;4,49;0;0;
19823;-12,86;-33,02;-12,86;-33,02;2,87;3,64;2,87;3,64;0;0;
19841;-13,51;-35,88;-13,51;-35,88;2,32;2,98;2,32;2,98;0;0;
19862;-18,25;-31,92;-18,25;-31,92;2,08;2,95;2,08;2,95;0;0;
19879;-18,25;-31,92;-18,25;-31,92;1,93;3,27;1,93;3,27;0;0;
19897;-13,21;-33,72;-13,21;-33,72;2,01;2,95;2,01;2,95;0;0;
19916;-16,11;-32,75;-16,11;-32,75;1,93;2,71;1,93;2,71;0;0;
19933;-15,82;-32,74;-15,82;-32,74;2,08;2,64;2,08;2,64;0;0;
19949;-15,82;-32,74;-15,82;-32,74;2,18;2,21;2,18;2,21;0;0;
19967;-14,69;-34,81;-14,69;-34,81;2,04;1,81;2,04;1,81;0;0;
19984;-20,04;-35,75;-20,04;-35,75;1,93;1,62;1,93;1,62;0;0;
20005;-14,1;-33,83;-14,1;-33,83;1,65;1,33;1,65;1,33;0;0;
20027;-18,31;-31,83;-18,31;-31,83;1,44;1,33;1,44;1,33;0;0;
20044;-21,12;-32,07;-21,12;-32,07;1,35;1,33;1,35;1,33;0;0;
20061;-17,11;-33,3;-17,11;-33,3;1,35;1,37;1,35;1,37;0;0;
20079;-17,11;-33,3;-17,11;-33,3;1,3;1,47;1,3;1,47;0;0;
20096;-17,23;-33,87;-17,23;-33,87;1,29;1,55;1,29;1,55;0;0;
20114;-17,11;-34,51;-17,11;-34,51;1,51;1,5;1,51;1,5;0;0;
20132;-16,54;-33,27;-16,54;-33,27;1,73;1,54;1,73;1,54;0;0;
20149;-17,36;-31,45;-17,36;-31,45;1,65;1,66;1,65;1,66;0;0;
20166;-15,96;-33,35;-15,96;-33,35;1,64;1,65;1,64;1,65;0;0;
20189;-18,66;-32,08;-18,66;-32,08;1,82;1,5;1,82;1,5;0;0;
20208;-17,56;-36,21;-17,56;-36,21;1,75;1,62;1,75;1,62;0;0;
20225;-16;-31,4;-16;-31,4;1,46;1,75;1,46;1,75;0;0;
20244;-18,04;-32,95;-18,04;-32,95;1,3;1,76;1,3;1,76;0;0;
20262;-13,55;-32,25;-13,55;-32,25;1,42;1,52;1,42;1,52;0;0;
20278;-13,55;-32,25;-13,55;-32,25;1,53;1,49;1,53;1,49;0;0;
20294;-16,95;-34,99;-16,95;-34,99;1,47;1,41;1,47;1,41;0;0;
20310;-16,49;-33,4;-16,49;-33,4;1,54;1,45;1,54;1,45;0;0;
20328;-16,4;-32,9;-16,4;-32,9;1,53;1,42;1,53;1,42;0;0;
20351;-16,32;-36,06;-16,32;-36,06;1,39;1,29;1,39;1,29;0;0;
20368;-15,6;-31,57;-15,6;-31,57;1,31;1,38;1,31;1,38;0;0;
20387;-21,65;-33,54;-21,65;-33,54;1,37;1,32;1,37;1,32;0;0;
20406;-14,52;-34,58;-14,52;-34,58;1,59;1,25;1,59;1,25;0;0;
20422;-16,91;-33,29;-16,91;-33,29;1,68;1,46;1,68;1,46;0;0;
20440;-16,96;-35,6;-16,96;-35,6;1,88;1,43;1,88;1,43;0;0;
20456;-16,96;-35,6;-16,96;-35,6;2,14;1,5;2,14;1,5;0;0;
20474;-17,81;-31,54;-17,81;-31,54;2,19;1,56;2,19;1,56;0;0;
20491;-17,36;-33,66;-17,36;-33,66;1,92;1,76;1,92;1,76;0;0;
20514;-15,32;-35,5;-15,32;-35,5;1,83;1,74;1,83;1,74;0;0;
20532;-16,27;-34,27;-16,27;-34,27;1,8;1,56;1,8;1,56;0;0;
20549;-15,39;-33,91;-15,39;-33,91;1,73;1,6;1,73;1,6;0;0;
20565;-18,76;-31,06;-18,76;-31,06;1,65;1,58;1,65;1,58;0;0;
20583;-17,26;-34,62;-17,26;-34,62;1,47;1,4;1,47;1,4;0;0;
20601;-15,33;-34,83;-15,33;-34,83;1,46;1,28;1,46;1,28;0;0;
20619;-15,33;-34,83;-15,33;-34,83;1,31;1,23;1,31;1,23;0;0;
20636;-16,74;-35,28;-16,74;-35,28;1,37;1,36;1,37;1,36;0;0;
20654;-17,7;-35,79;-17,7;-35,79;1,6;1,28;1,6;1,28;0;0;
20675;-17,19;-34,63;-17,19;-34,63;1,74;1,51;1,74;1,51;0;0;
20691;-15,02;-33,72;-15,02;-33,72;1,83;1,77;1,83;1,77;0;0;
20709;-15,97;-37,57;-15,97;-37,57;1,95;1,99;1,95;1,99;0;0;
20726;-17,33;-32,56;-17,33;-32,56;1,94;2,1;1,94;2,1;0;0;
20743;-16,83;-34,47;-16,83;-34,47;1,77;2,05;1,77;2,05;0;0;
20760;-15,83;-32,91;-15,83;-32,91;1,82;1,95;1,82;1,95;0;0;
20779;-15,83;-32,91;-15,83;-32,91;1,89;1,78;1,89;1,78;0;0;
20798;-21,6;-33,17;-21,6;-33,17;1,99;1,52;1,99;1,52;0;0;
20816;-16,95;-35,21;-16,95;-35,21;1,93;1,2;1,93;1,2;0;0;
20835;-20,11;-36,77;-20,11;-36,77;2,08;1,08;2,08;1,08;0;0;
20852;-15,95;-33;-15,95;-33;2,06;1,11;2,06;1,11;0;0;
20870;-15,38;-33,43;-15,38;-33,43;1,89;1,29;1,89;1,29;0;0;
20888;-16,65;-32,43;-16,65;-32,43;1,91;1,36;1,91;1,36;0;0;
20904;-16,65;-32,43;-16,65;-32,43;1,97;1,53;1,97;1,53;0;0;
20923;-18,74;-33,56;-18,74;-33,56;1,96;1,61;1,96;1,61;0;0;
20942;-16,49;-31,68;-16,49;-31,68;1,69;1,88;1,69;1,88;0;0;
20959;-16,49;-31,68;-16,49;-31,68;1,65;1,98;1,65;1,98;0;0;
20975;-20,86;-33,97;-20,86;-33,97;1,67;1,93;1,67;1,93;0;0;
20997;-18,12;-32,75;-18,12;-32,75;1,61;2,05;1,61;2,05;0;0;
21014;-15,59;-35,34;-15,59;-35,34;1,52;1,97;1,52;1,97;0;0;
21036;-21,7;-35,84;-21,7;-35,84;1,49;1,85;1,49;1,85;0;0;
21053;-13,44;-33,37;-13,44;-33,37;1,61;1,69;1,61;1,69;0;0;
21071;-14,9;-31,24;-14,9;-31,24;1,61;1,42;1,61;1,42;0;0;
21089;-18,35;-35,83;-18,35;-35,83;1,61;1,53;1,61;1,53;0;0;
21106;-14,78;-34,26;-14,78;-34,26;1,68;1,37;1,68;1,37;0;0;
21123;-14,73;-29,97;-14,73;-29,97;1,85;1,59;1,85;1,59;0;0;
21141;-15,28;-32,54;-15,28;-32,54;1,74;1,68;1,74;1,68;0;0;
21162;-17,22;-35,42;-17,22;-35,42;1,83;1,73;1,83;1,73;1;0;
21178;-17,22;-35,42;-17,22;-35,42;1,88;1,7;1,88;1,7;1;0;
21197;-16,63;-38,91;-16,63;-38,91;1,76;1,76;1,76;1,76;1;0;
21214;-35,27;-42,27;-35,27;-42,27;2,16;2,19;2,16;2,19;1;0;
21231;-31,9;-41,61;-31,9;-41,61;6,4;3,1;6,4;3,1;1;0;
21248;-75,75;-62,5;-75,75;-62,5;11,99;5,67;11,99;5,67;1;0;
21266;-78,21;-48,93;-78,21;-48,93;18,32;8,61;18,32;8,61;1;0;
21284;-20,41;-38,63;-20,41;-38,63;20,19;10,75;20,19;10,75;1;0;
21301;-47,51;-34,96;-47,51;-34,96;23,58;12,6;23,58;12,6;1;0;
21325;34,16;-12,93;34,16;-12,93;27,65;15,17;27,65;15,17;0;0;
21345;-19,9;-32,08;-19,9;-32,08;26,74;15,01;26,74;15,01;0;0;
21366;-2,5;-17,18;-2,5;-17,18;23,08;13,44;23,08;13,44;0;0;
21383;-23,43;-60,5;-23,43;-60,5;23,86;14,48;23,86;14,48;0;0;
21400;-16,8;-37,86;-16,8;-37,86;23,47;13,57;23,47;13,57;0;0;
21416;-16,8;-37,86;-16,8;-37,86;21,32;12,75;21,32;12,75;0;0;
21432;-24,83;-30,52;-24,83;-30,52;20,49;12,15;20,49;12,15;0;0;
21450;-14,67;-15,59;-14,67;-15,59;19,56;13,78;19,56;13,78;0;0;
21470;-14,57;-23,71;-14,57;-23,71;18,02;13,24;18,02;13,24;0;0;
21493;-24,92;-40,99;-24,92;-40,99;16,21;14,05;16,21;14,05;0;0;
21510;-2,95;-23,34;-2,95;-23,34;15,6;15,64;15,6;15,64;0;0;
21529;-6,76;-39,37;-6,76;-39,37;17,01;19,34;17,01;19,34;0;0;
21546;-25,3;-44,68;-25,3;-44,68;13,56;17,72;13,56;17,72;0;0;
21564;-20,88;-50,79;-20,88;-50,79;13,26;18,85;13,26;18,85;0;0;
21580;-20,88;-50,79;-20,88;-50,79;12,67;19,27;12,67;19,27;0;0;
21598;-24,15;-39,23;-24,15;-39,23;11,9;17,49;11,9;17,49;0;0;
21615;-13,66;-40,62;-13,66;-40,62;9,92;15,03;9,92;15,03;0;0;
21632;-20,06;-35,94;-20,06;-35,94;7,25;11,18;7,25;11,18;0;0;
21654;-16,75;-34,7;-16,75;-34,7;7,56;11,11;7,56;11,11;0;0;
21672;-3,58;-27,64;-3,58;-27,64;7,25;9,35;7,25;9,35;0;0;
21690;-7,06;-45,06;-7,06;-45,06;6,83;7,64;6,83;7,64;0;0;
21707;-20,2;-34,47;-20,2;-34,47;5,8;6,81;5,8;6,81;0;0;
21725;-32,53;-51,53;-32,53;-51,53;5,59;6,42;5,59;6,42;0;0;
21741;-17,4;-34,62;-17,4;-34,62;4,8;6,1;4,8;6,1;0;0;
21757;-17,4;-34,62;-17,4;-34,62;4,25;5,71;4,25;5,71;0;0;
21773;-11,66;-32,26;-11,66;-32,26;4,54;4,88;4,54;4,88;0;0;
21793;-19,3;-37,21;-19,3;-37,21;3,83;3,3;3,83;3,3;0;0;
21812;-15,3;-32,2;-15,3;-32,2;3,55;3,14;3,55;3,14;0;0;
21833;-17,95;-31,01;-17,95;-31,01;3,14;2,73;3,14;2,73;0;0;
21851;-14,02;-34,27;-14,02;-34,27;3,29;2,72;3,29;2,72;0;0;
21869;-19,01;-33,05;-19,01;-33,05;2,4;2,04;2,4;2,04;0;0;
21890;-16,84;-35,86;-16,84;-35,86;1,92;1,68;1,92;1,68;0;0;
21906;-16,84;-35,86;-16,84;-35,86;1,54;1,58;1,54;1,58;0;0;
21923;-15,06;-32,52;-15,06;-32,52;1,54;1,48;1,54;1,48;0;0;
21939;-15,06;-32,52;-15,06;-32,52;1,52;1,2;1,52;1,2;0;0;
21955;-20,73;-35,65;-20,73;-35,65;1,37;1,28;1,37;1,28;0;0;
21975;-11,71;-34,27;-11,71;-34,27;1,47;1,31;1,47;1,31;0;0;
21993;-17,86;-33,43;-17,86;-33,43;1,65;1,59;1,65;1,59;0;0;
22011;-15,04;-34,5;-15,04;-34,5;1,6;1,6;1,6;1,6;0;0;
22028;-16,2;-34,82;-16,2;-34,82;1,74;1,62;1,74;1,62;0;0;
22045;-15,18;-33,29;-15,18;-33,29;1,88;1,51;1,88;1,51;0;0;
22063;-18,64;-36,7;-18,64;-36,7;1,8;1,52;1,8;1,52;0;0;
22079;-18,64;-36,7;-18,64;-36,7;1,59;1,62;1,59;1,62;0;0;
22097;-18,25;-34,37;-18,25;-34,37;1,61;1,3;1,61;1,3;0;0;
22114;-18,85;-35,59;-18,85;-35,59;1,66;1,42;1,66;1,42;0;0;
22137;-12,12;-34,64;-12,12;-34,64;1,77;1,3;1,77;1,3;0;0;
22153;-17,8;-36,6;-17,8;-36,6;1,87;1,39;1,87;1,39;0;0;
22172;-21,16;-29;-21,16;-29;2,13;1,44;2,13;1,44;0;0;
22189;-16,2;-33,79;-16,2;-33,79;2,1;1,45;2,1;1,45;0;0;
22205;-16,91;-30,85;-16,91;-30,85;1,97;1,52;1,97;1,52;0;0;
22223;-18,52;-35,13;-18,52;-35,13;1,81;1,68;1,81;1,68;0;0;
22242;-15,37;-32,53;-15,37;-32,53;1,6;1,78;1,6;1,78;0;0;
22259;-14,92;-35,66;-14,92;-35,66;1,57;1,77;1,57;1,77;0;0;
22276;-14,92;-35,66;-14,92;-35,66;1,49;1,75;1,49;1,75;0;0;
22298;-17,99;-34,24;-17,99;-34,24;1,49;1,72;1,49;1,72;0;0;
22314;-19,14;-32,56;-19,14;-32,56;1,53;1,52;1,53;1,52;0;0;
22332;-17,54;-36,01;-17,54;-36,01;1,55;1,72;1,55;1,72;0;0;
22349;-16,51;-33,03;-16,51;-33,03;1,52;1,72;1,52;1,72;0;0;
22368;-16,27;-37,06;-16,27;-37,06;1,42;1,73;1,42;1,73;0;0;
22384;-14,5;-33,4;-14,5;-33,4;1,43;1,97;1,43;1,97;0;0;
22400;-14,51;-34,21;-14,51;-34,21;1,31;2,16;1,31;2,16;0;0;
22417;-14,51;-34,21;-14,51;-34,21;1,3;2,25;1,3;2,25;0;0;
22434;-13,82;-37,29;-13,82;-37,29;1,68;2,46;1,68;2,46;0;0;
22457;-13,3;-34,63;-13,3;-34,63;1,64;2,33;1,64;2,33;0;0;
22474;-16,54;-31,23;-16,54;-31,23;1,79;2,3;1,79;2,3;0;0;
22491;-16,96;-34,65;-16,96;-34,65;1,74;2,16;1,74;2,16;0;0;
22508;-18,23;-35,42;-18,23;-35,42;1,69;2,07;1,69;2,07;0;0;
22526;-16,98;-35,24;-16,98;-35,24;1,68;1,94;1,68;1,94;0;0;
22542;-17,81;-34,97;-17,81;-34,97;1,73;1,96;1,73;1,96;0;0;
22558;-17,81;-34,97;-17,81;-34,97;1,96;2,28;1,96;2,28;0;0;
22579;-15,96;-33,28;-15,96;-33,28;2,03;2,23;2,03;2,23;0;0;
22597;-15,96;-33,28;-15,96;-33,28;2,14;2,25;2,14;2,25;0;0;
22617;-18,62;-38,54;-18,62;-38,54;2,16;2,33;2,16;2,33;0;0;
22636;-12,93;-30,57;-12,93;-30,57;2,26;2,31;2,26;2,31;0;0;
22652;-17,74;-35,69;-17,74;-35,69;2,02;1,97;2,02;1,97;0;0;
22672;-15,8;-35,79;-15,8;-35,79;1,79;1,68;1,79;1,68;0;0;
22689;-16,87;-33,9;-16,87;-33,9;1,83;1,64;1,83;1,64;0;0;
22707;-19,14;-31,09;-19,14;-31,09;2,01;1,52;2,01;1,52;0;0;
22725;-15,83;-36,21;-15,83;-36,21;1,92;1,56;1,92;1,56;0;0;
22743;-18,44;-32,94;-18,44;-32,94;1,78;1,55;1,78;1,55;0;0;
22759;-18,44;-32,94;-18,44;-32,94;1,82;1,62;1,82;1,62;0;0;
22780;-16,7;-32,37;-16,7;-32,37;1,76;1,53;1,76;1,53;0;0;
22798;-16,7;-32,37;-16,7;-32,37;1,77;1,66;1,77;1,66;0;0;
22815;-17,67;-35,36;-17,67;-35,36;1,63;1,62;1,63;1,62;0;0;
22832;-13,57;-32,18;-13,57;-32,18;1,77;1,63;1,77;1,63;0;0;
22848;-17,11;-33,31;-17,11;-33,31;1,72;1,74;1,72;1,74;0;0;
22868;-15,19;-30,23;-15,19;-30,23;1,61;1,84;1,61;1,84;0;0;
22888;-11,06;-32,19;-11,06;-32,19;1,76;1,96;1,76;1,96;0;0;
22906;-24,77;-34,66;-24,77;-34,66;2,13;2,31;2,13;2,31;1;0;
22924;-14,79;-28,81;-14,79;-28,81;2,62;2,51;2,62;2,51;1;0;
22946;-17,27;-33,87;-17,27;-33,87;2,81;2,66;2,81;2,66;1;0;
22962;-20,26;-32,29;-20,26;-32,29;3,19;2,84;3,19;2,84;1;0;
22978;-20,26;-32,29;-20,26;-32,29;3,5;2,7;3,5;2,7;1;0;
22997;-17,7;-36,95;-17,7;-36,95;3,85;3,13;3,85;3,13;1;0;
23013;-17,68;-34,59;-17,68;-34,59;3,61;2,94;3,61;2,94;1;0;
23032;-14,31;-33,71;-14,31;-33,71;3,89;2,65;3,89;2,65;1;0;
23050;-11,13;-32,92;-11,13;-32,92;4,02;2,62;4,02;2,62;1;0;
23068;6,13;-19,47;6,13;-19,47;5,79;3,84;5,79;3,84;1;0;
23085;-7,64;-26,95;-7,64;-26,95;8,34;4,64;8,34;4,64;1;0;
23109;-77,07;-61,08;-77,07;-61,08;11,11;6,62;11,11;6,62;1;0;
23128;-20,66;-37,54;-20,66;-37,54;13,96;8,31;13,96;8,31;1;0;
23145;25,82;-24,08;25,82;-24,08;17,02;10,64;17,02;10,64;1;0;
23164;-8,04;-31,65;-8,04;-31,65;19,44;11,69;19,44;11,69;1;0;
23182;-4,45;-20,56;-4,45;-20,56;21,21;12,71;21,21;12,71;1;0;
23202;-32,07;-4,43;-32,07;-4,43;22,18;13,77;22,18;13,77;0;0;
23222;-71,06;-67,65;-71,06;-67,65;21,6;13,66;21,6;13,66;0;0;
23243;-14,75;-20,19;-14,75;-20,19;21,26;15,56;21,26;15,56;0;0;
23266;-8,7;-8,82;-8,7;-8,82;19,94;18,82;19,94;18,82;0;0;
23283;-22,37;-18,35;-22,37;-18,35;17,96;20,31;17,96;20,31;0;0;
23303;-24,66;-21,49;-24,66;-21,49;17,75;21,46;17,75;21,46;0;0;
23319;-24,66;-21,49;-24,66;-21,49;16,32;20,94;16,32;20,94;0;0;
23338;-4,06;-38,35;-4,06;-38,35;14,99;18,36;14,99;18,36;0;0;
23355;-9,68;-29,76;-9,68;-29,76;13,84;17,03;13,84;17,03;0;0;
23372;-18,81;-27,32;-18,81;-27,32;10,05;10,46;10,05;10,46;0;0;
23389;-15,8;-30,56;-15,8;-30,56;8,2;7,79;8,2;7,79;0;0;
23408;-18,13;-36,82;-18,13;-36,82;6,7;6,16;6,7;6,16;0;0;
23429;-16,86;-31,54;-16,86;-31,54;5,52;4,74;5,52;4,74;0;0;
23445;-15,1;-37,69;-15,1;-37,69;2,77;2,91;2,77;2,91;0;0;
23463;-17,25;-33,84;-17,25;-33,84;2,55;2,91;2,55;2,91;0;0;
23479;-17,25;-33,84;-17,25;-33,84;2,27;2,77;2,27;2,77;0;0;
23497;-11,83;-33,54;-11,83;-33,54;1,96;2,32;1,96;2,32;0;0;
23513;-21,59;-36,89;-21,59;-36,89;1,85;2,32;1,85;2,32;0;0;
23532;-17,83;-31,86;-17,83;-31,86;1,75;2,09;1,75;2,09;0;0;
23549;-17,79;-34,49;-17,79;-34,49;1,94;2,05;1,94;2,05;0;0;
23566;-14,81;-36,13;-14,81;-36,13;1,88;1,83;1,88;1,83;0;0;
23586;-13,76;-34,66;-13,76;-34,66;1,78;1,91;1,78;1,91;0;0;
23603;-16,6;-34;-16,6;-34;1,86;1,86;1,86;1,86;0;0;
23620;-16,41;-32,55;-16,41;-32,55;2,03;1,88;2,03;1,88;0;0;
23637;-16,41;-32,55;-16,41;-32,55;2,18;1,89;2,18;1,89;0;0;
23654;-19,96;-32,36;-19,96;-32,36;2,21;1,85;2,21;1,85;0;0;
23672;-15,55;-32,54;-15,55;-32,54;2,08;1,91;2,08;1,91;0;0;
23689;-12,44;-24,34;-12,44;-24,34;2,22;2,14;2,22;2,14;0;0;
23706;-15,1;-35,93;-15,1;-35,93;2,19;2,32;2,19;2,32;0;0;
23724;-16,66;-35,59;-16,66;-35,59;1,87;2,25;1,87;2,25;0;0;
23746;-18,55;-37,14;-18,55;-37,14;1,78;2,29;1,78;2,29;0;0;
23762;-16,08;-34,88;-16,08;-34,88;1,71;2,08;1,71;2,08;0;0;
23777;-16,08;-34,88;-16,08;-34,88;1,66;2,08;1,66;2,08;0;0;
23795;-15,78;-33,16;-15,78;-33,16;1,39;1,59;1,39;1,59;0;0;
23814;-18,49;-29,93;-18,49;-29,93;1,54;1,87;1,54;1,87;0;0;
23833;-17,25;-36,94;-17,25;-36,94;1,68;1,86;1,68;1,86;0;0;
23851;-19,19;-33,1;-19,19;-33,1;1,89;1,77;1,89;1,77;0;0;
23869;-15,41;-32,4;-15,41;-32,4;2,04;1,75;2,04;1,75;0;0;
23885;-21,02;-34,61;-21,02;-34,61;2,14;1,7;2,14;1,7;0;0;
23905;-17,27;-31,56;-17,27;-31,56;2,09;1,57;2,09;1,57;0;0;
23923;-20,2;-38,52;-20,2;-38,52;2;1,53;2;1,53;0;0;
23941;-14,2;-31,95;-14,2;-31,95;1,99;1,48;1,99;1,48;0;0;
23960;-17,16;-34,5;-17,16;-34,5;1,86;1,44;1,86;1,44;0;0;
23976;-17,16;-34,5;-17,16;-34,5;1,81;1,28;1,81;1,28;0;0;
23993;-15,27;-34,11;-15,27;-34,11;2,04;1,35;2,04;1,35;0;0;
24010;-14,33;-35,26;-14,33;-35,26;2,19;1,33;2,19;1,33;0;0;
24028;-16,82;-30,62;-16,82;-30,62;2,05;1,4;2,05;1,4;0;0;
24045;-17,21;-34,97;-17,21;-34,97;1,82;1,56;1,82;1,56;0;0;
24070;-17,6;-33,5;-17,6;-33,5;1,94;1,78;1,94;1,78;0;0;
24087;-19,28;-35,22;-19,28;-35,22;1,89;2,03;1,89;2,03;0;0;
24105;-21,73;-32,17;-21,73;-32,17;1,77;1,93;1,77;1,93;0;0;
24123;-14,75;-34,51;-14,75;-34,51;1,75;2,02;1,75;2,02;0;0;
24146;-18,63;-34,87;-18,63;-34,87;1,85;1,83;1,85;1,83;0;0;
24163;-15,03;-35,45;-15,03;-35,45;1,71;1,61;1,71;1,61;0;0;
24179;-15,03;-35,45;-15,03;-35,45;1,64;1,67;1,64;1,67;0;0;
24196;-15,59;-35,68;-15,59;-35,68;1,6;1,65;1,6;1,65;0;0;
24217;-17,36;-31,03;-17,36;-31,03;1,35;1,6;1,35;1,6;0;0;
24236;-16,15;-38,91;-16,15;-38,91;1,36;1,66;1,36;1,66;0;0;
24254;-10,54;-33,04;-10,54;-33,04;1,44;1,7;1,44;1,7;0;0;
24271;-20,34;-33,87;-20,34;-33,87;1,44;1,82;1,44;1,82;0;0;
24294;-17,06;-34,88;-17,06;-34,88;1,51;1,73;1,51;1,73;0;0;
24310;-14,81;-32,91;-14,81;-32,91;1,55;1,88;1,55;1,88;0;0;
24329;-15,15;-33,89;-15,15;-33,89;1,69;1,84;1,69;1,84;0;0;
24345;-18,44;-35,74;-18,44;-35,74;1,75;1,6;1,75;1,6;0;0;
24363;-15,76;-35,41;-15,76;-35,41;1,6;1,66;1,6;1,66;0;0;
24384;-16,52;-35,26;-16,52;-35,26;1,58;1,53;1,58;1,53;0;0;
24403;-15,39;-31,82;-15,39;-31,82;1,54;1,54;1,54;1,54;0;0;
24420;-16,07;-31,03;-16,07;-31,03;1,75;1,74;1,75;1,74;0;0;
24438;-16,07;-31,03;-16,07;-31,03;1,88;1,99;1,88;1,99;0;0;
24465;-14,91;-34,96;-14,91;-34,96;2;1,96;2;1,96;0;0;
24482;-19,13;-33,37;-19,13;-33,37;2,22;1,73;2,22;1,73;0;0;
24498;-19,13;-33,37;-19,13;-33,37;2,6;1,69;2,6;1,69;0;0;
24516;-14,45;-30,39;-14,45;-30,39;2,46;1,65;2,46;1,65;0;0;
24536;-14,23;-31,28;-14,23;-31,28;2,18;1,42;2,18;1,42;0;0;
24554;-15,47;-33,79;-15,47;-33,79;1,92;1,26;1,92;1,26;0;0;
24571;-18,2;-36,15;-18,2;-36,15;1,88;1,38;1,88;1,38;0;0;
24588;-17,74;-38,94;-17,74;-38,94;1,57;1,54;1,57;1,54;0;0;
24606;-16,85;-36,4;-16,85;-36,4;1,37;1,78;1,37;1,78;0;0;
24622;-15,21;-34,76;-15,21;-34,76;1,51;1,75;1,51;1,75;0;0;
24638;-15,21;-34,76;-15,21;-34,76;1,66;1,72;1,66;1,72;0;0;
24655;-18,78;-35,8;-18,78;-35,8;1,71;1,68;1,71;1,68;0;0;
24675;-16,85;-33,88;-16,85;-33,88;1,68;1,84;1,68;1,84;0;0;
24695;-18,05;-33,49;-18,05;-33,49;1,51;1,7;1,51;1,7;0;0;
24711;-14,04;-37,82;-14,04;-37,82;1,41;1,71;1,41;1,71;1;0;
24729;-14,39;-31,7;-14,39;-31,7;1,39;1,72;1,39;1,72;1;0;
24747;-15,58;-30,5;-15,58;-30,5;1,36;1,79;1,36;1,79;1;0;
24764;-23,13;-33,79;-23,13;-33,79;1,47;2,01;1,47;2,01;1;0;
24781;-19;-36,08;-19;-36,08;1,77;1,88;1,77;1,88;1;0;
24798;-19;-36,08;-19;-36,08;2,07;2;2,07;2;1;0;
24815;-4,68;-26,85;-4,68;-26,85;2,5;2,34;2,5;2,34;1;0;
24833;-14,88;-34,25;-14,88;-34,25;2,45;2,43;2,45;2,43;1;0;
24857;-19,99;-34,45;-19,99;-34,45;2,61;2,25;2,61;2,25;1;0;
24875;-19,42;-34,78;-19,42;-34,78;2,61;2,07;2,61;2,07;1;0;
24895;-4,03;-19,14;-4,03;-19,14;2,68;2,4;2,68;2,4;1;0;
24912;-17,12;-40,27;-17,12;-40,27;3,58;2,7;3,58;2,7;1;0;
24930;-42,78;-41,73;-42,78;-41,73;8,04;4,63;8,04;4,63;1;0;
24948;-31,15;-48,2;-31,15;-48,2;11,29;6,22;11,29;6,22;1;0;
24965;15,53;-18,98;15,53;-18,98;15,39;8,85;15,39;8,85;1;0;
24984;-28,59;-43,03;-28,59;-43,03;17,84;10,44;17,84;10,44;1;0;
25003;-27,09;-46,58;-27,09;-46,58;23,25;12,22;23,25;12,22;1;0;
25025;0,13;-39,36;0,13;-39,36;23,33;12,93;23,33;12,93;0;0;
25044;0,13;-39,36;0,13;-39,36;20,46;13,13;20,46;13,13;0;0;
25066;-28,23;-48,13;-28,23;-48,13;17,06;11,24;17,06;11,24;0;0;
25084;-48,5;-36,21;-48,5;-36,21;16,92;12,44;16,92;12,44;0;0;
25102;-8,13;-28,35;-8,13;-28,35;14,84;12,55;14,84;12,55;0;0;
25120;-10,9;-41,88;-10,9;-41,88;13,15;13,73;13,15;13,73;0;0;
25139;-16,67;-38,49;-16,67;-38,49;11,85;12,86;11,85;12,86;0;0;
25158;-16,67;-38,49;-16,67;-38,49;10,91;11,91;10,91;11,91;0;0;
25180;-15,32;-37,78;-15,32;-37,78;9,59;10,72;9,59;10,72;0;0;
25197;-15,32;-37,78;-15,32;-37,78;8,63;9,54;8,63;9,54;0;0;
25214;19,28;-2,54;19,28;-2,54;7,34;8,09;7,34;8,09;0;0;
25230;-16,52;-35,43;-16,52;-35,43;6,53;6,32;6,53;6,32;0;0;
25247;-13,96;-33,38;-13,96;-33,38;6,33;5,82;6,33;5,82;0;0;
25265;-17,72;-37,09;-17,72;-37,09;5,08;4,63;5,08;4,63;0;0;
25281;-10,53;-29,35;-10,53;-29,35;4,05;4,11;4,05;4,11;0;0;
25296;-10,53;-29,35;-10,53;-29,35;3,68;4,37;3,68;4,37;0;0;
25313;-16,77;-34,35;-16,77;-34,35;2,14;2,98;2,14;2,98;0;0;
25337;-13,51;-34,59;-13,51;-34,59;2,32;3,06;2,32;3,06;0;0;
25355;-16,56;-36,95;-16,56;-36,95;1,82;2,81;1,82;2,81;0;0;
25373;-18,21;-35,22;-18,21;-35,22;1,91;2,82;1,91;2,82;0;0;
25393;-16,65;-35,27;-16,65;-35,27;1,97;2,27;1,97;2,27;0;0;
25409;-18,28;-34,52;-18,28;-34,52;1,89;1,92;1,89;1,92;0;0;
25428;-20,02;-36,82;-20,02;-36,82;2,12;2,02;2,12;2,02;0;0;
25445;-15,68;-32,54;-15,68;-32,54;2,22;1,65;2,22;1,65;0;0;
25462;-17,55;-35,6;-17,55;-35,6;2,06;1,75;2,06;1,75;0;0;
25481;-16,14;-36,63;-16,14;-36,63;1,87;1,87;1,87;1,87;0;0;
25504;-15,36;-34,43;-15,36;-34,43;1,98;1,97;1,98;1,97;0;0;
25521;-17,36;-32,18;-17,36;-32,18;1,71;1,94;1,71;1,94;0;0;
25537;-17,36;-32,18;-17,36;-32,18;1,71;1,89;1,71;1,89;0;0;
25555;-15,09;-32,92;-15,09;-32,92;1,63;1,99;1,63;1,99;0;0;
25572;-16,73;-35,87;-16,73;-35,87;1,67;2,05;1,67;2,05;0;0;
25589;-15,02;-32,55;-15,02;-32,55;1,77;1,9;1,77;1,9;0;0;
25607;-15,44;-34,76;-15,44;-34,76;1,57;1,84;1,57;1,84;0;0;
25625;-13,66;-30,08;-13,66;-30,08;1,58;1,95;1,58;1,95;0;0;
25642;-16,06;-34,31;-16,06;-34,31;1,49;1,94;1,49;1,94;0;0;
25663;-18,77;-30,47;-18,77;-30,47;1,57;2,03;1,57;2,03;0;0;
25681;-14,93;-36,55;-14,93;-36,55;1,62;2,11;1,62;2,11;0;0;
25705;-13,41;-35,22;-13,41;-35,22;1,67;2,15;1,67;2,15;0;0;
25723;-16,97;-36,86;-16,97;-36,86;1,61;2,12;1,61;2,12;0;0;
25740;-23;-33,81;-23;-33,81;1,83;2,1;1,83;2,1;0;0;
25758;-23;-33,81;-23;-33,81;2,15;2;2,15;2;0;0;
25774;-15,96;-34,27;-15,96;-34,27;2,17;1,7;2,17;1,7;0;0;
25792;-19,29;-38,12;-19,29;-38,12;2,25;1,6;2,25;1,6;0;0;
25814;-16,37;-34,23;-16,37;-34,23;2,03;1,78;2,03;1,78;0;0;
25831;-12,38;-37,58;-12,38;-37,58;1,99;1,73;1,99;1,73;0;0;
25847;-19,16;-33,55;-19,16;-33,55;1,64;1,69;1,64;1,69;0;0;
25864;-17,18;-31,75;-17,18;-31,75;1,55;1,66;1,55;1,66;0;0;
25881;-16,88;-37,68;-16,88;-37,68;1,47;1,58;1,47;1,58;0;0;
25898;-16,88;-37,68;-16,88;-37,68;1,48;1,4;1,48;1,4;0;0;
25913;-11,6;-33,52;-11,6;-33,52;1,74;1,3;1,74;1,3;0;0;
25931;-23,38;-33,89;-23,38;-33,89;1,92;1,42;1,92;1,42;0;0;
25948;-17,64;-32,56;-17,64;-32,56;2,16;1,62;2,16;1,62;0;0;
25969;-15,99;-35,21;-15,99;-35,21;2,13;1,66;2,13;1,66;0;0;
25986;-18,17;-36,5;-18,17;-36,5;2,09;1,66;2,09;1,66;0;0;
26005;-16,44;-34,7;-16,44;-34,7;2,13;1,69;2,13;1,69;0;0;
26022;-19,69;-34,76;-19,69;-34,76;1,97;1,73;1,97;1,73;0;0;
26040;-11,55;-34;-11,55;-34;1,74;1,67;1,74;1,67;0;0;
26058;-11,55;-34;-11,55;-34;1,77;1,65;1,77;1,65;0;0;
26075;-17,53;-33,28;-17,53;-33,28;1,76;1,66;1,76;1,66;0;0;
26091;-17,26;-37,57;-17,26;-37,57;1,86;1,72;1,86;1,72;0;0;
26108;-11,97;-35,95;-11,97;-35,95;1,85;1,74;1,85;1,74;0;0;
26132;-15,29;-37,08;-15,29;-37,08;1,71;1,63;1,71;1,63;0;0;
26148;-19,51;-34,53;-19,51;-34,53;1,79;1,81;1,79;1,81;0;0;
26165;-15,86;-34,28;-15,86;-34,28;1,9;1,96;1,9;1,96;0;0;
26182;-16,77;-35,23;-16,77;-35,23;1,73;1,91;1,73;1,91;0;0;
26201;-16,42;-35,17;-16,42;-35,17;1,62;1,74;1,62;1,74;0;0;
26217;-16,42;-35,17;-16,42;-35,17;1,51;1,57;1,51;1,57;0;0;
26234;-17,04;-36,93;-17,04;-36,93;1,41;1,48;1,41;1,48;0;0;
26251;-17,04;-36,93;-17,04;-36,93;1,2;1,5;1,2;1,5;0;0;
26268;-16,89;-30,17;-16,89;-30,17;1,21;1,54;1,21;1,54;0;0;
26290;-20,78;-33,54;-20,78;-33,54;1,43;1,57;1,43;1,57;0;0;
26308;-18,8;-37,57;-18,8;-37,57;1,59;1,66;1,59;1,66;0;0;
26326;-15,42;-34,96;-15,42;-34,96;1,53;1,69;1,53;1,69;0;0;
26343;-15,53;-32,71;-15,53;-32,71;1,66;1,74;1,66;1,74;0;0;
26360;-20,41;-37,93;-20,41;-37,93;1,69;1,73;1,69;1,73;0;0;
26377;-20,41;-37,93;-20,41;-37,93;1,61;1,62;1,61;1,62;0;0;
26395;-19,43;-35,25;-19,43;-35,25;1,44;1,8;1,44;1,8;0;0;
26413;-15,8;-35,99;-15,8;-35,99;1,61;1,85;1,61;1,85;0;0;
26430;-18,9;-29,59;-18,9;-29,59;1,56;1,91;1,56;1,91;0;0;
26450;-15,88;-32,92;-15,88;-32,92;1,5;1,81;1,5;1,81;0;0;
26469;-17,32;-35,94;-17,32;-35,94;1,44;1,75;1,44;1,75;1;0;
26488;-15,24;-33,65;-15,24;-33,65;1,5;1,6;1,5;1,6;1;0;
26504;-20,21;-35,25;-20,21;-35,25;1,48;1,44;1,48;1,44;1;0;
26520;-16,35;-33,91;-16,35;-33,91;1,4;1,42;1,4;1,42;1;0;
26538;-16,35;-33,91;-16,35;-33,91;1,47;1,37;1,47;1,37;1;0;
26555;-18,98;-34,52;-18,98;-34,52;1,52;1,29;1,52;1,29;1;0;
26573;-18,19;-34,35;-18,19;-34,35;1,52;1,36;1,52;1,36;1;0;
26590;-15,49;-34,28;-15,49;-34,28;1,69;1,47;1,69;1,47;1;0;
26612;-15,91;-34,53;-15,91;-34,53;1,6;1,48;1,6;1,48;1;0;
26628;-16,35;-32,7;-16,35;-32,7;1,55;1,42;1,55;1,42;1;0;
26643;-17,65;-38,91;-17,65;-38,91;1,57;1,58;1,57;1,58;1;0;
26660;-17,13;-35,61;-17,13;-35,61;1,62;1,66;1,62;1,66;1;0;
26677;-17,13;-35,61;-17,13;-35,61;1,62;1,64;1,62;1,64;1;0;
26696;-34,35;-40,45;-34,35;-40,45;2,34;2,01;2,34;2,01;1;0;
26715;-5,22;-23,02;-5,22;-23,02;3,32;2,71;3,32;2,71;1;0;
26734;0,46;-14,45;0,46;-14,45;6,06;4,57;6,06;4,57;1;0;
26751;-11,42;-18,93;-11,42;-18,93;8,87;6,87;8,87;6,87;1;0;
26773;-19,32;-51,59;-19,32;-51,59;12,66;9,73;12,66;9,73;1;0;
26790;-2,82;-36,03;-2,82;-36,03;14,88;10,98;14,88;10,98;1;0;
26808;-25,5;-44,31;-25,5;-44,31;16,87;13,72;16,87;13,72;1;0;
26825;-18,11;-27,41;-18,11;-27,41;15,93;14,83;15,93;14,83;0;0;
26844;-8,05;-41,85;-8,05;-41,85;14,04;14,68;14,04;14,68;0;0;
26863;-15,75;-21,28;-15,75;-21,28;13,3;13,79;13,3;13,79;0;0;
26878;-15,75;-21,28;-15,75;-21,28;12,11;13,93;12,11;13,93;0;0;
26895;-8,43;-37,41;-8,43;-37,41;12,38;15,33;12,38;15,33;0;0;
26914;-28,08;-47,34;-28,08;-47,34;9,02;12,74;9,02;12,74;0;0;
26939;-18,41;-30,1;-18,41;-30,1;9,13;10,1;9,13;10,1;0;0;
26956;-18,41;-30,1;-18,41;-30,1;7,42;7,79;7,42;7,79;0;0;
26976;-14,37;-35,23;-14,37;-35,23;5,6;5,86;5,6;5,86;0;0;
26993;-12,79;-36,27;-12,79;-36,27;5,87;6,54;5,87;6,54;0;0;
27011;-20,6;-34,22;-20,6;-34,22;5,61;5,87;5,61;5,87;0;0;
27028;-20,02;-33,11;-20,02;-33,11;4,62;5,19;4,62;5,19;0;0;
27046;-20,08;-26,64;-20,08;-26,64;4,53;4,77;4,53;4,77;0;0;
27067;-14,88;-34,87;-14,88;-34,87;3,64;4,02;3,64;4,02;0;0;
27090;-14,82;-30,6;-14,82;-30,6;3,27;3,46;3,27;3,46;0;0;
27106;-15,62;-35,68;-15,62;-35,68;1,95;2,48;1,95;2,48;0;0;
27124;-16,66;-32,29;-16,66;-32,29;1,82;2,32;1,82;2,32;0;0;
27142;-14,99;-30,94;-14,99;-30,94;1,47;2,27;1,47;2,27;0;0;
27158;-14,99;-30,94;-14,99;-30,94;1,47;1,9;1,47;1,9;0;0;
27174;-15,87;-33,9;-15,87;-33,9;1,51;1,88;1,51;1,88;0;0;
27190;-17,64;-30,83;-17,64;-30,83;1,53;1,54;1,53;1,54;0;0;
27209;-12,21;-35,81;-12,21;-35,81;1,62;1,74;1,62;1,74;0;0;
27226;-18,54;-34,28;-18,54;-34,28;2,07;1,88;2,07;1,88;0;0;
27253;-17,82;-35,75;-17,82;-35,75;2,1;1,88;2,1;1,88;0;0;
27269;-16,76;-32,42;-16,76;-32,42;1,91;1,86;1,91;1,86;0;0;
27287;-17,08;-33,79;-17,08;-33,79;1,93;1,95;1,93;1,95;0;0;
27303;-17,44;-39,16;-17,44;-39,16;1,98;1,95;1,98;1,95;0;0;
27320;-14,99;-33,89;-14,99;-33,89;1,96;1,83;1,96;1,83;0;0;
27337;-14,99;-33,89;-14,99;-33,89;2,03;1,71;2,03;1,71;0;0;
27352;-16,59;-32,03;-16,59;-32,03;1,97;1,71;1,97;1,71;0;0;
27369;-14,96;-32,55;-14,96;-32,55;2,22;1,75;2,22;1,75;0;0;
27385;-15,37;-32,02;-15,37;-32,02;2,16;1,87;2,16;1,87;0;0;
27406;-16,41;-40,81;-16,41;-40,81;1,95;1,82;1,95;1,82;0;0;
27423;-16,5;-33,28;-16,5;-33,28;1,68;1,97;1,68;1,97;0;0;
27439;-14,62;-34,25;-14,62;-34,25;1,72;1,9;1,72;1,9;0;0;
27458;-14,62;-34,25;-14,62;-34,25;1,73;1,62;1,73;1,62;0;0;
27476;-15,25;-31,75;-15,25;-31,75;1,66;1,41;1,66;1,41;0;0;
27493;-17,87;-33,24;-17,87;-33,24;1,65;1,3;1,65;1,3;0;0;
27511;-14,88;-34,87;-14,88;-34,87;1,68;0,98;1,68;0,98;0;0;
27530;-13,36;-30,44;-13,36;-30,44;1,71;1,23;1,71;1,23;0;0;
27547;-16,52;-35,25;-16,52;-35,25;1,82;1,38;1,82;1,38;0;0;
27567;-18,07;-35,73;-18,07;-35,73;1,82;1,46;1,82;1,46;0;0;
27587;-15,66;-33,27;-15,66;-33,27;1,89;1,57;1,89;1,57;0;0;
27605;-14,91;-38,33;-14,91;-38,33;1,87;1,68;1,87;1,68;0;0;
27621;-12,6;-33,99;-12,6;-33,99;1,91;1,86;1,91;1,86;0;0;
27638;-12,6;-33,99;-12,6;-33,99;1,66;1,99;1,66;1,99;0;0;
27657;-15,62;-31,95;-15,62;-31,95;1,62;2,08;1,62;2,08;0;0;
27674;-16,53;-33,37;-16,53;-33,37;1,42;2,04;1,42;2,04;0;0;
27690;-17,38;-30,73;-17,38;-30,73;1,73;2,09;1,73;2,09;0;0;
27708;-16,48;-31,9;-16,48;-31,9;1,77;2,14;1,77;2,14;0;0;
27728;-16,49;-35,49;-16,49;-35,49;1,84;2,11;1,84;2,11;0;0;
27745;-17,79;-35,61;-17,79;-35,61;1,78;2,08;1,78;2,08;0;0;
27762;-17,97;-32,4;-17,97;-32,4;1,75;2,1;1,75;2,1;0;0;
27779;-17,97;-32,4;-17,97;-32,4;1,83;2,13;1,83;2,13;0;0;
27796;-16,45;-34,75;-16,45;-34,75;1,46;2,09;1,46;2,09;0;0;
27815;-15,73;-30,73;-15,73;-30,73;1,39;1,85;1,39;1,85;0;0;
27830;-15,39;-33,05;-15,39;-33,05;1,49;1,67;1,49;1,67;0;0;
27846;-17,13;-35,53;-17,13;-35,53;1,49;1,62;1,49;1,62;0;0;
27865;-16,65;-35,25;-16,65;-35,25;1,53;1,71;1,53;1,71;0;0;
27886;-14,87;-35,07;-14,87;-35,07;1,61;1,51;1,61;1,51;0;0;
27903;-16,46;-36,26;-16,46;-36,26;1,79;1,62;1,79;1,62;0;0;
27922;-16,99;-34,94;-16,99;-34,94;1,85;1,61;1,85;1,61;0;0;
27940;-12,25;-36,94;-12,25;-36,94;1,85;1,71;1,85;1,71;0;0;
27959;-12,25;-36,94;-12,25;-36,94;1,74;1,68;1,74;1,68;0;0;
27976;-14,99;-35,44;-14,99;-35,44;1,75;1,77;1,75;1,77;0;0;
27996;-18,26;-34,44;-18,26;-34,44;1,61;1,96;1,61;1,96;0;0;
28012;-16,35;-28,26;-16,35;-28,26;1,62;2,07;1,62;2,07;0;0;
28029;-15,77;-36,85;-15,77;-36,85;1,67;1,94;1,67;1,94;0;0;
28050;-18,84;-33,3;-18,84;-33,3;1,7;1,92;1,7;1,92;0;0;
28067;-17,82;-35,64;-17,82;-35,64;1,7;1,98;1,7;1,98;0;0;
28083;-15,62;-34,61;-15,62;-34,61;1,72;1,62;1,72;1,62;0;0;
28099;-15,62;-34,61;-15,62;-34,61;1,74;1,53;1,74;1,53;0;0;
28115;-17,46;-31,23;-17,46;-31,23;1,57;1,51;1,57;1,51;0;0;
28134;-16,71;-33,71;-16,71;-33,71;1,51;1,6;1,51;1,6;0;0;
28152;-17,99;-34,28;-17,99;-34,28;1,39;1,46;1,39;1,46;0;0;
28168;-15,79;-31,92;-15,79;-31,92;1,36;1,54;1,36;1,54;0;0;
28186;-17,22;-32,53;-17,22;-32,53;1,43;1,77;1,43;1,77;0;0;
28206;-15,77;-32,53;-15,77;-32,53;1,48;1,74;1,48;1,74;0;0;
28223;-17,31;-32,16;-17,31;-32,16;1,29;1,76;1,29;1,76;0;0;
28240;-17,01;-34,35;-17,01;-34,35;1,39;1,91;1,39;1,91;1;0;
28258;-17,01;-34,35;-17,01;-34,35;1,33;2,09;1,33;2,09;1;0;
28275;-16,43;-34,23;-16,43;-34,23;1,31;1,93;1,31;1,93;1;0;
28292;-16,91;-37,92;-16,91;-37,92;1,31;1,8;1,31;1,8;1;0;
28308;-13,21;-34,44;-13,21;-34,44;1,48;1,7;1,48;1,7;1;0;
28325;-17,44;-29,59;-17,44;-29,59;1,74;1,66;1,74;1,66;1;0;
28342;-24,55;-34,68;-24,55;-34,68;2,89;1,91;2,89;1,91;1;0;
28362;12,09;-3,77;12,09;-3,77;3,92;2,33;3,92;2,33;1;0;
28382;-14,2;-35,41;-14,2;-35,41;7,84;4,49;7,84;4,49;1;0;
28400;-15,05;-31,56;-15,05;-31,56;8,05;4,68;8,05;4,68;1;0;
28415;-15,05;-31,56;-15,05;-31,56;7,99;4,96;7,99;4,96;1;0;
28432;-11,3;-29,22;-11,3;-29,22;7,7;4,85;7,7;4,85;1;0;
28451;-31,09;-35;-31,09;-35;7,75;4,52;7,75;4,52;1;0;
28468;-13,41;-29,58;-13,41;-29,58;4,57;2,64;4,57;2,64;1;0;
28485;-23,88;-40,15;-23,88;-40,15;6,6;3,46;6,6;3,46;1;0;
28502;-19,86;-19,57;-19,86;-19,57;8,76;4,32;8,76;4,32;1;0;
28524;13,1;-58,96;13,1;-58,96;13,23;6,25;13,23;6,25;1;0;
28542;-17,78;-32,42;-17,78;-32,42;16,5;9,53;16,5;9,53;1;0;
28558;-17,78;-32,42;-17,78;-32,42;19,16;12,89;19,16;12,89;1;0;
28574;-24,14;-81,32;-24,14;-81,32;19,82;21,54;19,82;21,54;1;0;
28592;-12,88;-10,95;-12,88;-10,95;20,78;26,37;20,78;26,37;1;0;
28609;-17,96;-14,01;-17,96;-14,01;21,06;29,47;21,06;29,47;0;0;
28627;1,97;-30,63;1,97;-30,63;21,91;28,23;21,91;28,23;0;0;
28644;-18,55;-49,32;-18,55;-49,32;23,23;30,55;23,23;30,55;0;0;
28663;-22,05;-24,1;-22,05;-24,1;21,6;26,9;21,6;26,9;0;0;
28686;-19,84;-32,8;-19,84;-32,8;19,86;20,42;19,86;20,42;0;0;
28705;0,61;-21,97;0,61;-21,97;16,74;15,78;16,74;15,78;0;0;
28724;-91,54;-51,82;-91,54;-51,82;17,02;13,63;17,02;13,63;0;0;
28742;-10,79;-42,29;-10,79;-42,29;15,77;11,7;15,77;11,7;0;0;
28765;-40,56;-44,18;-40,56;-44,18;14,99;7,17;14,99;7,17;0;0;
28782;-42,01;-37,59;-42,01;-37,59;14,83;6,68;14,83;6,68;0;0;
28801;-16,84;-41,17;-16,84;-41,17;16,92;8,22;16,92;8,22;0;0;
28821;-10,43;-34,92;-10,43;-34,92;16,86;9,79;16,86;9,79;0;0;
28842;-14,61;-29,5;-14,61;-29,5;11,12;8,21;11,12;8,21;0;0;
28860;-27,97;-38,4;-27,97;-38,4;12,22;9,01;12,22;9,01;0;0;
28878;-27,97;-38,4;-27,97;-38,4;10,57;8,34;10,57;8,34;0;0;
28895;22,25;-18,62;22,25;-18,62;9,21;7,36;9,21;7,36;0;0;
28912;-12,21;-35,91;-12,21;-35,91;14,21;8,69;14,21;8,69;0;0;
28931;-13,7;-30,89;-13,7;-30,89;14,32;7,78;14,32;7,78;0;0;
28950;-21,24;-49,73;-21,24;-49,73;14,05;7,59;14,05;7,59;0;0;
28966;-8,29;-27,25;-8,29;-27,25;12,32;6,78;12,32;6,78;0;0;
28983;-15,83;-35,67;-15,83;-35,67;11,4;6,68;11,4;6,68;0;0;
29005;-16,26;-32,5;-16,26;-32,5;6,94;5,65;6,94;5,65;0;0;
29021;-25,66;-39,7;-25,66;-39,7;3,93;4,24;3,93;4,24;0;0;
29038;-25,66;-39,7;-25,66;-39,7;3,26;3,75;3,26;3,75;0;0;
29054;-41,41;-43,7;-41,41;-43,7;4,84;4,29;4,84;4,29;0;0;
29073;-2,04;-22,72;-2,04;-22,72;5,04;4,67;5,04;4,67;0;0;
29089;-2,04;-22,72;-2,04;-22,72;5,57;5,12;5,57;5,12;0;0;
29105;-19,92;-36,45;-19,92;-36,45;5,83;4,8;5,83;4,8;0;0;
29121;-19,92;-36,45;-19,92;-36,45;5,98;4,97;5,98;4,97;0;0;
29140;-18,22;-37,34;-18,22;-37,34;5,99;4,81;5,99;4,81;0;0;
29160;-21,61;-37,01;-21,61;-37,01;4,06;3,6;4,06;3,6;0;0;
29177;-21,61;-37,01;-21,61;-37,01;3,37;2,6;3,37;2,6;0;0;
29194;-19,79;-32,65;-19,79;-32,65;2,96;1,96;2,96;1,96;0;0;
29211;-18,6;-31,59;-18,6;-31,59;2,68;1,85;2,68;1,85;0;0;
29228;-16,44;-30,62;-16,44;-30,62;2,66;1,81;2,66;1,81;0;0;
29244;-12,85;-31,71;-12,85;-31,71;3,44;1,99;3,44;1,99;0;0;
29261;-17,39;-37,59;-17,39;-37,59;3,58;2,16;3,58;2,16;0;0;
29278;-17,39;-37,59;-17,39;-37,59;3,68;2,33;3,68;2,33;0;0;
29297;-16,16;-38,68;-16,16;-38,68;3,71;2,46;3,71;2,46;0;0;
29321;-16,84;-31,99;-16,84;-31,99;3,6;2,52;3,6;2,52;0;0;
29338;-16,84;-31,99;-16,84;-31,99;2,61;2,31;2,61;2,31;0;0;
29358;-17;-31,94;-17;-31,94;2,08;2,11;2,08;2,11;0;0;
29375;-15,04;-34,08;-15,04;-34,08;1,76;1,95;1,76;1,95;0;0;
29392;-16,51;-32,4;-16,51;-32,4;1,85;2,01;1,85;2,01;0;0;
29409;-19,22;-30,49;-19,22;-30,49;2,12;2,37;2,12;2,37;0;0;
29426;-17,47;-30,99;-17,47;-30,99;2,29;3,01;2,29;3,01;0;0;
29443;-19,41;-37,23;-19,41;-37,23;2,45;3,25;2,45;3,25;0;0;
29459;-19,41;-37,23;-19,41;-37,23;2,52;3,48;2,52;3,48;0;0;
29481;-19,19;-35,35;-19,19;-35,35;2,47;3,48;2,47;3,48;0;0;
29497;-19,19;-35,35;-19,19;-35,35;2,37;3,11;2,37;3,11;0;0;
29512;-21,05;-30,73;-21,05;-30,73;2,17;2,53;2,17;2,53;0;0;
29530;-13,77;-36,85;-13,77;-36,85;2,37;2,16;2,37;2,16;0;0;
29549;-20,07;-31,7;-20,07;-31,7;2,23;1,83;2,23;1,83;0;0;
29565;-14,36;-36,96;-14,36;-36,96;2,11;1,63;2,11;1,63;0;0;
29580;-21,3;-35,92;-21,3;-35,92;2,06;1,66;2,06;1,66;0;0;
29600;-14,04;-33,78;-14,04;-33,78;2,07;1,66;2,07;1,66;0;0;
29618;-14,04;-33,78;-14,04;-33,78;2,06;1,66;2,06;1,66;0;0;
29637;-15,41;-34,25;-15,41;-34,25;2,06;1,68;2,06;1,68;0;0;
29655;-21,18;-37,22;-21,18;-37,22;2,05;1,58;2,05;1,58;0;0;
29675;-18,78;-32,91;-18,78;-32,91;2,17;1,58;2,17;1,58;0;0;
29691;-16,25;-37,42;-16,25;-37,42;2,07;1,63;2,07;1,63;0;0;
29707;-17,96;-33,5;-17,96;-33,5;1,93;1,56;1,93;1,56;0;0;
29723;-15,23;-32,55;-15,23;-32,55;1,94;1,44;1,94;1,44;0;0;
29741;-14,55;-36,92;-14,55;-36,92;1,89;1,46;1,89;1,46;0;0;
29758;-14,55;-36,92;-14,55;-36,92;1,77;1,46;1,77;1,46;0;0;
29774;-15,34;-33,72;-15,34;-33,72;1,64;1,51;1,64;1,51;0;0;
29796;-17,37;-34,25;-17,37;-34,25;1,47;1,31;1,47;1,31;0;0;
29813;-19,77;-37,31;-19,77;-37,31;1,41;1,32;1,41;1,32;0;0;
29832;-16,52;-34,59;-16,52;-34,59;1,51;1,54;1,51;1,54;0;0;
29852;-13,52;-33,4;-13,52;-33,4;1,57;1,59;1,57;1,59;0;0;
29870;-18,89;-34,26;-18,89;-34,26;1,62;1,47;1,62;1,47;0;0;
29886;-16,55;-33,45;-16,55;-33,45;1,61;1,58;1,61;1,58;0;0;
29904;-17,27;-30,96;-17,27;-30,96;1,83;1,71;1,83;1,71;0;0;
29921;-19,83;-32,56;-19,83;-32,56;1,73;1,5;1,73;1,5;0;0;
29937;-19,83;-32,56;-19,83;-32,56;1,79;1,49;1,79;1,49;0;0;
29958;-16,18;-34,88;-16,18;-34,88;1,83;1,5;1,83;1,5;0;0;
29975;-16,51;-34,58;-16,51;-34,58;1,63;1,57;1,63;1,57;0;0;
29994;-15,72;-36,84;-15,72;-36,84;1,77;1,63;1,77;1,63;0;0;
30013;-17,83;-35,6;-17,83;-35,6;1,71;1,62;1,71;1,62;0;0;
30030;-15,08;-34,26;-15,08;-34,26;1,83;1,74;1,83;1,74;0;0;
30048;-16,19;-34,1;-16,19;-34,1;1,76;1,65;1,76;1,65;1;0;
30066;-13,82;-36,27;-13,82;-36,27;1,96;1,69;1,96;1,69;1;0;
30083;-8,46;-29,88;-8,46;-29,88;2,06;1,75;2,06;1,75;1;0;
30101;-15,01;-35,24;-15,01;-35,24;2,3;1,96;2,3;1,96;1;0;
30122;-18,79;-30,45;-18,79;-30,45;2,37;2,2;2,37;2,2;1;0;
30140;-19,68;-37,6;-19,68;-37,6;2,25;2,36;2,25;2,36;1;0;
30157;-19,68;-37,6;-19,68;-37,6;2,13;2,48;2,13;2,48;1;0;
30172;-17,68;-31,33;-17,68;-31,33;2,19;2,48;2,19;2,48;1;0;
30189;-19,07;-37,07;-19,07;-37,07;2,21;2,55;2,21;2,55;1;0;
30207;-7,5;-32,32;-7,5;-32,32;2,32;2,82;2,32;2,82;1;0;
30224;-6,52;-21,97;-6,52;-21,97;2,49;2,73;2,49;2,73;1;0;
30244;-50,27;-41,8;-50,27;-41,8;7,05;5,08;7,05;5,08;1;0;
30264;-103,9;-80,65;-103,9;-80,65;11,85;7,64;11,85;7,64;1;0;
30285;-14,72;-20,85;-14,72;-20,85;14,1;8,73;14,1;8,73;1;0;
30308;-55,22;-49,96;-55,22;-49,96;18,12;11,54;18,12;11,54;1;0;
30327;-17,64;-34,12;-17,64;-34,12;18,7;11,66;18,7;11,66;1;0;
30344;-40,3;-32,22;-40,3;-32,22;22,15;13,31;22,15;13,31;1;0;
30363;0,51;-16,62;0,51;-16,62;19,92;15;19,92;15;0;0;
30383;5,84;-31,84;5,84;-31,84;19,05;20,3;19,05;20,3;0;0;
30403;-27,8;-37,69;-27,8;-37,69;17,7;18,47;17,7;18,47;0;0;
30423;-10,58;-23,39;-10,58;-23,39;14,85;17,68;14,85;17,68;0;0;
30445;-47,13;-48,81;-47,13;-48,81;16,41;20,23;16,41;20,23;0;0;
30463;-17,61;-32,3;-17,61;-32,3;11,22;17,06;11,22;17,06;0;0;
30480;-16,51;-35,25;-16,51;-35,25;8,09;10,26;8,09;10,26;0;0;
30495;-16,51;-35,25;-16,51;-35,25;6,07;6,22;6,07;6,22;0;0;
30511;-18;-33,79;-18;-33,79;5,19;5,48;5,19;5,48;0;0;
30530;-9,26;-29,64;-9,26;-29,64;4,43;4,12;4,43;4,12;0;0;
30547;-15,87;-35,88;-15,87;-35,88;2,8;2,79;2,8;2,79;0;0;
30565;-16,36;-34,41;-16,36;-34,41;2,25;2,8;2,25;2,8;0;0;
30582;-15,28;-37,25;-15,28;-37,25;2,05;2,6;2,05;2,6;0;0;
30603;-18,66;-34,93;-18,66;-34,93;2,12;2,41;2,12;2,41;0;0;
30620;-17,33;-35,62;-17,33;-35,62;2,04;2,37;2,04;2,37;0;0;
30636;-17,33;-35,62;-17,33;-35,62;1,87;1,92;1,87;1,92;0;0;
30653;-10,88;-30,82;-10,88;-30,82;2,05;1,72;2,05;1,72;0;0;
30671;-14,81;-37,58;-14,81;-37,58;1,98;1,58;1,98;1,58;0;0;
30688;-20,66;-35,24;-20,66;-35,24;1,91;1,5;1,91;1,5;0;0;
30704;-14,98;-32,94;-14,98;-32,94;2,11;1,65;2,11;1,65;0;0;
30724;-15,77;-36,67;-15,77;-36,67;1,94;1,57;1,94;1,57;0;0;
30743;-12,97;-34,83;-12,97;-34,83;1,82;1,43;1,82;1,43;0;0;
30763;-16;-35,59;-16;-35,59;1,82;1,51;1,82;1,51;0;0;
30779;-16;-35,59;-16;-35,59;1,9;1,66;1,9;1,66;0;0;
30796;-15,97;-33,77;-15,97;-33,77;1,63;1,7;1,63;1,7;0;0;
30814;-15,74;-36,29;-15,74;-36,29;1,54;1,61;1,54;1,61;0;0;
30830;-16,3;-35,47;-16,3;-35,47;1,63;1,57;1,63;1,57;0;0;
30849;-18,32;-35,26;-18,32;-35,26;1,47;1,65;1,47;1,65;0;0;
30866;-12,88;-33,96;-12,88;-33,96;1,54;1,66;1,54;1,66;0;0;
30882;-12,88;-33,96;-12,88;-33,96;1,71;1,79;1,71;1,79;0;0;
30900;-15,01;-37,79;-15,01;-37,79;1,82;1,87;1,82;1,87;0;0;
30921;-18,32;-32,07;-18,32;-32,07;1,95;1,98;1,95;1,98;0;0;
30937;-18,32;-32,07;-18,32;-32,07;2,1;2,09;2,1;2,09;0;0;
30954;-16,61;-34,97;-16,61;-34,97;2,03;2,06;2,03;2,06;0;0;
30972;-17,08;-36,91;-17,08;-36,91;1,77;1,95;1,77;1,95;0;0;
30991;-19,51;-30,72;-19,51;-30,72;1,57;2,22;1,57;2,22;0;0;
31009;-17,69;-34,69;-17,69;-34,69;1,45;2,22;1,45;2,22;0;0;
31028;-13,87;-36;-13,87;-36;1,42;2,02;1,42;2,02;0;0;
31045;-20,81;-36,59;-20,81;-36,59;1,51;1,89;1,51;1,89;0;0;
31063;-14,99;-34,16;-14,99;-34,16;1,6;2,07;1,6;2,07;0;0;
31084;-16,97;-35;-16,97;-35;1,84;1,82;1,84;1,82;0;0;
31100;-14,81;-31,8;-14,81;-31,8;1,92;1,58;1,92;1,58;0;0;
31119;-14,81;-31,8;-14,81;-31,8;2;1,57;2;1,57;0;0;
31137;-13,35;-36,4;-13,35;-36,4;1,93;1,5;1,93;1,5;0;0;
31157;-14,43;-36,59;-14,43;-36,59;2;1,58;2;1,58;0;0;
31176;-13,67;-33,65;-13,67;-33,65;2,09;1,49;2,09;1,49;0;0;
31194;-14,49;-32,69;-14,49;-32,69;2,03;1,6;2,03;1,6;0;0;
31211;-19,01;-33,89;-19,01;-33,89;2,14;1,67;2,14;1,67;0;0;
31230;-17,07;-34,71;-17,07;-34,71;2,22;1,74;2,22;1,74;0;0;
31253;-17,74;-30,22;-17,74;-30,22;1,8;1,6;1,8;1,6;0;0;
31273;-17,39;-38,27;-17,39;-38,27;2,1;1,65;2,1;1,65;0;0;
31289;-17,72;-33,26;-17,72;-33,26;2,12;1,86;2,12;1,86;0;0;
31306;-16,62;-36,14;-16,62;-36,14;2,22;1,77;2,22;1,77;0;0;
31323;-17,15;-35,79;-17,15;-35,79;1,94;1,79;1,94;1,79;0;0;
31342;-17,92;-36,18;-17,92;-36,18;1,98;1,82;1,98;1,82;0;0;
31361;-15,24;-36,22;-15,24;-36,22;1,78;1,76;1,78;1,76;0;0;
31379;-15,24;-36,22;-15,24;-36,22;1,62;1,71;1,62;1,71;0;0;
31397;-13,54;-32,37;-13,54;-32,37;1,45;1,54;1,45;1,54;0;0;
31418;-14,93;-33,92;-14,93;-33,92;1,32;1,36;1,32;1,36;0;0;
31434;-17,3;-35,28;-17,3;-35,28;1,47;1,46;1,47;1,46;0;0;
31451;-18,04;-35,88;-18,04;-35,88;1,36;1,38;1,36;1,38;0;0;
31469;-13,96;-34,62;-13,96;-34,62;1,42;1,4;1,42;1,4;0;0;
31486;-15,42;-32,02;-15,42;-32,02;1,41;1,34;1,41;1,34;0;0;
31504;-17,43;-36,11;-17,43;-36,11;1,45;1,31;1,45;1,31;0;0;
31523;-14,79;-31,07;-14,79;-31,07;1,54;1,33;1,54;1,33;0;0;
31539;-14,79;-31,07;-14,79;-31,07;1,76;1,46;1,76;1,46;0;0;
31555;-16,02;-35,49;-16,02;-35,49;1,69;1,51;1,69;1,51;0;0;
31575;-12,65;-34,86;-12,65;-34,86;1,77;1,5;1,77;1,5;0;0;
31591;-18,48;-34,16;-18,48;-34,16;1,99;1,48;1,99;1,48;0;0;
31608;-16,39;-33,34;-16,39;-33,34;2,05;1,53;2,05;1,53;0;0;
31626;-16,58;-33,9;-16,58;-33,9;1,92;1,44;1,92;1,44;0;0;
31644;-16,87;-33,7;-16,87;-33,7;1,88;1,34;1,88;1,34;0;0;
31662;-16,71;-36,6;-16,71;-36,6;2,01;1,38;2,01;1,38;0;0;
31678;-16,71;-36,6;-16,71;-36,6;1,96;1,37;1,96;1,37;0;0;
31694;-18,78;-32,6;-18,78;-32,6;1,8;1,29;1,8;1,29;0;0;
31710;-13,24;-34,89;-13,24;-34,89;1,83;1,24;1,83;1,24;0;0;
31732;-19,96;-33,65;-19,96;-33,65;1,97;1,24;1,97;1,24;0;0;
31748;-17,24;-35,32;-17,24;-35,32;1,69;1,23;1,69;1,23;0;0;
31764;-18,29;-33,44;-18,29;-33,44;1,55;1,29;1,55;1,29;0;0;
31781;-13,96;-35,92;-13,96;-35,92;1,98;1,36;1,98;1,36;0;0;
31797;-13,96;-35,92;-13,96;-35,92;2,34;1,33;2,34;1,33;0;0;
31814;-14,52;-32,9;-14,52;-32,9;2,25;1,5;2,25;1,5;0;0;
31831;-19,61;-33,96;-19,61;-33,96;2,26;1,33;2,26;1,33;0;0;
31855;-18,13;-33,77;-18,13;-33,77;2,37;1,34;2,37;1,34;1;0;
31872;-16,04;-34,89;-16,04;-34,89;2,23;1,47;2,23;1,47;1;0;
31892;-17,48;-33,99;-17,48;-33,99;1,85;1,51;1,85;1,51;1;0;
31908;-16,39;-30,92;-16,39;-30,92;1,58;1,5;1,58;1,5;1;0;
31926;-16,39;-30,92;-16,39;-30,92;1,59;1,57;1,59;1,57;1;0;
31942;-16,51;-37,66;-16,51;-37,66;1,49;1,67;1,49;1,67;1;0;
31959;-9,97;-30,21;-9,97;-30,21;1,5;2,01;1,5;2,01;1;0;
31975;-9,97;-30,21;-9,97;-30,21;1,62;2,06;1,62;2,06;1;0;
31994;-5,14;-32,43;-5,14;-32,43;4,67;3,64;4,67;3,64;1;0;
32010;13,49;-29,77;13,49;-29,77;8,32;5,3;8,32;5,3;1;0;
32027;-5,62;-46,76;-5,62;-46,76;11,07;7,08;11,07;7,08;1;0;
32047;15,51;-12,32;15,51;-12,32;14,15;8,95;14,15;8,95;1;0;
32065;-21,95;-36;-21,95;-36;17,13;10,67;17,13;10,67;1;0;
32082;-14,39;-40,71;-14,39;-40,71;19,74;11,5;19,74;11,5;1;0;
32100;9,65;-15,83;9,65;-15,83;17,82;10,54;17,82;10,54;1;0;
32118;9,65;-15,83;9,65;-15,83;15,92;10,13;15,92;10,13;1;0;
32137;-41,65;-68,35;-41,65;-68,35;13,11;9,43;13,11;9,43;1;0;
32154;-9,74;-22,25;-9,74;-22,25;12,29;9,19;12,29;9,19;1;0;
32171;-6;-28,89;-6;-28,89;9,51;8,77;9,51;8,77;1;0;
32190;-14,84;-26,29;-14,84;-26,29;8,46;8,74;8,46;8,74;1;0;
32210;-31,68;-26,13;-31,68;-26,13;10,83;11,49;10,83;11,49;0;0;
32227;-27,14;-34,03;-27,14;-34,03;10,92;12,28;10,92;12,28;0;0;
32245;-22,61;-30,63;-22,61;-30,63;11,03;11,54;11,03;11,54;0;0;
32264;-18,41;-32,63;-18,41;-32,63;12,09;12,23;12,09;12,23;0;0;
32283;-20,13;-36,3;-20,13;-36,3;11,1;12,02;11,1;12,02;0;0;
32300;-20,13;-36,3;-20,13;-36,3;9,57;10,32;9,57;10,32;0;0;
32317;-20,13;-36,3;-20,13;-36,3;7,11;8,38;7,11;8,38;0;0;
32336;-20,85;-33,15;-20,85;-33,15;5,67;7,21;5,67;7,21;0;0;
32356;-20,79;-36,6;-20,79;-36,6;3,76;4,72;3,76;4,72;0;0;
32380;-15,38;-35,24;-15,38;-35,24;3,23;3,82;3,23;3,82;0;0;
32398;-14,2;-32,91;-14,2;-32,91;2,9;3,01;2,9;3,01;0;0;
32413;-14,89;-33,05;-14,89;-33,05;2,5;2,17;2,5;2,17;0;0;
32429;-16,71;-31,63;-16,71;-31,63;2,38;1,99;2,38;1,99;0;0;
32445;-17,51;-33,9;-17,51;-33,9;2,34;1,9;2,34;1,9;0;0;
32463;-18,67;-33,7;-18,67;-33,7;2,13;1,7;2,13;1,7;0;0;
32480;-16,84;-33,04;-16,84;-33,04;1,96;1,62;1,96;1,62;0;0;
32495;-16,84;-33,04;-16,84;-33,04;1,94;1,54;1,94;1,54;0;0;
32511;-17,05;-35,24;-17,05;-35,24;1,89;1,75;1,89;1,75;0;0;
32531;-15,87;-36,95;-15,87;-36,95;2,15;1,64;2,15;1,64;0;0;
32549;-17,44;-32,56;-17,44;-32,56;2,08;1,8;2,08;1,8;0;0;
32566;-12,66;-36,24;-12,66;-36,24;1,7;1,86;1,7;1,86;0;0;
32582;-12,66;-36,24;-12,66;-36,24;1,65;1,95;1,65;1,95;0;0;
32600;-17,94;-31,54;-17,94;-31,54;1,61;2,08;1,61;2,08;0;0;
32615;-17,94;-31,54;-17,94;-31,54;1,47;2,16;1,47;2,16;0;0;
32632;-18,55;-31,92;-18,55;-31,92;1,37;1,99;1,37;1,99;0;0;
32650;-18,75;-38,07;-18,75;-38,07;1,47;1,94;1,47;1,94;0;0;
32669;-18,21;-31,56;-18,21;-31,56;1,44;1,98;1,44;1,98;0;0;
32690;-18,97;-33,28;-18,97;-33,28;1,45;1,95;1,45;1,95;0;0;
32706;-16,65;-35,48;-16,65;-35,48;1,44;1,81;1,44;1,81;0;0;
32722;-16,67;-36,45;-16,67;-36,45;1,45;1,72;1,45;1,72;0;0;
32739;-16,67;-36,45;-16,67;-36,45;1,38;1,7;1,38;1,7;0;0;
32756;-13,64;-29,86;-13,64;-29,86;1,43;1,75;1,43;1,75;0;0;
32773;-10,71;-30,9;-10,71;-30,9;1,52;1,65;1,52;1,65;1;0;
32790;-16,52;-36,24;-16,52;-36,24;1,63;1,72;1,63;1,72;1;0;
32807;-16,56;-34,88;-16,56;-34,88;1,63;1,67;1,63;1,67;1;0;
32824;-15,04;-34,48;-15,04;-34,48;1,68;1,58;1,68;1,58;1;0;
32844;-17,92;-35,74;-17,92;-35,74;1,57;1,57;1,57;1,57;1;0;
32861;-13,57;-31,79;-13,57;-31,79;1,66;1,4;1,66;1,4;1;0;
32878;-13,57;-31,79;-13,57;-31,79;1,54;1,33;1,54;1,33;1;0;
32894;-14,03;-34,25;-14,03;-34,25;1,47;1,28;1,47;1,28;1;0;
32910;-17,94;-35,25;-17,94;-35,25;1,59;1,32;1,59;1,32;1;0;
32928;-13,18;-33,73;-13,18;-33,73;1,65;1,21;1,65;1,21;1;0;
32945;-16,26;-35,27;-16,26;-35,27;1,61;1,36;1,61;1,36;1;0;
32962;-20,53;-38,55;-20,53;-38,55;3,34;2,36;3,34;2,36;1;0;
32978;-20,53;-38,55;-20,53;-38,55;5,18;3,27;5,18;3,27;1;0;
33001;-12,83;-33,75;-12,83;-33,75;5,75;3,85;5,75;3,85;1;0;
33017;-12,83;-33,75;-12,83;-33,75;6,37;4,46;6,37;4,46;1;0;
33033;-3,45;-4,64;-3,45;-4,64;8,58;10,89;8,58;10,89;1;0;
33049;-10,98;-28,48;-10,98;-28,48;10,73;14,62;10,73;14,62;1;0;
33067;-19,85;-39,13;-19,85;-39,13;10,6;16,14;10,6;16,14;1;0;
33083;-33,88;-18,47;-33,88;-18,47;11,6;19,12;11,6;19,12;1;0;
33102;-18,22;-21,54;-18,22;-21,54;12,43;19,38;12,43;19,38;1;0;
33121;-21,19;-29,25;-21,19;-29,25;13,43;19,11;13,43;19,11;0;0;
33138;-21,19;-29,25;-21,19;-29,25;11,88;14,2;11,88;14,2;0;0;
33159;-3,86;-26,36;-3,86;-26,36;13,02;13,48;13,02;13,48;0;0;
33179;-10,85;-31,19;-10,85;-31,19;12,51;14,05;12,51;14,05;0;0;
33199;-20,78;-36,36;-20,78;-36,36;16,46;14,1;16,46;14,1;0;0;
33218;-8,95;-24,36;-8,95;-24,36;15,76;13,65;15,76;13,65;0;0;
33235;-17,26;-38,68;-17,26;-38,68;14,02;12,16;14,02;12,16;0;0;
33250;-10,57;-35,2;-10,57;-35,2;11,79;10,12;11,79;10,12;0;0;
33268;-5,71;-26,05;-5,71;-26,05;14,61;8,04;14,61;8,04;0;0;
33288;-17,12;-33,39;-17,12;-33,39;13,51;7,68;13,51;7,68;0;0;
33312;-17,76;-28,33;-17,76;-28,33;9,23;5,52;9,23;5,52;0;0;
33331;-38,75;-49,61;-38,75;-49,61;11,65;6,81;11,65;6,81;0;0;
33348;-21,7;-39,83;-21,7;-39,83;11,39;6,84;11,39;6,84;0;0;
33364;-21,7;-39,83;-21,7;-39,83;7,23;5,55;7,23;5,55;0;0;
33387;-16,73;-26,13;-16,73;-26,13;6,23;5,79;6,23;5,79;0;0;
33405;-14,1;-35,22;-14,1;-35,22;5,54;5,53;5,54;5,53;0;0;
33422;-15,84;-41,58;-15,84;-41,58;5,62;5,43;5,62;5,43;0;0;
33439;-27,78;-37,23;-27,78;-37,23;3,88;4,88;3,88;4,88;0;0;
33460;8,43;-17,53;8,43;-17,53;4,7;5,68;4,7;5,68;0;0;
33476;8,43;-17,53;8,43;-17,53;5,63;6,55;5,63;6,55;0;0;
33494;-15,06;-32,9;-15,06;-32,9;5,78;6,07;5,78;6,07;0;0;
33511;-16,46;-33,63;-16,46;-33,63;5,55;5,76;5,55;5,76;0;0;
33529;-18,09;-32,08;-18,09;-32,08;4,66;4,93;4,66;4,93;0;0;
33549;-21,89;-36,16;-21,89;-36,16;4,34;4,78;4,34;4,78;0;0;
33569;-4,61;-26,91;-4,61;-26,91;3,39;3,63;3,39;3,63;0;0;
33586;-19,12;-32,18;-19,12;-32,18;2,71;2,44;2,71;2,44;0;0;
33605;-9,27;-32,91;-9,27;-32,91;2,67;2,58;2,67;2,58;0;0;
33625;-20,06;-32,8;-20,06;-32,8;2,82;2,44;2,82;2,44;0;0;
33643;-13,79;-34,26;-13,79;-34,26;2,73;2,16;2,73;2,16;0;0;
33661;-15,9;-33,41;-15,9;-33,41;2,58;2,12;2,58;2,12;0;0;
33677;-15,9;-33,41;-15,9;-33,41;2,07;1,75;2,07;1,75;0;0;
33693;-17,18;-34,78;-17,18;-34,78;2,18;1,71;2,18;1,71;0;0;
33710;-16,62;-39,93;-16,62;-39,93;1,9;1,75;1,9;1,75;0;0;
33727;-12,8;-32,82;-12,8;-32,82;2,07;2;2,07;2;0;0;
33744;-19,54;-37,84;-19,54;-37,84;2,15;1,93;2,15;1,93;0;0;
33761;-15,32;-35,59;-15,32;-35,59;2,13;1,87;2,13;1,87;0;0;
33780;-13,62;-35,44;-13,62;-35,44;2,12;2,09;2,12;2,09;0;0;
33798;-13,62;-35,44;-13,62;-35,44;2,16;2,22;2,16;2,22;0;0;
33814;-15,98;-35,87;-15,98;-35,87;2,22;2,15;2,22;2,15;0;0;
33830;-19;-31,3;-19;-31,3;1,82;2;1,82;2;0;0;
33847;-14,74;-36,25;-14,74;-36,25;1,79;1,93;1,79;1,93;0;0;
33863;-16,04;-34,79;-16,04;-34,79;1,76;1,79;1,76;1,79;1;0;
33880;-17,56;-32,56;-17,56;-32,56;1,62;1,54;1,62;1,54;1;0;
33896;-17,56;-32,56;-17,56;-32,56;1,51;1,38;1,51;1,38;1;0;
33943;-39,56;-40,84;-39,56;-40,84;3,45;2,52;3,45;2,52;1;0;
33965;-34,31;-33,36;-34,31;-33,36;7,22;4,37;7,22;4,37;1;0;
33984;5,54;-17,36;5,54;-17,36;10,55;7,36;10,55;7,36;1;0;
34004;-37,75;-43,97;-37,75;-43,97;13,31;9,06;13,31;9,06;1;0;
34022;-35,7;-43,08;-35,7;-43,08;16,22;11,18;16,22;11,18;1;0;
34038;-35,7;-43,08;-35,7;-43,08;19,02;13,15;19,02;13,15;1;0;
34055;-7,29;-27;-7,29;-27;16,95;12,21;16,95;12,21;1;0;
34073;-39,17;-45,82;-39,17;-45,82;18,52;13,72;18,52;13,72;1;0;
34090;-53,13;-35,04;-53,13;-35,04;19,71;12,69;19,71;12,69;1;0;
34107;-18,82;-35,42;-18,82;-35,42;18,29;12,76;18,29;12,76;1;0;
34129;-4,52;-19,08;-4,52;-19,08;15,9;13,18;15,9;13,18;1;0;
34146;-17,61;-30,87;-17,61;-30,87;13,13;11,66;13,13;11,66;1;0;
34163;-14,05;-32,61;-14,05;-32,61;12,53;10,98;12,53;10,98;1;0;
34179;-14,05;-32,61;-14,05;-32,61;7,23;7,74;7,23;7,74;1;0;
34196;-26,19;-57,9;-26,19;-57,9;5,07;7,28;5,07;7,28;1;0;
34216;-14,48;-23,3;-14,48;-23,3;5,39;7,02;5,39;7,02;1;0;
34234;-25,46;-37,92;-25,46;-37,92;4,87;5,27;4,87;5,27;0;0;
34249;-10,06;-23,52;-10,06;-23,52;4,7;5,83;4,7;5,83;0;0;
34268;-15,14;-35,62;-15,14;-35,62;4,53;6,04;4,53;6,04;0;0;
34290;-19,4;-34,44;-19,4;-34,44;4,27;5,47;4,27;5,47;0;0;
34309;-11,97;-33,37;-11,97;-33,37;3,14;4,07;3,14;4,07;0;0;
34326;-21,1;-34,77;-21,1;-34,77;3,04;3,67;3,04;3,67;0;0;
34343;-19,01;-37,24;-19,01;-37,24;2,8;3,52;2,8;3,52;0;0;
34361;-4,61;-17,52;-4,61;-17,52;2,26;2,64;2,26;2,64;0;0;
34378;-4,61;-17,52;-4,61;-17,52;2,08;2,81;2,08;2,81;0;0;
34398;-18,45;-37,4;-18,45;-37,4;2,18;2,88;2,18;2,88;0;0;
34418;-16,91;-30,04;-16,91;-30,04;2,3;3,28;2,3;3,28;0;0;
34441;-14,41;-35,64;-14,41;-35,64;2,73;3,32;2,73;3,32;0;0;
34458;-14,41;-35,64;-14,41;-35,64;3,24;3,31;3,24;3,31;0;0;
34476;-17,36;-34,32;-17,36;-34,32;3,26;2,94;3,26;2,94;0;0;
34495;-15,54;-37,69;-15,54;-37,69;3,09;2,84;3,09;2,84;0;0;
34510;-21,83;-38,41;-21,83;-38,41;3,31;3,06;3,31;3,06;0;0;
34527;-15,35;-32,75;-15,35;-32,75;2,85;2,81;2,85;2,81;1;0;
34544;-14,43;-34,75;-14,43;-34,75;2,27;2,81;2,27;2,81;1;0;
34561;-17,16;-33;-17,16;-33;2,27;2,64;2,27;2,64;1;0;
34579;-17,16;-33;-17,16;-33;2,4;2,59;2,4;2,59;1;0;
34598;-15,5;-29,63;-15,5;-29,63;2,28;2,44;2,28;2,44;1;0;
34616;-22,38;-35;-22,38;-35;2,09;2,27;2,09;2,27;1;0;
34632;-16,79;-32,19;-16,79;-32,19;2,21;1,97;2,21;1,97;1;0;
34649;-13,77;-34,43;-13,77;-34,43;2,06;1,82;2,06;1,82;1;0;
34667;-13,82;-32,54;-13,82;-32,54;3,32;2,31;3,32;2,31;1;0;
34684;-17,85;-35,4;-17,85;-35,4;3,41;2,14;3,41;2,14;1;0;
34702;-14,07;-34,87;-14,07;-34,87;3,6;2,02;3,6;2,02;1;0;
34720;-14,09;-33,57;-14,09;-33,57;3,54;2,04;3,54;2,04;1;0;
34740;-22,02;-38,2;-22,02;-38,2;4,81;2,73;4,81;2,73;1;0;
34761;-17,89;-20,95;-17,89;-20,95;6,81;3,85;6,81;3,85;1;0;
34778;-17,89;-20,95;-17,89;-20,95;9,84;5,32;9,84;5,32;1;0;
34796;-46,89;-33,63;-46,89;-33,63;12,32;6,86;12,32;6,86;1;0;
34814;-12,51;-22,48;-12,51;-22,48;13,99;8,73;13,99;8,73;1;0;
34831;-17,22;-53,35;-17,22;-53,35;15,66;11,51;15,66;11,51;1;0;
34849;4,47;-19,86;4,47;-19,86;15,3;12,86;15,3;12,86;1;0;
34867;-2,99;-27,22;-2,99;-27,22;15,54;13,59;15,54;13,59;1;0;
34883;-0,97;-25,71;-0,97;-25,71;14,21;14,89;14,21;14,89;0;0;
34900;-13,1;-56,59;-13,1;-56,59;15,22;19,97;15,22;19,97;0;0;
34923;-23,07;-20,68;-23,07;-20,68;17,36;20,44;17,36;20,44;0;0;
34945;3,34;-25,57;3,34;-25,57;16,88;20,38;16,88;20,38;0;0;
34965;-16,51;-32,69;-16,51;-32,69;15,67;19,35;15,67;19,35;0;0;
34983;-20,22;-40,94;-20,22;-40,94;13,72;17,4;13,72;17,4;0;0;
35003;17,08;-0,09;17,08;-0,09;14,04;15,64;14,04;15,64;0;0;
35022;-11,12;-34,52;-11,12;-34,52;12,14;11,1;12,14;11,1;0;0;
35040;-1,53;-27,74;-1,53;-27,74;10,2;7,65;10,2;7,65;0;0;
35058;-1,53;-27,74;-1,53;-27,74;9,21;6,42;9,21;6,42;0;0;
35077;-17,68;-35,72;-17,68;-35,72;8,18;5,55;8,18;5,55;0;0;
35095;-15,71;-33,71;-15,71;-33,71;7,54;4,75;7,54;4,75;0;0;
35112;-22,46;-52,6;-22,46;-52,6;4,02;3,22;4,02;3,22;0;0;
35130;-20,05;-35,25;-20,05;-35,25;3,94;3,39;3,94;3,39;0;0;
35149;-12,42;-26,55;-12,42;-26,55;3,88;3,59;3,88;3,59;0;0;
35164;-17,62;-37,91;-17,62;-37,91;3,74;3,19;3,74;3,19;0;0;
35181;-21,18;-38,93;-21,18;-38,93;4,1;3,5;4,1;3,5;0;0;
35198;-21,18;-38,93;-21,18;-38,93;4,09;3,64;4,09;3,64;0;0;
35217;-24,44;-36,11;-24,44;-36,11;3,56;2,92;3,56;2,92;0;0;
35238;-19,93;-40,09;-19,93;-40,09;3,56;2,99;3,56;2,99;0;0;
35257;-12,74;-38,95;-12,74;-38,95;3,2;2,84;3,2;2,84;0;0;
35274;-15,19;-35,06;-15,19;-35,06;2,93;2,58;2,93;2,58;0;0;
35292;-17,21;-36,35;-17,21;-36,35;2,58;2,23;2,58;2,23;0;0;
35308;-20,9;-35,42;-20,9;-35,42;2,27;2,1;2,27;2,1;0;0;
35327;-16,63;-33,41;-16,63;-33,41;2,12;2,03;2,12;2,03;0;0;
35343;-15,64;-29,9;-15,64;-29,9;2,04;1,87;2,04;1,87;0;0;
35360;-19,54;-33,47;-19,54;-33,47;2,15;1,93;2,15;1,93;0;0;
35376;-19,54;-33,47;-19,54;-33,47;2,04;2,14;2,04;2,14;0;0;
35397;-16,62;-34,52;-16,62;-34,52;2,2;2,06;2,2;2,06;0;0;
35414;-16,77;-32,9;-16,77;-32,9;2,05;2,04;2,05;2,04;0;0;
35431;-14,29;-33,27;-14,29;-33,27;1,99;2,02;1,99;2,02;1;0;
35448;-8,41;-29,14;-8,41;-29,14;1,85;1,82;1,85;1,82;1;0;
35466;-15,2;-33,88;-15,2;-33,88;2,45;1,85;2,45;1,85;1;0;
35483;-24,54;-37,94;-24,54;-37,94;2,85;1,91;2,85;1,91;1;0;
35500;-24,54;-37,94;-24,54;-37,94;3,18;2,02;3,18;2,02;1;0;
35518;-24,54;-37,94;-24,54;-37,94;3,67;2,14;3,67;2,14;1;0;
35535;-18,36;-35,43;-18,36;-35,43;3,59;2,33;3,59;2,33;1;0;
35555;-4,27;-22,02;-4,27;-22,02;3,65;2,49;3,65;2,49;1;0;
35573;-21,21;-31,24;-21,21;-31,24;5,17;2,88;5,17;2,88;1;0;
35591;-43,47;-62,23;-43,47;-62,23;6,57;4;6,57;4;1;0;
35608;-15,46;-23,73;-15,46;-23,73;7,38;4,6;7,38;4,6;1;0;
35625;-18,31;-37,73;-18,31;-37,73;12,73;6,85;12,73;6,85;1;0;
35642;-29;-43,76;-29;-43,76;16,34;9,84;16,34;9,84;1;0;
35661;-21,43;-56,35;-21,43;-56,35;20,24;13,83;20,24;13,83;1;0;
35676;-21,43;-56,35;-21,43;-56,35;24,66;18,31;24,66;18,31;1;0;
35695;-11,09;-36,82;-11,09;-36,82;22,62;17,2;22,62;17,2;0;0;
35719;-21,74;-32,06;-21,74;-32,06;18,75;15,23;18,75;15,23;0;0;
35739;-14,24;-28,25;-14,24;-28,25;15,65;14,22;15,65;14,22;0;0;
35758;-14,24;-28,25;-14,24;-28,25;7,97;10,32;7,97;10,32;0;0;
35774;-19,64;-32,38;-19,64;-32,38;6,95;9,84;6,95;9,84;0;0;
35792;-11,71;-33,52;-11,71;-33,52;8,69;11,71;8,69;11,71;0;0;
35808;-19,78;-33,16;-19,78;-33,16;8,56;9,99;8,56;9,99;0;0;
35824;-21,23;-37,72;-21,23;-37,72;7,74;8,94;7,74;8,94;0;0;
35843;-7,48;-36,66;-7,48;-36,66;6,58;6,05;6,58;6,05;0;0;
35863;-17,77;-36,22;-17,77;-36,22;6,41;5,91;6,41;5,91;0;0;
35883;-14,56;-34,52;-14,56;-34,52;5,15;4,97;5,15;4,97;0;0;
35900;-14,76;-29,07;-14,76;-29,07;2,54;2;2,54;2;0;0;
35917;-14,76;-29,07;-14,76;-29,07;2,21;2,04;2,21;2,04;0;0;
35934;-19,97;-37,82;-19,97;-37,82;1,89;1,78;1,89;1,78;0;0;
35950;-17,14;-34,44;-17,14;-34,44;1,52;1,81;1,52;1,81;0;0;
35966;-16,25;-34,7;-16,25;-34,7;1,38;1,82;1,38;1,82;0;0;
35985;-16,23;-31,93;-16,23;-31,93;1,35;1,72;1,35;1,72;0;0;
36003;-13,83;-35,57;-13,83;-35,57;1,5;1,67;1,5;1,67;0;0;
36021;-15,72;-32,54;-15,72;-32,54;1,55;1,55;1,55;1,55;0;0;
36040;-13,84;-34,63;-13,84;-34,63;1,66;1,46;1,66;1,46;0;0;
36058;-13,84;-34,63;-13,84;-34,63;1,69;1,36;1,69;1,36;0;0;
36074;-18,73;-34,9;-18,73;-34,9;1,98;1,53;1,98;1,53;0;0;
36091;-13,79;-34,03;-13,79;-34,03;1,97;1,38;1,97;1,38;0;0;
36108;-18,98;-33,04;-18,98;-33,04;2,24;1,5;2,24;1,5;0;0;
36124;-17,3;-33,91;-17,3;-33,91;2,25;1,45;2,25;1,45;0;0;
36140;-14,34;-33,54;-14,34;-33,54;2,36;1,41;2,36;1,41;0;0;
36158;-14,34;-33,54;-14,34;-33,54;2,3;1,23;2,3;1,23;0;0;
36176;-15,49;-35,25;-15,49;-35,25;2,15;1,35;2,15;1,35;0;0;
36198;-17,05;-34,59;-17,05;-34,59;1,95;1,27;1,95;1,27;0;0;
36215;-15,91;-37,95;-15,91;-37,95;1,85;1,15;1,85;1,15;0;0;
36231;-13,09;-31,75;-13,09;-31,75;1,93;1,16;1,93;1,16;0;0;
36249;-13,49;-33,68;-13,49;-33,68;1,81;1,18;1,81;1,18;0;0;
36266;-19,54;-36,67;-19,54;-36,67;1,87;1,33;1,87;1,33;0;0;
36283;-12,46;-31,76;-12,46;-31,76;2,02;1,49;2,02;1,49;1;0;
36300;-18,11;-34,91;-18,11;-34,91;2,01;1,64;2,01;1,64;1;0;
36320;-13,63;-33,99;-13,63;-33,99;2,04;1,86;2,04;1,86;1;0;
36337;-13,63;-33,99;-13,63;-33,99;2,04;2,04;2,04;2,04;1;0;
36358;-11,39;-33,27;-11,39;-33,27;2,05;2;2,05;2;1;0;
36375;-20,11;-35,27;-20,11;-35,27;1,98;2,1;1,98;2,1;1;0;
36392;-16,19;-37,89;-16,19;-37,89;2,31;2,45;2,31;2,45;1;0;
36409;-21,91;-26,61;-21,91;-26,61;2,81;2,88;2,81;2,88;1;0;
36427;-16,45;-35,08;-16,45;-35,08;7,23;5,22;7,23;5,22;1;0;
36443;-16,45;-35,08;-16,45;-35,08;11,66;7,57;11,66;7,57;1;0;
36460;11,75;-16,69;11,75;-16,69;17,85;11,67;17,85;11,67;1;0;
36481;-6,89;-40,1;-6,89;-40,1;20,29;12,8;20,29;12,8;1;0;
36497;-6,89;-40,1;-6,89;-40,1;20,84;12,4;20,84;12,4;1;0;
36518;39,5;5,67;39,5;5,67;17,86;11,1;17,86;11,1;0;0;
36538;-18,41;-32,57;-18,41;-32,57;16,25;10,48;16,25;10,48;0;0;
36558;14,78;5,45;14,78;5,45;19,44;31,16;19,44;31,16;0;0;
36575;-17,01;-79,55;-17,01;-79,55;17,47;32,29;17,47;32,29;0;0;
36592;-11,24;-36,37;-11,24;-36,37;17,76;34,61;17,76;34,61;0;0;
36609;-21,31;-39,34;-21,31;-39,34;17,01;34,36;17,01;34,36;0;0;
36627;-25,33;-33,15;-25,33;-33,15;14,18;33,66;14,18;33,66;0;0;
36646;-20,68;-44,54;-20,68;-44,54;13,21;26,51;13,21;26,51;0;0;
36666;-19,99;-63,49;-19,99;-63,49;10,12;13,26;10,12;13,26;0;0;
36687;-30,18;-48,61;-30,18;-48,61;8,64;8,93;8,64;8,93;0;0;
36704;-15,69;-32,27;-15,69;-32,27;6,29;7,34;6,29;7,34;0;0;
36721;-15,58;-38,31;-15,58;-38,31;5,08;5,51;5,08;5,51;0;0;
36740;-16,24;-35,32;-16,24;-35,32;4,31;4,96;4,31;4,96;0;0;
36757;-16,24;-35,32;-16,24;-35,32;4,09;4,8;4,09;4,8;0;0;
36774;-15,73;-36,19;-15,73;-36,19;2,76;2,56;2,76;2,56;0;0;
36790;-19,64;-39,16;-19,64;-39,16;2,82;2,23;2,82;2,23;0;0;
36810;-9,3;-26,07;-9,3;-26,07;3,03;2,32;3,03;2,32;0;0;
36827;-15,25;-33,15;-15,25;-33,15;3,28;2,28;3,28;2,28;0;0;
36849;-15,59;-37,68;-15,59;-37,68;3,03;2,18;3,03;2,18;0;0;
36867;-15,21;-33,65;-15,21;-33,65;2,68;1,91;2,68;1,91;0;0;
36885;-17;-34,67;-17;-34,67;2,71;1,92;2,71;1,92;0;0;
36900;-19,62;-31,57;-19,62;-31,57;2,11;1,93;2,11;1,93;0;0;
36917;-19,62;-31,57;-19,62;-31,57;1,74;1,85;1,74;1,85;0;0;
36935;-16,72;-33,9;-16,72;-33,9;1,64;2,03;1,64;2,03;0;0;
36953;-16,87;-34,88;-16,87;-34,88;1,52;1,8;1,52;1,8;0;0;
36970;-18,74;-35,73;-18,74;-35,73;1,48;1,87;1,48;1,87;0;0;
36988;-17,82;-36,15;-17,82;-36,15;1,51;1,66;1,51;1,66;0;0;
37011;-16,9;-36,88;-16,9;-36,88;1,61;1,5;1,61;1,5;0;0;
37027;-15,35;-35,24;-15,35;-35,24;1,56;1,2;1,56;1,2;0;0;
37045;-17;-34,28;-17;-34,28;1,48;1,4;1,48;1,4;0;0;
37063;-19,12;-33,2;-19,12;-33,2;1,53;1,42;1,53;1,42;0;0;
37080;-17,14;-32,63;-17,14;-32,63;1,84;1,6;1,84;1,6;0;0;
37097;-17,14;-32,63;-17,14;-32,63;1,99;1,81;1,99;1,81;0;0;
37114;-14,74;-34,52;-14,74;-34,52;2,06;1,76;2,06;1,76;0;0;
37133;-19,37;-33,28;-19,37;-33,28;2,11;1,78;2,11;1,78;0;0;
37150;-16,19;-35,27;-16,19;-35,27;1,99;1,81;1,99;1,81;0;0;
37170;-20,83;-34,51;-20,83;-34,51;2,18;1,73;2,18;1,73;0;0;
37186;-17,32;-38,38;-17,32;-38,38;1,92;1,64;1,92;1,64;0;0;
37204;-14,29;-32,52;-14,29;-32,52;1,85;1,69;1,85;1,69;1;0;
37222;-18,91;-33,26;-18,91;-33,26;1,98;1,81;1,98;1,81;1;0;
37238;-18,91;-33,26;-18,91;-33,26;2,25;1,74;2,25;1,74;1;0;
37256;-13,58;-30,7;-13,58;-30,7;2,13;1,92;2,13;1,92;1;0;
37275;-16,2;-33,89;-16,2;-33,89;2,16;1,96;2,16;1,96;1;0;
37291;-16,11;-38,2;-16,11;-38,2;2,16;1,96;2,16;1,96;1;0;
37309;-14,62;-35,48;-14,62;-35,48;2,05;1,85;2,05;1,85;1;0;
37328;-17,22;-36,25;-17,22;-36,25;1,74;1,7;1,74;1,7;1;0;
37343;-41,01;-48,59;-41,01;-48,59;2,55;2,02;2,55;2,02;1;0;
37360;-70,23;-52,02;-70,23;-52,02;5,08;3,04;5,08;3,04;1;0;
37375;-70,23;-52,02;-70,23;-52,02;7,53;4,22;7,53;4,22;1;0;
37393;-59,6;-52,15;-59,6;-52,15;11,64;6,52;11,64;6,52;1;0;
37411;26,67;-11,49;26,67;-11,49;14,97;7,98;14,97;7,98;1;0;
37428;-17,06;-35,35;-17,06;-35,35;18,99;10,2;18,99;10,2;1;0;
37444;29,02;-42,66;29,02;-42,66;21,29;12,24;21,29;12,24;1;0;
37463;-23,55;-52,32;-23,55;-52,32;21,13;12,29;21,13;12,29;1;0;
