Time;EMG1;EMG2;EMG3;EMG4;EMG1_F;EMG2_F;EMG3_F;EMG4_F;Note_R;Note_V;;Level 3;Joueur;Score;Notes hit;% Reussite R;Offset EMG1;Onset EMG1;% Reussite V;Offset EMG2;Onset EMG2
13;-12,75;-8,5;-12,75;-8,5;2,1;1,52;2,1;1,52;0;0;;;1;66100;185;100;-16,29749;127,4297;86,86869;-7,272938;42,45286
39;-14,24;-9,88;-14,24;-9,88;1,94;1,45;1,94;1,45;0;0;;;2;64400;184;98,9899;-16,29749;127,4297;86,86869;-7,272938;42,45207
60;-18,33;-9,06;-18,33;-9,06;1,86;1,32;1,86;1,32;0;0;
79;-14,73;-10,24;-14,73;-10,24;1,67;1,35;1,67;1,35;0;0;
104;-12,05;-8,38;-12,05;-8,38;1,54;1,44;1,54;1,44;0;0;
122;-12,05;-8,38;-12,05;-8,38;1,44;1,67;1,44;1,67;0;0;
141;-15,08;-7,38;-15,08;-7,38;1,3;1,77;1,3;1,77;0;0;
164;-18,14;-5,11;-18,14;-5,11;1,45;1,88;1,45;1,88;0;0;
181;-18,14;-5,11;-18,14;-5,11;1,65;1,85;1,65;1,85;0;0;
199;-13,08;-11,22;-13,08;-11,22;1,67;1,89;1,67;1,89;0;0;
221;-17,58;-6,63;-17,58;-6,63;1,8;1,73;1,8;1,73;0;0;
240;-14,1;-7,05;-14,1;-7,05;1,82;1,56;1,82;1,56;0;0;
257;-15,34;-9,74;-15,34;-9,74;2,04;1,53;2,04;1,53;0;0;
275;-17,73;-8,75;-17,73;-8,75;1,96;1,45;1,96;1,45;0;0;
294;-14,41;-7,83;-14,41;-7,83;2,07;1,45;2,07;1,45;0;0;
312;-17,69;-10,18;-17,69;-10,18;2,07;1,49;2,07;1,49;0;0;
331;-17,16;-9,1;-17,16;-9,1;2,05;1,42;2,05;1,42;0;0;
351;-16,03;-5,06;-16,03;-5,06;1,86;1,51;1,86;1,51;0;0;
371;-15,04;-10,81;-15,04;-10,81;1,94;1,57;1,94;1,57;0;0;
388;-14,52;-5,02;-14,52;-5,02;1,84;1,72;1,84;1,72;0;0;
406;-20,31;-7,44;-20,31;-7,44;1,79;1,77;1,79;1,77;0;0;
426;-16,46;-8,75;-16,46;-8,75;1,54;1,77;1,54;1,77;0;0;
444;-14,76;-7,39;-14,76;-7,39;1,69;1,8;1,69;1,8;0;0;
461;-14,76;-7,39;-14,76;-7,39;1,64;1,85;1,64;1,85;0;0;
480;-17,12;-8,83;-17,12;-8,83;1,82;1,8;1,82;1,8;0;0;
500;-19,05;-8,69;-19,05;-8,69;1,94;1,68;1,94;1,68;0;0;
521;-15,67;-8,64;-15,67;-8,64;1,91;1,81;1,91;1,81;0;0;
540;-14,29;-6,76;-14,29;-6,76;1,87;1,81;1,87;1,81;0;0;
562;-16,37;-7,04;-16,37;-7,04;1,72;1,75;1,72;1,75;0;0;
582;-15,01;-4,37;-15,01;-4,37;1,5;1,67;1,5;1,67;0;0;
602;-20,03;-9,17;-20,03;-9,17;1,61;1,94;1,61;1,94;0;0;
622;-18,12;-7,79;-18,12;-7,79;1,57;1,87;1,57;1,87;0;0;
644;-17,04;-9,22;-17,04;-9,22;1,65;1,76;1,65;1,76;0;0;
661;-17,04;-9,22;-17,04;-9,22;1,74;1,89;1,74;1,89;0;0;
680;-20,62;-6,66;-20,62;-6,66;1,97;1,93;1,97;1,93;0;0;
697;-19;-6,84;-19;-6,84;2,11;1,89;2,11;1,89;0;0;
717;-20,46;-8,75;-20,46;-8,75;2,06;1,82;2,06;1,82;0;0;
735;-20,04;-9,73;-20,04;-9,73;2,16;1,73;2,16;1,73;0;0;
753;-16,54;-12,68;-16,54;-12,68;2,2;1,72;2,2;1,72;0;0;
771;-16,92;-8,02;-16,92;-8,02;2,04;1,57;2,04;1,57;0;0;
789;-15,88;-7,13;-15,88;-7,13;1,82;1,62;1,82;1,62;0;0;
807;-18,74;-4,36;-18,74;-4,36;1,98;1,63;1,98;1,63;0;0;
826;-14,68;-8,09;-14,68;-8,09;1,91;1,71;1,91;1,71;0;0;
845;-16,65;-10,72;-16,65;-10,72;1,78;1,61;1,78;1,61;0;0;
865;-15,17;-7,39;-15,17;-7,39;1,9;1,58;1,9;1,58;0;0;
884;-17,81;-5,31;-17,81;-5,31;1,81;1,5;1,81;1,5;0;0;
901;-17,81;-5,31;-17,81;-5,31;1,59;1,48;1,59;1,48;0;0;
918;-19,28;-11,44;-19,28;-11,44;1,75;1,6;1,75;1,6;0;0;
936;-15,19;-7,77;-15,19;-7,77;1,6;1,72;1,6;1,72;0;0;
955;-13,26;-4,35;-13,26;-4,35;1,97;1,82;1,97;1,82;0;0;
973;-19,06;-7,86;-19,06;-7,86;2;1,81;2;1,81;0;0;
991;-16,27;-9,24;-16,27;-9,24;2,2;1,98;2,2;1,98;0;0;
1012;-16,03;-4,39;-16,03;-4,39;2,2;1,98;2,2;1,98;0;0;
1031;-18,73;-10,36;-18,73;-10,36;2,31;1,77;2,31;1,77;0;0;
1051;-12,63;-7,24;-12,63;-7,24;2,4;1,63;2,4;1,63;0;0;
1069;-18,74;-7,99;-18,74;-7,99;2,69;1,69;2,69;1,69;0;0;
1089;-16,9;-7,06;-16,9;-7,06;2,65;1,67;2,65;1,67;0;0;
1107;-18,32;-8,55;-18,32;-8,55;2,37;1,6;2,37;1,6;0;0;
1127;-20,61;-6,52;-20,61;-6,52;2,5;1,66;2,5;1,66;0;0;
1146;-17,32;-5,32;-17,32;-5,32;2,38;1,61;2,38;1,61;0;0;
1165;-18,18;-8,08;-18,18;-8,08;2,01;1,69;2,01;1,69;0;0;
1185;-14,79;-8,22;-14,79;-8,22;1,65;1,54;1,65;1,54;0;0;
1202;-14,79;-8,22;-14,79;-8,22;1,77;1,46;1,77;1,46;0;0;
1220;-18,48;-6,17;-18,48;-6,17;1,93;1,56;1,93;1,56;0;0;
1239;-16,28;-3,93;-16,28;-3,93;2,16;1,72;2,16;1,72;0;0;
1259;-15,82;-8,08;-15,82;-8,08;2,1;1,66;2,1;1,66;0;0;
1278;-13,79;-4,11;-13,79;-4,11;2,03;1,69;2,03;1,69;0;0;
1298;-15,09;-6,52;-15,09;-6,52;2,06;1,71;2,06;1,71;0;0;
1316;-15,04;-3,38;-15,04;-3,38;1,88;1,78;1,88;1,78;0;0;
1334;-12,27;-4,76;-12,27;-4,76;1,81;1,99;1,81;1,99;0;0;
1352;-13,17;-6,38;-13,17;-6,38;1,84;2;1,84;2;0;0;
1371;-15,33;-8,7;-15,33;-8,7;1,84;1,93;1,84;1,93;0;0;
1389;-13,2;-5,68;-13,2;-5,68;1,79;1,74;1,79;1,74;0;0;
1409;-18,39;-8,45;-18,39;-8,45;1,92;1,73;1,92;1,73;0;0;
1428;-16,37;-7,13;-16,37;-7,13;2,05;1,6;2,05;1,6;0;0;
1447;-17,89;-10,12;-17,89;-10,12;1,96;1,18;1,96;1,18;0;0;
1467;-14,55;-3,11;-14,55;-3,11;1,93;1,32;1,93;1,32;0;0;
1486;-16,97;-6,37;-16,97;-6,37;1,85;1,4;1,85;1,4;0;0;
1505;-23,19;-6,43;-23,19;-6,43;2,08;1,56;2,08;1,56;0;0;
1523;-14,78;-7,3;-14,78;-7,3;2,02;1,45;2,02;1,45;0;0;
1542;-14,78;-7,3;-14,78;-7,3;1,91;1,44;1,91;1,44;0;0;
1561;-15,02;-8,14;-15,02;-8,14;1,95;1,57;1,95;1,57;0;0;
1581;-17,08;-5,32;-17,08;-5,32;1,89;1,47;1,89;1,47;0;0;
1602;-14,86;-13,03;-14,86;-13,03;1,99;1,63;1,99;1,63;0;0;
1622;-18,11;-8,01;-18,11;-8,01;1,75;1,7;1,75;1,7;0;0;
1640;-18,24;-6,69;-18,24;-6,69;1,71;1,73;1,71;1,73;0;0;
1659;-20,59;-11,8;-20,59;-11,8;1,82;1,84;1,82;1,84;0;0;
1677;-14,11;-7,78;-14,11;-7,78;1,93;1,83;1,93;1,83;0;0;
1695;-21,3;-11,72;-21,3;-11,72;2,05;1,77;2,05;1,77;0;0;
1713;-17,95;-7,76;-17,95;-7,76;1,91;1,8;1,91;1,8;0;0;
1733;-20,62;-9,22;-20,62;-9,22;1,8;1,96;1,8;1,96;0;0;
1753;-19,9;-6,88;-19,9;-6,88;1,72;1,85;1,72;1,85;0;0;
1774;-17,96;-9,46;-17,96;-9,46;1,84;1,66;1,84;1,66;0;0;
1794;-11,78;-9,57;-11,78;-9,57;1,9;1,76;1,9;1,76;0;0;
1812;-17,97;-3,36;-17,97;-3,36;1,91;1,7;1,91;1,7;0;0;
1834;-18,06;-7,78;-18,06;-7,78;2,03;1,69;2,03;1,69;0;0;
1852;-14,25;-8,41;-14,25;-8,41;2,14;1,7;2,14;1,7;0;0;
1872;-13,27;-11,71;-13,27;-11,71;2,07;1,76;2,07;1,76;0;0;
1892;-14,49;-8,72;-14,49;-8,72;2,03;1,77;2,03;1,77;0;0;
1911;-17,12;-9,22;-17,12;-9,22;1,9;1,85;1,9;1,85;0;0;
1932;-15,61;-7,41;-15,61;-7,41;1,79;1,84;1,79;1,84;0;0;
1953;-21,08;-8,09;-21,08;-8,09;2,02;1,73;2,02;1,73;0;0;
1972;-14,63;-5,65;-14,63;-5,65;2,02;1,77;2,02;1,77;0;0;
1991;-17,93;-7,11;-17,93;-7,11;1,96;1,53;1,96;1,53;0;0;
2013;-14,22;-8,82;-14,22;-8,82;2,3;1,52;2,3;1,52;0;0;
2034;-14,71;-4,76;-14,71;-4,76;2,5;1,4;2,5;1,4;0;0;
2053;-15,44;-6,29;-15,44;-6,29;2,36;1,48;2,36;1,48;0;0;
2072;-20,99;-9,8;-20,99;-9,8;2,08;1,56;2,08;1,56;0;0;
2092;-18,6;-8,04;-18,6;-8,04;2,07;1,58;2,07;1,58;0;0;
2114;-16,81;-3,2;-16,81;-3,2;1,78;1,77;1,78;1,77;0;0;
2133;-15,64;-8,51;-15,64;-8,51;1,48;1,94;1,48;1,94;0;0;
2154;-16,52;-5,05;-16,52;-5,05;1,48;1,84;1,48;1,84;0;0;
2176;-20,5;-5,17;-20,5;-5,17;1,4;1,73;1,4;1,73;0;0;
2200;-18,97;-10,1;-18,97;-10,1;1,44;1,76;1,44;1,76;0;0;
2221;-12,84;-8,77;-12,84;-8,77;1,55;1,88;1,55;1,88;0;0;
2240;-19,15;-7,85;-19,15;-7,85;1,74;1,67;1,74;1,67;0;0;
2260;-14,95;-8,48;-14,95;-8,48;1,75;1,78;1,75;1,78;0;0;
2280;-15,05;-4,22;-15,05;-4,22;1,87;1,96;1,87;1,96;0;0;
2301;-17,2;-8,57;-17,2;-8,57;1,77;1,92;1,77;1,92;0;0;
2325;-18,9;-6,95;-18,9;-6,95;2,03;1,63;2,03;1,63;0;0;
2349;-15,79;-8,5;-15,79;-8,5;2,32;1,65;2,32;1,65;0;0;
2370;-20,23;-8,13;-20,23;-8,13;2,11;1,68;2,11;1,68;0;0;
2389;-18,6;-7,06;-18,6;-7,06;2,25;1,4;2,25;1,4;0;0;
2408;-14,21;-8,09;-14,21;-8,09;2,24;1,42;2,24;1,42;0;0;
2429;-16,39;-5,33;-16,39;-5,33;2,35;1,55;2,35;1,55;0;0;
2448;-15,29;-5,33;-15,29;-5,33;2,01;1,62;2,01;1,62;0;0;
2469;-20,94;-10,03;-20,94;-10,03;1,85;1,6;1,85;1,6;0;0;
2488;-19,44;-8,64;-19,44;-8,64;1,93;1,65;1,93;1,65;0;0;
2508;-18,43;-7,78;-18,43;-7,78;2,1;1,65;2,1;1,65;0;0;
2531;-14,34;-8,56;-14,34;-8,56;2,07;1,81;2,07;1,81;0;0;
2553;-15,57;-10,7;-15,57;-10,7;2,39;1,85;2,39;1,85;0;0;
2571;-17,54;-7,28;-17,54;-7,28;2,54;1,75;2,54;1,75;0;0;
2589;-16,55;-5,93;-16,55;-5,93;2,49;1,91;2,49;1,91;0;0;
2611;-14,08;-4,37;-14,08;-4,37;2,3;1,84;2,3;1,84;0;0;
2628;-17,6;-8,47;-17,6;-8,47;2,2;1,83;2,2;1,83;0;0;
2649;-17,23;-9,37;-17,23;-9,37;2,05;1,93;2,05;1,93;0;0;
2669;-17,2;-2,28;-17,2;-2,28;1,97;2,12;1,97;2,12;0;0;
2689;-14,93;-9,55;-14,93;-9,55;1,94;2,13;1,94;2,13;0;0;
2709;-16,32;-9,21;-16,32;-9,21;1,92;1,99;1,92;1,99;0;0;
2726;-14,92;-5,33;-14,92;-5,33;1,96;2,04;1,96;2,04;0;0;
2746;-17,93;-7,39;-17,93;-7,39;1,76;2,04;1,76;2,04;0;0;
2767;-19,2;-8,98;-19,2;-8,98;1,87;1,75;1,87;1,75;0;0;
2788;-17,26;-7,78;-17,26;-7,78;1,76;1,45;1,76;1,45;0;0;
2807;-16,27;-10,36;-16,27;-10,36;1,72;1,6;1,72;1,6;0;0;
2825;-19,34;-3,61;-19,34;-3,61;1,74;1,68;1,74;1,68;0;0;
2844;-16,39;-7,39;-16,39;-7,39;1,72;1,8;1,72;1,8;0;0;
2865;-14,92;-6,56;-14,92;-6,56;1,73;1,68;1,73;1,68;0;0;
2884;-16,52;-7,01;-16,52;-7,01;1,49;1,61;1,49;1,61;0;0;
2903;-13,41;-6,09;-13,41;-6,09;1,6;1,56;1,6;1,56;0;0;
2921;-13,41;-6,09;-13,41;-6,09;1,5;1,3;1,5;1,3;0;0;
2940;-19,28;-7,92;-19,28;-7,92;1,32;1,2;1,32;1,2;0;0;
2959;-14,06;-6,15;-14,06;-6,15;1,28;1,22;1,28;1,22;0;0;
2977;-18,83;-8,64;-18,83;-8,64;1,26;1,32;1,26;1,32;0;0;
2996;-20,67;-8,76;-20,67;-8,76;1,35;1,43;1,35;1,43;0;0;
3013;-15,62;-4,33;-15,62;-4,33;1,48;1,56;1,48;1,56;0;0;
3034;-21,24;-4,91;-21,24;-4,91;1,47;1,85;1,47;1,85;0;0;
3054;-16,59;-8,4;-16,59;-8,4;1,46;1,84;1,46;1,84;0;0;
3072;-20,81;-5,82;-20,81;-5,82;1,7;1,85;1,7;1,85;0;0;
3090;-13,56;-7,85;-13,56;-7,85;1,99;1,92;1,99;1,92;0;0;
3108;-16,71;-7,67;-16,71;-7,67;2;1,95;2;1,95;0;0;
3132;-17,99;-6,39;-17,99;-6,39;2;1,62;2;1,62;0;0;
3151;-16,63;-11,44;-16,63;-11,44;2,03;1,63;2,03;1,63;0;0;
3171;-17,44;-5,69;-17,44;-5,69;2,14;1,67;2,14;1,67;0;0;
3189;-16,7;-6,32;-16,7;-6,32;2,02;1,85;2,02;1,85;0;0;
3208;-13,48;-9,37;-13,48;-9,37;1,87;1,83;1,87;1,83;0;0;
3225;-19,52;-8,28;-19,52;-8,28;2,11;2,11;2,11;2,11;0;0;
3243;-16,38;-10,22;-16,38;-10,22;2,04;2,34;2,04;2,34;0;0;
3261;-16,38;-10,22;-16,38;-10,22;1,82;2,47;1,82;2,47;0;0;
3280;-20,32;-10,1;-20,32;-10,1;1,97;2,49;1,97;2,49;0;0;
3299;-17,28;-2,87;-17,28;-2,87;2,05;2,46;2,05;2,46;0;0;
3316;-14,91;-7,96;-14,91;-7,96;1,74;2,49;1,74;2,49;0;0;
3336;-16;-11,09;-16;-11,09;1,77;2,09;1,77;2,09;0;0;
3356;-15,66;-3,96;-15,66;-3,96;1,88;1,97;1,88;1,97;0;0;
3376;-18,73;-7,17;-18,73;-7,17;1,95;1,8;1,95;1,8;0;0;
3393;-18,85;-5,95;-18,85;-5,95;1,88;1,72;1,88;1,72;0;0;
3413;-19,8;-10,54;-19,8;-10,54;1,91;1,53;1,91;1,53;0;0;
3431;-16,65;-7,8;-16,65;-7,8;2,01;1,78;2,01;1,78;0;0;
3457;-14,89;-7,04;-14,89;-7,04;1,83;1,8;1,83;1,8;0;0;
3479;-16,94;-6,73;-16,94;-6,73;1,92;1,82;1,92;1,82;0;0;
3498;-16,25;-8,87;-16,25;-8,87;2;1,96;2;1,96;0;0;
3517;-20,07;-8,42;-20,07;-8,42;1,79;1,87;1,79;1,87;0;0;
3536;-15,16;-8,08;-15,16;-8,08;1,64;1,89;1,64;1,89;0;0;
3559;-14,14;-6,26;-14,14;-6,26;1,85;1,77;1,85;1,77;0;0;
3744;-18,61;-3,92;-18,61;-3,92;1,92;1,9;1,92;1,9;0;0;
3802;-18,53;-8,05;-18,53;-8,05;1,82;1,78;1,82;1,78;0;0;
3836;-15,9;-8,63;-15,9;-8,63;1,74;1,57;1,74;1,57;0;0;
3861;-17,73;-4,35;-17,73;-4,35;1,76;1,67;1,76;1,67;0;0;
3896;-15,45;-6,3;-15,45;-6,3;1,51;1,76;1,51;1,76;0;0;
3920;-16,17;-8,55;-16,17;-8,55;1,56;1,73;1,56;1,73;0;0;
3942;-14,6;-7,4;-14,6;-7,4;1,71;1,45;1,71;1,45;0;0;
3965;-17,02;-7,84;-17,02;-7,84;1,8;1,63;1,8;1,63;0;0;
3991;-19,14;-5,44;-19,14;-5,44;1,91;1,66;1,91;1,66;0;0;
4014;-14,28;-8,39;-14,28;-8,39;2,16;1,83;2,16;1,83;0;0;
4037;-16,15;-5,76;-16,15;-5,76;2,03;1,82;2,03;1,82;0;0;
4163;-17,98;-8,04;-17,98;-8,04;2,08;1,71;2,08;1,71;0;0;
4261;-20,04;-6,04;-20,04;-6,04;2,14;1,48;2,14;1,48;0;0;
4285;-17,07;-7,03;-17,07;-7,03;1,96;1,5;1,96;1,5;0;0;
4308;-15,52;-9,26;-15,52;-9,26;1,95;1,61;1,95;1,61;0;0;
4329;-15,09;-6,92;-15,09;-6,92;1,91;1,72;1,91;1,72;0;0;
4351;-18,79;-8;-18,79;-8;1,94;1,76;1,94;1,76;0;0;
4372;-21,82;-9,74;-21,82;-9,74;1,88;1,84;1,88;1,84;0;0;
4390;-13,9;-5,89;-13,9;-5,89;1,96;1,87;1,96;1,87;0;0;
4410;-16,33;-11,56;-16,33;-11,56;2,1;2,09;2,1;2,09;0;0;
4431;-15,92;-11,8;-15,92;-11,8;2,11;2,13;2,11;2,13;0;0;
4451;-15,95;-10,6;-15,95;-10,6;2,27;2,19;2,27;2,19;0;0;
4469;-17,96;-7,75;-17,96;-7,75;2,29;2,16;2,29;2,16;0;0;
4490;-16,94;-12,31;-16,94;-12,31;2,12;2,07;2,12;2,07;0;0;
4511;-14,96;-5,69;-14,96;-5,69;1,86;2,21;1,86;2,21;0;0;
4530;-14,58;-6,67;-14,58;-6,67;1,72;1,89;1,72;1,89;0;0;
4549;-16,75;-7,91;-16,75;-7,91;1,75;1,93;1,75;1,93;0;0;
4566;-16,75;-7,91;-16,75;-7,91;1,58;2,09;1,58;2,09;0;0;
4583;-19,12;-9,02;-19,12;-9,02;1,55;2,11;1,55;2,11;0;0;
4601;-20,17;-6,62;-20,17;-6,62;1,58;1,86;1,58;1,86;0;0;
4621;-13,95;-6,44;-13,95;-6,44;1,63;1,82;1,63;1,82;0;0;
4639;-13,82;-8,64;-13,82;-8,64;1,75;1,62;1,75;1,62;0;0;
4657;-18,75;-6,87;-18,75;-6,87;1,75;1,43;1,75;1,43;0;0;
4678;-14,77;-8,47;-14,77;-8,47;1,6;1,42;1,6;1,42;0;0;
4697;-15,42;-8,88;-15,42;-8,88;1,81;1,39;1,81;1,39;0;0;
4715;-13,49;-7,26;-13,49;-7,26;1,93;1,6;1,93;1,6;0;0;
4733;-15,54;-10,54;-15,54;-10,54;1,83;1,8;1,83;1,8;0;0;
4752;-21,1;-9,73;-21,1;-9,73;1,82;1,85;1,82;1,85;0;0;
4769;-20,29;-3,2;-20,29;-3,2;2,07;1,75;2,07;1,75;0;0;
4787;-20,29;-3,2;-20,29;-3,2;2,29;1,74;2,29;1,74;0;0;
4806;-19,54;-10,34;-19,54;-10,34;2,09;1,63;2,09;1,63;0;0;
4825;-16,87;-4,47;-16,87;-4,47;2,24;1,59;2,24;1,59;0;0;
4848;-14,81;-4,95;-14,81;-4,95;1,92;1,47;1,92;1,47;0;0;
4869;-21,8;-7,98;-21,8;-7,98;1,72;1,5;1,72;1,5;0;0;
4892;-16,69;-12,45;-16,69;-12,45;1,78;1,56;1,78;1,56;0;0;
4912;-14,14;-5,71;-14,14;-5,71;1,97;1,58;1,97;1,58;0;0;
4933;-18,49;-6,06;-18,49;-6,06;1,72;1,38;1,72;1,38;0;0;
4954;-17,01;-10,07;-17,01;-10,07;1,92;1,39;1,92;1,39;0;0;
4973;-18,01;-9,73;-18,01;-9,73;2,02;1,34;2,02;1,34;0;0;
4994;-20,92;-6,07;-20,92;-6,07;2,01;1,35;2,01;1,35;0;0;
5016;-15,25;-9,61;-15,25;-9,61;2,03;1,39;2,03;1,39;0;0;
5037;-14,74;-7,64;-14,74;-7,64;2,12;1,45;2,12;1,45;0;0;
5055;-16,32;-4,73;-16,32;-4,73;2,01;1,66;2,01;1,66;0;0;
5074;-15,49;-4,75;-15,49;-4,75;1,81;1,78;1,81;1,78;0;0;
5094;-19,41;-8,12;-19,41;-8,12;1,69;1,73;1,69;1,73;0;0;
5115;-13,86;-5,7;-13,86;-5,7;1,73;1,63;1,73;1,63;0;0;
5134;-13,59;-6,3;-13,59;-6,3;1,55;1,63;1,55;1,63;0;0;
5156;-13,88;-10,71;-13,88;-10,71;1,6;1,63;1,6;1,63;0;0;
5178;-11,91;-8,36;-11,91;-8,36;1,7;1,66;1,7;1,66;0;0;
5196;-19,51;-8,38;-19,51;-8,38;1,88;1,65;1,88;1,65;0;0;
5214;-14,72;-9,12;-14,72;-9,12;2;1,69;2;1,69;0;0;
5234;-15,35;-7,69;-15,35;-7,69;1,99;1,64;1,99;1,64;0;0;
5253;-16,86;-8,77;-16,86;-8,77;2,2;1,6;2,2;1,6;0;0;
5276;-15,25;-8,68;-15,25;-8,68;2,31;1,67;2,31;1,67;0;0;
5294;-13,8;-6,67;-13,8;-6,67;2,45;1,52;2,45;1,52;0;0;
5313;-18,25;-8,02;-18,25;-8,02;2,36;1,62;2,36;1,62;0;0;
5332;-14,53;-1,81;-14,53;-1,81;2,33;1,84;2,33;1,84;0;0;
5349;-17,24;-12,08;-17,24;-12,08;2,13;2,06;2,13;2,06;0;0;
5371;-17,87;-7,15;-17,87;-7,15;1,73;2;1,73;2;0;0;
5388;-15,42;-9,01;-15,42;-9,01;1,61;1,87;1,61;1,87;0;0;
5405;-15,42;-9,01;-15,42;-9,01;1,41;1,86;1,41;1,86;0;0;
5426;-17,51;-4,32;-17,51;-4,32;1,14;2,05;1,14;2,05;0;0;
5445;-17,9;-11;-17,9;-11;1,29;1,95;1,29;1,95;0;0;
5467;-20,78;-6,57;-20,78;-6,57;1,61;1,78;1,61;1,78;0;0;
5488;-15,18;-9,14;-15,18;-9,14;1,87;2,05;1,87;2,05;0;1;
5510;-17,05;-6,15;-17,05;-6,15;1,84;2,04;1,84;2,04;0;1;
5529;-16,2;-9,39;-16,2;-9,39;1,83;1,81;1,83;1,81;0;1;
5554;-19,08;-5,83;-19,08;-5,83;1,94;1,83;1,94;1,83;0;1;
5574;-10,43;-238,03;-10,43;-238,03;3,69;17,73;3,69;17,73;0;1;
5597;17,36;-79,29;17,36;-79,29;5,22;41,85;5,22;41,85;0;1;
5623;-2,67;-105,91;-2,67;-105,91;8,01;71,89;8,01;71,89;0;0;
5646;2,89;89,39;2,89;89,39;9,48;85,24;9,48;85,24;0;0;
5672;-6,89;235,95;-6,89;235,95;11,63;103,68;11,63;103,68;0;0;
5695;-30,34;57,89;-30,34;57,89;11,69;121,81;11,69;121,81;0;0;
5713;-15,52;-14,37;-15,52;-14,37;11,62;109,01;11,62;109,01;0;0;
5731;-5,49;349,59;-5,49;349,59;10,48;101,36;10,48;101,36;0;0;
5753;-12,75;-24,01;-12,75;-24,01;9,16;94,07;9,16;94,07;0;0;
5773;-19,4;-73,13;-19,4;-73,13;8,6;95,12;8,6;95,12;0;0;
5794;-18,98;14,52;-18,98;14,52;7,4;82,35;7,4;82,35;0;0;
5817;-21,68;-51,09;-21,68;-51,09;6,82;76,83;6,82;76,83;0;0;
5835;-6,9;-2,01;-6,9;-2,01;6,66;72,39;6,66;72,39;0;0;
5853;-19,1;8,38;-19,1;8,38;5,21;54,18;5,21;54,18;0;0;
5873;-14,54;-128,54;-14,54;-128,54;4,31;49,41;4,31;49,41;0;0;
5893;-18,11;-72,06;-18,11;-72,06;3,79;48,62;3,79;48,62;0;0;
5911;-22,27;50,12;-22,27;50,12;3,1;51,56;3,1;51,56;0;0;
5931;-18,99;5,6;-18,99;5,6;2,98;46,16;2,98;46,16;0;0;
5951;-19,78;-9,32;-19,78;-9,32;2,34;42,78;2,34;42,78;0;0;
5970;-15,88;-14,69;-15,88;-14,69;2,2;38,98;2,2;38,98;0;0;
5990;-15,99;-18,71;-15,99;-18,71;2,07;27,88;2,07;27,88;0;0;
6009;-13,5;-50,31;-13,5;-50,31;2,28;28,46;2,28;28,46;0;0;
6029;-21,22;-36,48;-21,22;-36,48;2,5;25,7;2,5;25,7;0;0;
6050;-17,88;2,35;-17,88;2,35;2,28;25,73;2,28;25,73;0;0;
6070;-16,73;-1,22;-16,73;-1,22;2,38;28,11;2,38;28,11;0;0;
6090;-14,87;-15,77;-14,87;-15,77;2,31;28,46;2,31;28,46;0;0;
6110;-14,8;-52,74;-14,8;-52,74;2,11;26,16;2,11;26,16;0;0;
6128;-15,53;23,88;-15,53;23,88;2,13;24,82;2,13;24,82;0;0;
6146;-15,53;23,88;-15,53;23,88;2,33;24,6;2,33;24,6;0;0;
6164;-10,59;-7,28;-10,59;-7,28;2,28;20,36;2,28;20,36;0;0;
6183;-19,05;-41,24;-19,05;-41,24;2,46;16,69;2,46;16,69;0;0;
6204;-18,8;-17,19;-18,8;-17,19;2,71;19,73;2,71;19,73;0;0;
6223;-18,99;77,97;-18,99;77,97;2,52;23,49;2,52;23,49;0;0;
6243;-16,97;-11,48;-16,97;-11,48;2,32;22,65;2,32;22,65;0;0;
6261;-22,5;-4,37;-22,5;-4,37;2,43;20,12;2,43;20,12;0;0;
6282;-18,9;-3,03;-18,9;-3,03;2,38;19,09;2,38;19,09;0;0;
6300;-22,8;-7,85;-22,8;-7,85;2,49;14,78;2,49;14,78;0;0;
6319;-17,13;-7,02;-17,13;-7,02;2,74;13,91;2,74;13,91;0;0;
6338;-18,15;-11,44;-18,15;-11,44;2,85;6,91;2,85;6,91;0;0;
6358;-15,88;-13,02;-15,88;-13,02;2,79;3,48;2,79;3,48;0;0;
6378;-19,84;-3,13;-19,84;-3,13;2,37;7,07;2,37;7,07;0;0;
6397;-14,15;-11,58;-14,15;-11,58;2,24;7,84;2,24;7,84;0;0;
6416;-16,54;-2,64;-16,54;-2,64;1,86;7,16;1,86;7,16;0;0;
6435;-12,45;-8,47;-12,45;-8,47;1,65;8,31;1,65;8,31;0;0;
6453;-18,36;-6,65;-18,36;-6,65;1,58;8,15;1,58;8,15;0;0;
6471;-19,29;-10,73;-19,29;-10,73;1,69;6,89;1,69;6,89;0;0;
6490;-20,71;-4,88;-20,71;-4,88;1,63;5,6;1,63;5,6;0;0;
6511;-14,35;2,96;-14,35;2,96;1,62;7,76;1,62;7,76;0;0;
6530;-17,4;-24,55;-17,4;-24,55;1,71;8,2;1,71;8,2;0;0;
6553;-15,8;-8,03;-15,8;-8,03;1,74;8,42;1,74;8,42;0;0;
6571;-22,95;-14,65;-22,95;-14,65;1,84;8,46;1,84;8,46;0;0;
6592;-19,13;-14,2;-19,13;-14,2;1,88;7,88;1,88;7,88;0;0;
6611;-18,51;-7,42;-18,51;-7,42;2;6,06;2;6,06;0;0;
6629;-19,23;-2,2;-19,23;-2,2;2,02;6,23;2,02;6,23;0;0;
6649;-20,78;-4,62;-20,78;-4,62;1,9;4,16;1,9;4,16;0;0;
6668;-17,62;-6,06;-17,62;-6,06;2,05;4;2,05;4;0;0;
6696;-20,01;-6,76;-20,01;-6,76;1,87;3,95;1,87;3,95;0;0;
6716;-14,56;-6,68;-14,56;-6,68;1,7;3,43;1,7;3,43;0;0;
6736;-16,63;-7,43;-16,63;-7,43;1,54;3,05;1,54;3,05;0;0;
6754;-15,82;-5,2;-15,82;-5,2;1,66;1,88;1,66;1,88;0;0;
6772;-17,81;9,26;-17,81;9,26;1,53;2,54;1,53;2,54;0;0;
6791;-19,07;-9,23;-19,07;-9,23;1,49;2,73;1,49;2,73;0;0;
6809;-18,8;-6,47;-18,8;-6,47;1,61;3,72;1,61;3,72;0;0;
6826;-18,8;-6,47;-18,8;-6,47;1,76;4,81;1,76;4,81;0;0;
6845;-16,56;-6,26;-16,56;-6,26;1,91;4,9;1,91;4,9;0;0;
6863;-15,4;-6,59;-15,4;-6,59;1,96;4,96;1,96;4,96;0;0;
6883;-19,77;-9,07;-19,77;-9,07;2,33;4,84;2,33;4,84;0;0;
6901;-15,15;-3,18;-15,15;-3,18;2,35;5,37;2,35;5,37;0;0;
6920;-17,08;-6,46;-17,08;-6,46;2,15;5,2;2,15;5,2;0;0;
6939;-19,52;-4,72;-19,52;-4,72;2,14;4,28;2,14;4,28;0;0;
6958;-13,83;-9,36;-13,83;-9,36;2,09;4,67;2,09;4,67;0;0;
6977;-17,22;5,78;-17,22;5,78;1,97;5,19;1,97;5,19;0;0;
6995;-17,94;-12,08;-17,94;-12,08;1,77;5;1,77;5;0;0;
7014;-16,31;-6,12;-16,31;-6,12;2,04;4,52;2,04;4,52;0;0;
7034;-15,57;-10,18;-15,57;-10,18;1,97;3,36;1,97;3,36;0;0;
7051;-15,33;-6,33;-15,33;-6,33;1,9;3,52;1,9;3,52;0;0;
7073;-16,23;-2,14;-16,23;-2,14;2,29;3,61;2,29;3,61;0;0;
7092;-15,9;-3,74;-15,9;-3,74;2,13;2,73;2,13;2,73;0;0;
7111;-15,73;-6,8;-15,73;-6,8;2,05;2,54;2,05;2,54;0;0;
7130;-16,31;-9,12;-16,31;-9,12;2,55;2,45;2,55;2,45;0;0;
7151;-19,09;7,53;-19,09;7,53;2,56;3,13;2,56;3,13;0;0;
7171;-15,53;-9,46;-15,53;-9,46;2,68;2,76;2,68;2,76;0;0;
7189;-16,88;-7,03;-16,88;-7,03;2,42;2,17;2,42;2,17;0;0;
7208;-15,67;-7,93;-15,67;-7,93;2,69;2,14;2,69;2,14;0;0;
7227;-15,67;-7,93;-15,67;-7,93;2,01;2,14;2,01;2,14;0;0;
7244;-15,55;-6,88;-15,55;-6,88;2,13;2,73;2,13;2,73;0;0;
7262;-17,85;-10,06;-17,85;-10,06;1,94;2,09;1,94;2,09;0;0;
7280;-14,54;-8,76;-14,54;-8,76;1,76;2,03;1,76;2,03;0;0;
7298;-17,67;-8,41;-17,67;-8,41;1,93;2,02;1,93;2,02;0;0;
7315;-15,39;-7,47;-15,39;-7,47;1,7;1,96;1,7;1,96;0;0;
7335;-13,46;-6,36;-13,46;-6,36;1,84;1,3;1,84;1,3;0;0;
7355;-15,76;-4,55;-15,76;-4,55;1,7;1,49;1,7;1,49;0;0;
7373;-14,78;14,99;-14,78;14,99;1,87;2,11;1,87;2,11;0;0;
7391;-11,67;-8,18;-11,67;-8,18;1,85;2,91;1,85;2,91;0;0;
7410;-15,12;-6,41;-15,12;-6,41;1,91;2,91;1,91;2,91;0;0;
7428;-17,5;-10,71;-17,5;-10,71;2,06;3,2;2,06;3,2;0;0;
7446;-17,5;-10,71;-17,5;-10,71;2,12;3,26;2,12;3,26;0;0;
7463;-16,27;-5,84;-16,27;-5,84;2,13;3,28;2,13;3,28;0;0;
7482;-14,85;-10,53;-14,85;-10,53;1,85;2,51;1,85;2,51;0;0;
7502;-16,76;-7,06;-16,76;-7,06;1,74;1,96;1,74;1,96;0;0;
7524;-19,32;-6,68;-19,32;-6,68;1,61;1,9;1,61;1,9;0;0;
7544;-17,69;-9,49;-17,69;-9,49;1,53;1,77;1,53;1,77;0;0;
7566;-16,31;-22,78;-16,31;-22,78;1,39;3,09;1,39;3,09;0;0;
7586;-15,04;-8,89;-15,04;-8,89;1,54;3,41;1,54;3,41;0;0;
7604;-14,24;-4;-14,24;-4;1,76;3,35;1,76;3,35;0;0;
7623;-16,34;-8,57;-16,34;-8,57;1,74;3,44;1,74;3,44;0;0;
7642;-14,69;-7,9;-14,69;-7,9;1,72;3,39;1,72;3,39;0;0;
7662;-15,43;-8,71;-15,43;-8,71;1,78;2,51;1,78;2,51;0;0;
7681;-22,39;-9,73;-22,39;-9,73;2,06;1,44;2,06;1,44;0;0;
7699;-17,52;-8,24;-17,52;-8,24;1,97;1,72;1,97;1,72;0;0;
7718;-17,26;-5,04;-17,26;-5,04;1,98;1,95;1,98;1,95;0;0;
7737;-17,5;-11,72;-17,5;-11,72;1,98;2,23;1,98;2,23;0;0;
7758;-16,99;-8,52;-16,99;-8,52;2,15;3,64;2,15;3,64;0;0;
7775;-18,32;-10,31;-18,32;-10,31;2,29;3,79;2,29;3,79;0;0;
7795;-13,37;2,74;-13,37;2,74;1,99;3,96;1,99;3,96;0;0;
7814;-18,1;-14,5;-18,1;-14,5;2,08;4,02;2,08;4,02;0;0;
7836;-11,73;-53,43;-11,73;-53,43;2,23;7,97;2,23;7,97;0;0;
7855;-10,67;-15,44;-10,67;-15,44;2,71;14,47;2,71;14,47;0;0;
7877;-22,68;-193,99;-22,68;-193,99;3,6;23,44;3,6;23,44;0;0;
7896;-19,34;-60,21;-19,34;-60,21;5,27;38,69;5,27;38,69;0;1;
7915;-6,83;367,51;-6,83;367,51;7,65;56,71;7,65;56,71;0;0;
7936;-38,58;120,37;-38,58;120,37;10,29;91,53;10,29;91,53;0;0;
7960;-12,84;-54,54;-12,84;-54,54;11;100,77;11;100,77;0;0;
7978;-21,29;301,66;-21,29;301,66;10,56;111,8;10,56;111,8;0;0;
7997;-10,36;82,86;-10,36;82,86;10,49;114,12;10,49;114,12;0;0;
8019;-14,62;-42,52;-14,62;-42,52;9,69;111,43;9,69;111,43;0;0;
8041;-33,44;59;-33,44;59;7,94;109,28;7,94;109,28;0;0;
8059;-24,15;-8,66;-24,15;-8,66;6,45;83,61;6,45;83,61;0;0;
8079;-12,7;64,46;-12,7;64,46;5,94;76,11;5,94;76,11;0;0;
8097;-18,22;39,52;-18,22;39,52;5,37;70,31;5,37;70,31;0;0;
8115;-21,78;28,61;-21,78;28,61;4,84;55,99;4,84;55,99;0;0;
8133;-14,81;25,93;-14,81;25,93;5,14;48,14;5,14;48,14;0;0;
8153;-15,54;-10,78;-15,54;-10,78;4,41;51,28;4,41;51,28;0;0;
8172;-10,58;-47,05;-10,58;-47,05;4,33;61,41;4,33;61,41;0;0;
8190;-18,23;-31,01;-18,23;-31,01;4,09;57;4,09;57;0;0;
8209;-13,6;19,12;-13,6;19,12;3,51;53,92;3,51;53,92;0;0;
8228;-20,61;116,11;-20,61;116,11;2,75;53,93;2,75;53,93;0;0;
8247;-20,61;116,11;-20,61;116,11;2,42;57,07;2,42;57,07;0;0;
8265;-18,93;-19,76;-18,93;-19,76;2,13;38,82;2,13;38,82;0;0;
8285;13,89;20,46;13,89;20,46;4,39;33,01;4,39;33,01;0;0;
8304;-24,32;-57,53;-24,32;-57,53;5,8;34,83;5,8;34,83;0;0;
8324;-26,46;12,28;-26,46;12,28;5,81;39,69;5,81;39,69;0;0;
8342;-15,92;-3,99;-15,92;-3,99;5,96;32,89;5,96;32,89;0;0;
8363;-13,21;-6,73;-13,21;-6,73;6,02;27,77;6,02;27,77;0;0;
8381;-15,87;-88,03;-15,87;-88,03;6,03;31,21;6,03;31,21;0;0;
8398;-13,36;-43,09;-13,36;-43,09;2,54;30,26;2,54;30,26;0;0;
8418;-14,96;-30,56;-14,96;-30,56;2,39;26,84;2,39;26,84;0;0;
8438;-14,63;-4,99;-14,63;-4,99;2,6;20,08;2,6;20,08;0;0;
8457;-19,33;-6,45;-19,33;-6,45;2,56;19,44;2,56;19,44;0;0;
8475;-15,18;-6,42;-15,18;-6,42;2,41;14,38;2,41;14,38;0;0;
8492;-14,19;-6,03;-14,19;-6,03;2,51;10,39;2,51;10,39;0;0;
8510;-16,9;-16,61;-16,9;-16,61;2,37;6,27;2,37;6,27;0;0;
8529;-19,8;-10,09;-19,8;-10,09;1,96;5,57;1,96;5,57;0;0;
8549;-15,32;10,68;-15,32;10,68;1,77;8,7;1,77;8,7;0;0;
8567;-19,28;-8,92;-19,28;-8,92;1,76;8,86;1,76;8,86;0;0;
8585;-19,28;-8,92;-19,28;-8,92;1,76;8,72;1,76;8,72;0;0;
8606;-17,77;-6,24;-17,77;-6,24;1,61;7,6;1,61;7,6;0;0;
8626;-17,46;-11,74;-17,46;-11,74;1,77;6,34;1,77;6,34;0;0;
8644;-14,04;-2,58;-14,04;-2,58;1,72;4,85;1,72;4,85;1;0;
8666;-18,41;-5,07;-18,41;-5,07;1,81;3,73;1,81;3,73;1;0;
8685;-13,82;3,1;-13,82;3,1;1,81;4,65;1,81;4,65;1;0;
8703;-16,08;-8,8;-16,08;-8,8;1,74;4,75;1,74;4,75;1;0;
8724;-22,07;-6,15;-22,07;-6,15;1,71;4,6;1,71;4,6;1;0;
8744;-16;-7,97;-16;-7,97;1,75;3,93;1,75;3,93;1;0;
8764;61,29;-10,95;61,29;-10,95;25,2;2,93;25,2;2,93;1;0;
8786;484,05;2,36;484,05;2,36;51,75;3,64;51,75;3,64;1;0;
8806;76,44;16,92;76,44;16,92;78,24;3,75;78,24;3,75;1;0;
8825;155,8;-6,99;155,8;-6,99;114,79;5,21;114,79;5,21;1;0;
8844;-37,46;-3,43;-37,46;-3,43;142,57;5,31;142,57;5,31;1;0;
8865;5,14;-13,26;5,14;-13,26;153,49;6,34;153,49;6,34;0;0;
8891;83;-7,8;83;-7,8;160,54;6,57;160,54;6,57;0;0;
8912;26,46;-2,29;26,46;-2,29;152;5,96;152;5,96;0;0;
8933;-43,06;-7,66;-43,06;-7,66;144,46;4,79;144,46;4,79;0;0;
8953;-43,06;-7,66;-43,06;-7,66;126,39;4,17;126,39;4,17;0;0;
8974;-79,48;-6,99;-79,48;-6,99;107,61;3,92;107,61;3,92;0;0;
8994;-47,84;-5,08;-47,84;-5,08;107,23;3,12;107,23;3,12;0;0;
9012;-17,47;-8,57;-17,47;-8,57;79,33;2,66;79,33;2,66;0;0;
9031;143,46;-15,85;143,46;-15,85;67,85;2,45;67,85;2,45;0;0;
9051;-115,16;-12,37;-115,16;-12,37;57,75;5,75;57,75;5,75;0;0;
9072;-39,54;33,58;-39,54;33,58;54,7;8,16;54,7;8,16;0;0;
9090;-73,63;-3,23;-73,63;-3,23;54,47;12,99;54,47;12,99;0;0;
9111;-88,62;-4,5;-88,62;-4,5;50,84;19,64;50,84;19,64;0;0;
9129;-46,09;-49,09;-46,09;-49,09;64,06;22,09;64,06;22,09;0;0;
9148;-17,31;-11,94;-17,31;-11,94;52,49;23,06;52,49;23,06;0;0;
9166;-17,31;-11,94;-17,31;-11,94;46,31;21,95;46,31;21,95;0;0;
9183;-16,46;-46,03;-16,46;-46,03;35,94;22,01;35,94;22,01;0;0;
9201;-19,65;-6,89;-19,65;-6,89;28,99;21,79;28,99;21,79;0;0;
9220;-31,41;6;-31,41;6;24,72;21,76;24,72;21,76;0;0;
9239;10,72;-10,8;10,72;-10,8;19,06;19,09;19,06;19,09;0;0;
9258;-13,81;-22,84;-13,81;-22,84;18,95;19,55;18,95;19,55;0;0;
9278;-20,24;-19,68;-20,24;-19,68;18,74;18,63;18,74;18,63;0;0;
9297;-13,45;16,55;-13,45;16,55;18,73;16,03;18,73;16,03;0;0;
9315;-23,76;-0,94;-23,76;-0,94;12,8;15,01;12,8;15,01;0;0;
9335;-27,76;-8,68;-27,76;-8,68;8,52;11,06;8,52;11,06;0;0;
9358;-11,62;-9,8;-11,62;-9,8;8,17;9,45;8,17;9,45;0;0;
9378;-20,9;-20,83;-20,9;-20,83;8,28;8,52;8,28;8,52;0;0;
9399;-13,12;4,78;-13,12;4,78;8,3;9,99;8,3;9,99;0;0;
9417;-17,25;-11,86;-17,25;-11,86;8,24;8,83;8,24;8,83;0;0;
9438;-16,01;-17,65;-16,01;-17,65;3,27;11,58;3,27;11,58;0;0;
9459;-18,3;-27,94;-18,3;-27,94;2,36;15,29;2,36;15,29;0;0;
9476;-18,21;-19,31;-18,21;-19,31;2,19;16,52;2,19;16,52;0;0;
9498;-15,13;-14,74;-15,13;-14,74;1,93;17,53;1,93;17,53;0;0;
9515;-16,65;-14,65;-16,65;-14,65;1,89;14,25;1,89;14,25;0;0;
9535;-14,37;6,57;-14,37;6,57;2;13,27;2;13,27;0;0;
9556;-17,52;-13,13;-17,52;-13,13;2,06;15,09;2,06;15,09;0;0;
9576;-17,35;-8,48;-17,35;-8,48;1,99;11,59;1,99;11,59;0;0;
9594;-19,65;-7,48;-19,65;-7,48;2,21;10,97;2,21;10,97;0;0;
9613;-19,95;-11,92;-19,95;-11,92;2,22;11,44;2,22;11,44;0;0;
9632;-18,46;24,26;-18,46;24,26;2,07;12,52;2,07;12,52;0;0;
9651;-12,77;-17,09;-12,77;-17,09;2,02;10,03;2,02;10,03;0;0;
9675;-11,96;-2,89;-11,96;-2,89;2,03;10;2,03;10;0;0;
9695;-13,6;-9,59;-13,6;-9,59;1,99;10,89;1,99;10,89;0;0;
9714;-13,41;-8,86;-13,41;-8,86;1,68;8,83;1,68;8,83;0;0;
9733;-22,19;-7,77;-22,19;-7,77;1,99;7,34;1,99;7,34;0;0;
9754;-12,97;-7,06;-12,97;-7,06;2,39;5,45;2,39;5,45;0;0;
9779;-12,07;-5,35;-12,07;-5,35;2,49;3,9;2,49;3,9;0;0;
9797;-50,16;-7,19;-50,16;-7,19;10,14;2,7;10,14;2,7;0;0;
9815;104,16;-0,44;104,16;-0,44;26,98;2,3;26,98;2,3;1;0;
9835;-34,35;-11,46;-34,35;-11,46;54,09;2,26;54,09;2,26;1;0;
9852;-56,15;-16,22;-56,15;-16,22;90,09;3,11;90,09;3,11;1;0;
9874;22,69;-9,96;22,69;-9,96;115,64;4,21;115,64;4,21;1;0;
9895;-102,43;-16,57;-102,43;-16,57;150,26;4,72;150,26;4,72;1;0;
9917;-208,52;-10,23;-208,52;-10,23;173,97;5,07;173,97;5,07;0;0;
9938;20,43;1,47;20,43;1,47;168,46;5,32;168,46;5,32;0;0;
9959;-160,49;-9,03;-160,49;-9,03;166,59;5,33;166,59;5,33;0;0;
9979;87,63;-9,24;87,63;-9,24;176,25;4,28;176,25;4,28;0;0;
9997;-31,12;6,96;-31,12;6,96;154,32;4,26;154,32;4,26;0;0;
10016;328,87;-16,41;328,87;-16,41;153,8;3,74;153,8;3,74;0;0;
10035;-57,04;-8,08;-57,04;-8,08;153,2;3,55;153,2;3,55;0;0;
10055;-465,16;-14,24;-465,16;-14,24;157,17;3,78;157,17;3,78;0;0;
10075;-1,81;-4,49;-1,81;-4,49;144,9;4,12;144,9;4,12;0;0;
10096;31,64;-9,86;31,64;-9,86;132,31;4,16;132,31;4,16;0;0;
10117;139,27;1,68;139,27;1,68;129,72;4,12;129,72;4,12;0;0;
10137;-22,35;-9,34;-22,35;-9,34;104,99;3,79;104,99;3,79;0;0;
10156;-49,07;-7,48;-49,07;-7,48;81;3,45;81;3,45;0;0;
10175;-22,61;-12,31;-22,61;-12,31;58,62;2,65;58,62;2,65;0;0;
10193;-22,61;-12,31;-22,61;-12,31;43,25;2,42;43,25;2,42;0;0;
10211;-14,29;-10,4;-14,29;-10,4;31,57;4,64;31,57;4,64;0;0;
10231;-7,03;46,73;-7,03;46,73;19,22;9,56;19,22;9,56;0;0;
10252;-25,18;57,19;-25,18;57,19;24,68;18,1;24,68;18,1;0;0;
10271;-26,83;-11,37;-26,83;-11,37;18,61;21,05;18,61;21,05;0;0;
10290;-14,51;-1,93;-14,51;-1,93;21,57;25,08;21,57;25,08;0;0;
10307;-14,51;-1,93;-14,51;-1,93;27,68;29,01;27,68;29,01;0;0;
10325;-18,27;-37,09;-18,27;-37,09;25,79;28,4;25,79;28,4;0;0;
10343;-17,65;-5,14;-17,65;-5,14;20,81;26,64;20,81;26,64;0;0;
10364;-20,24;-23,54;-20,24;-23,54;16,5;22,03;16,5;22,03;0;0;
10384;-11,39;-1,07;-11,39;-1,07;12,52;20,15;12,52;20,15;0;0;
10403;-17,26;-15,86;-17,26;-15,86;5,92;16,47;5,92;16,47;0;0;
10422;-16,97;-0,01;-16,97;-0,01;2,46;13,28;2,46;13,28;0;0;
10440;-17,94;-10,09;-17,94;-10,09;2,52;11,01;2,52;11,01;0;0;
10460;-14,05;-8,34;-14,05;-8,34;2,25;6,55;2,25;6,55;0;0;
10481;-18,69;31,65;-18,69;31,65;2,03;7,49;2,03;7,49;0;0;
10499;-21,74;-15,45;-21,74;-15,45;2,05;8,46;2,05;8,46;0;0;
10517;-15,38;-12,87;-15,38;-12,87;1,94;8,71;1,94;8,71;0;0;
10536;-18,94;-11,08;-18,94;-11,08;1,9;8,7;1,9;8,7;0;0;
10557;-18,9;-8,11;-18,9;-8,11;2;9,07;2;9,07;0;0;
10575;-17,86;-5,21;-17,86;-5,21;2,02;10;2,02;10;0;0;
10596;-18,4;-34,01;-18,4;-34,01;1,93;8,4;1,93;8,4;0;0;
10614;-16,89;-6,57;-16,89;-6,57;1,69;9,94;1,69;9,94;0;0;
10633;-19,09;-11,79;-19,09;-11,79;1,83;8,56;1,83;8,56;0;0;
10651;-15,62;-14,19;-15,62;-14,19;1,8;9,2;1,8;9,2;0;0;
10669;-11,32;-11,85;-11,32;-11,85;1,65;7,76;1,65;7,76;0;0;
10690;-18,92;-5,17;-18,92;-5,17;1,7;8,24;1,7;8,24;0;0;
10706;-18,92;-5,17;-18,92;-5,17;1,76;6,48;1,76;6,48;0;0;
10724;-20,51;-11,19;-20,51;-11,19;1,7;6,06;1,7;6,06;0;0;
10742;-18,33;-8,02;-18,33;-8,02;1,81;6,03;1,81;6,03;0;0;
10760;-18,28;-13,38;-18,28;-13,38;1,94;4,5;1,94;4,5;0;0;
10779;-13,91;-6,93;-13,91;-6,93;1,99;4,3;1,99;4,3;0;0;
10798;-13,64;-7,41;-13,64;-7,41;2;3,21;2;3,21;0;0;
10818;-16,25;-10,39;-16,25;-10,39;1,97;3,29;1,97;3,29;0;0;
10836;-20,37;-9,88;-20,37;-9,88;1,86;3,11;1,86;3,11;0;0;
10857;-17,55;31,09;-17,55;31,09;2,19;4,73;2,19;4,73;0;0;
10878;-14,01;-9,47;-14,01;-9,47;2,28;5,35;2,28;5,35;0;0;
10895;-18;-15,9;-18;-15,9;2,23;5,56;2,23;5,56;0;0;
10912;-19,42;-5,59;-19,42;-5,59;2,25;5,6;2,25;5,6;0;0;
10928;-13,38;-9,13;-13,38;-9,13;2,56;5,6;2,56;5,6;0;0;
10949;-18,65;-9,73;-18,65;-9,73;2,44;5,71;2,44;5,71;0;0;
10972;-17,42;-2,81;-17,42;-2,81;2,46;2,95;2,46;2,95;0;0;
10993;-16,23;-14,22;-16,23;-14,22;2,44;4,6;2,44;4,6;0;0;
11015;-17,92;-7,58;-17,92;-7,58;2,42;3,78;2,42;3,78;0;0;
11038;-18,39;-16,51;-18,39;-16,51;2,21;3,76;2,21;3,76;0;0;
11060;-12,12;-6,67;-12,12;-6,67;2,17;3,53;2,17;3,53;0;0;
11083;-17,58;-3,68;-17,58;-3,68;2,13;3,45;2,13;3,45;0;0;
11101;-17,82;-6,15;-17,82;-6,15;2,03;2,16;2,03;2,16;0;0;
11121;-21,94;-3,88;-21,94;-3,88;2,09;2,14;2,09;2,14;0;0;
11140;-20,22;-14,11;-20,22;-14,11;2,17;3,7;2,17;3,7;0;0;
11158;-15,12;-9,34;-15,12;-9,34;2,29;4,33;2,29;4,33;0;0;
11179;-14,98;-6,62;-14,98;-6,62;2,13;4,41;2,13;4,41;0;0;
11199;-17,68;-8,4;-17,68;-8,4;1,89;4,41;1,89;4,41;0;0;
11219;-14,95;1,96;-14,95;1,96;1,97;4,54;1,97;4,54;0;0;
11237;-14,56;-10,3;-14,56;-10,3;1,74;3,87;1,74;3,87;0;0;
11256;-14,54;-3,87;-14,54;-3,87;1,56;3,04;1,56;3,04;0;0;
11274;-20,31;-13,79;-20,31;-13,79;1,44;5,38;1,44;5,38;0;0;
11293;-20,8;-3,18;-20,8;-3,18;1,61;5,45;1,61;5,45;0;0;
11310;-14,95;-9,4;-14,95;-9,4;1,67;5,44;1,67;5,44;0;0;
11327;-14,95;-9,4;-14,95;-9,4;1,8;5,08;1,8;5,08;0;0;
11344;-16,63;-8,66;-16,63;-8,66;1,78;4,96;1,78;4,96;0;0;
11364;-18,59;-9,72;-18,59;-9,72;1,97;4,11;1,97;4,11;0;0;
11384;-14,13;-6,77;-14,13;-6,77;2,05;3,85;2,05;3,85;0;0;
11404;-21,9;-9,23;-21,9;-9,23;2,13;3,67;2,13;3,67;0;0;
11421;-18,91;-9,87;-18,91;-9,87;2,2;3,9;2,2;3,9;0;0;
11440;-13,75;-8,37;-13,75;-8,37;2,34;3,86;2,34;3,86;0;0;
11460;-13,16;24,78;-13,16;24,78;2,43;3,43;2,43;3,43;0;0;
11478;-15,7;-7,65;-15,7;-7,65;2,18;3,15;2,18;3,15;0;0;
11499;-15,28;-10,54;-15,28;-10,54;2,17;3,96;2,17;3,96;0;0;
11518;-18,92;-9,38;-18,92;-9,38;1,87;3,83;1,87;3,83;0;0;
11538;-17,35;-6,68;-17,35;-6,68;1,75;3,57;1,75;3,57;0;0;
11556;-16,35;-6,56;-16,35;-6,56;1,55;3,55;1,55;3,55;0;0;
11575;-15,1;-11,15;-15,1;-11,15;1,63;2,59;1,63;2,59;0;0;
11593;-17,99;-7,69;-17,99;-7,69;1,68;2,53;1,68;2,53;0;0;
11612;-17,32;-6,57;-17,32;-6,57;1,7;2,28;1,7;2,28;0;0;
11631;-18,68;-8,54;-18,68;-8,54;1,75;3,29;1,75;3,29;0;0;
11650;-22,02;-9,49;-22,02;-9,49;1,83;3,79;1,83;3,79;0;0;
11669;-11,87;-7,03;-11,87;-7,03;1,89;3,89;1,89;3,89;1;0;
11689;-17,91;-8,89;-17,91;-8,89;1,87;4,23;1,87;4,23;1;0;
11707;-17,91;-8,89;-17,91;-8,89;1,87;5,38;1,87;5,38;1;0;
11725;-18,31;-8,76;-18,31;-8,76;2,01;4,82;2,01;4,82;1;0;
11746;-18,85;-2,68;-18,85;-2,68;2,03;4,37;2,03;4,37;1;0;
11766;-13,17;-7,87;-13,17;-7,87;2,23;4,1;2,23;4,1;1;0;
11783;-17,9;-7,11;-17,9;-7,11;2,17;3,84;2,17;3,84;1;0;
11805;-23,86;-5,44;-23,86;-5,44;2,43;2,72;2,43;2,72;1;0;
11826;-136,01;-17,5;-136,01;-17,5;22,35;2,11;22,35;2,11;1;0;
11846;69,04;-8,79;69,04;-8,79;64,65;3,26;64,65;3,26;1;0;
11868;68,55;-8,3;68,55;-8,3;92,79;3,55;92,79;3,55;1;0;
11890;-131,74;1,64;-131,74;1,64;123,57;4,02;123,57;4,02;1;0;
11912;-305,48;-13,55;-305,48;-13,55;182,98;4,56;182,98;4,56;1;0;
11935;-70,82;-2,23;-70,82;-2,23;212,13;4,53;212,13;4,53;0;0;
11958;-72,53;-7,31;-72,53;-7,31;199,12;4,06;199,12;4,06;0;0;
11981;254,75;-4,11;254,75;-4,11;171,99;3,68;171,99;3,68;0;0;
12005;-14,47;-5,32;-14,47;-5,32;142,05;3,1;142,05;3,1;0;0;
12024;-14,66;-8,61;-14,66;-8,61;103,14;2,45;103,14;2,45;0;0;
12043;-17,64;-1,89;-17,64;-1,89;51,52;4,22;51,52;4,22;0;0;
12061;-14,08;116,59;-14,08;116,59;28,12;11,4;28,12;11,4;0;0;
12078;-19,69;-44,04;-19,69;-44,04;15,99;16,37;15,99;16,37;0;0;
12097;-33,47;-9,87;-33,47;-9,87;19,32;18,52;19,32;18,52;0;0;
12114;-20,64;13,04;-20,64;13,04;22,3;20,94;22,3;20,94;0;0;
12134;-14,36;-14,82;-14,36;-14,82;22,42;21,88;22,42;21,88;0;0;
12154;-16,45;-8,38;-16,45;-8,38;22,4;21,22;22,4;21,22;0;0;
12175;-20,28;-21,02;-20,28;-21,02;26,86;12,31;26,86;12,31;0;0;
12193;-34,79;49,42;-34,79;49,42;28,53;11,73;28,53;11,73;0;0;
12212;-20,76;3,64;-20,76;3,64;36,84;13,45;36,84;13,45;0;0;
12231;-15,39;50,62;-15,39;50,62;34,46;13,7;34,46;13,7;0;0;
12249;-12,18;-18,13;-12,18;-18,13;34,58;13,91;34,58;13,91;0;0;
12267;-12,18;-18,13;-12,18;-18,13;34,42;16,56;34,42;16,56;0;0;
12284;-21,01;-10,22;-21,01;-10,22;21,42;17,16;21,42;17,16;0;0;
12304;-11,32;-7,16;-11,32;-7,16;11,41;14,97;11,41;14,97;0;0;
12324;-16,32;-11,03;-16,32;-11,03;2,5;12,7;2,5;12,7;0;0;
12344;-18,61;-5,88;-18,61;-5,88;2,35;9,6;2,35;9,6;0;0;
12364;-17,05;-4,25;-17,05;-4,25;2,01;7,29;2,01;7,29;0;0;
12383;-15,06;12,18;-15,06;12,18;1,81;6,78;1,81;6,78;0;0;
12405;-16,95;-11,72;-16,95;-11,72;1,78;6,71;1,78;6,71;0;0;
12424;-16,72;-6,25;-16,72;-6,25;1,77;6,89;1,77;6,89;0;0;
12445;-16,21;-8,19;-16,21;-8,19;1,92;6,9;1,92;6,9;0;0;
12463;-16,58;-6,85;-16,58;-6,85;1,78;7,17;1,78;7,17;0;0;
12482;-16,05;-9,93;-16,05;-9,93;1,8;4,84;1,8;4,84;0;0;
12501;-16,58;-12,71;-16,58;-12,71;1,84;3,49;1,84;3,49;0;0;
12520;-16,25;-13,94;-16,25;-13,94;1,87;3,32;1,87;3,32;0;0;
12538;-16,11;-9,73;-16,11;-9,73;1,92;3,8;1,92;3,8;0;0;
12559;-16,51;-9,8;-16,51;-9,8;1,82;3,57;1,82;3,57;0;0;
12581;-16,99;-30,41;-16,99;-30,41;1,97;3,93;1,97;3,93;0;0;
12599;-17,97;-10,36;-17,97;-10,36;1,96;6,57;1,96;6,57;0;0;
12617;-22,04;-6,11;-22,04;-6,11;1,98;5,67;1,98;5,67;0;0;
12636;-14,79;16,44;-14,79;16,44;1,87;5,74;1,87;5,74;0;0;
12654;-17,57;-8,4;-17,57;-8,4;1,75;6,04;1,75;6,04;0;0;
12673;-13,72;-8,96;-13,72;-8,96;1,84;6,04;1,84;6,04;0;0;
12691;-20,63;-4,42;-20,63;-4,42;1,86;4;1,86;4;0;0;
12711;-18,23;-3,98;-18,23;-3,98;1,91;3,69;1,91;3,69;0;0;
12728;-22,03;-6,73;-22,03;-6,73;2,14;3,74;2,14;3,74;0;0;
12748;-18,11;-8,36;-18,11;-8,36;2,35;2,5;2,35;2,5;0;0;
12766;-18,11;-8,36;-18,11;-8,36;2,53;2,25;2,53;2,25;0;0;
12785;-17,45;-9,25;-17,45;-9,25;2,71;2,36;2,71;2,36;0;0;
12804;-13,89;-14,23;-13,89;-14,23;2,58;2,2;2,58;2,2;0;0;
12830;-16,32;-7,42;-16,32;-7,42;2,55;2,45;2,55;2,45;0;0;
12849;-15,06;-8,12;-15,06;-8,12;2,13;2,35;2,13;2,35;0;0;
12871;-15,43;-6,2;-15,43;-6,2;2,04;2,36;2,04;2,36;0;0;
12891;-16,51;-9,45;-16,51;-9,45;2,03;1,86;2,03;1,86;0;0;
12910;-16,99;-21,26;-16,99;-21,26;1,81;2,64;1,81;2,64;0;0;
12928;-18,62;-10,13;-18,62;-10,13;1,83;4,53;1,83;4,53;0;0;
12945;-18,62;-10,13;-18,62;-10,13;1,88;6,86;1,88;6,86;0;0;
12963;-17,58;-7,38;-17,58;-7,38;1,84;6,88;1,84;6,88;0;0;
12984;-16,63;-9,59;-16,63;-9,59;1,91;7;1,91;7;0;0;
13003;-12,2;-8,97;-12,2;-8,97;1,84;7,39;1,84;7,39;0;0;
13024;-16,53;-5,76;-16,53;-5,76;1,95;4,75;1,95;4,75;0;0;
13043;-17,38;3,25;-17,38;3,25;1,83;3,52;1,83;3,52;0;0;
13062;-16,61;-8,11;-16,61;-8,11;1,69;3,39;1,69;3,39;0;0;
13082;-16,26;-10,89;-16,26;-10,89;1,72;3,35;1,72;3,35;0;0;
13100;-17,24;3,28;-17,24;3,28;1,63;3,47;1,63;3,47;0;0;
13118;-18,41;-9,62;-18,41;-9,62;1,7;3,37;1,7;3,37;0;0;
13136;-17,22;-8,71;-17,22;-8,71;1,79;3,59;1,79;3,59;0;0;
13154;-10,55;-11,81;-10,55;-11,81;1,95;2,62;1,95;2,62;0;0;
13173;-16,76;-5,26;-16,76;-5,26;2,1;3,53;2,1;3,53;0;0;
13191;-13,49;-8,4;-13,49;-8,4;1,92;4,55;1,92;4,55;0;0;
13214;-11,46;-8,67;-11,46;-8,67;2,16;4,23;2,16;4,23;0;0;
13236;-16,54;-10,45;-16,54;-10,45;2,22;4,25;2,22;4,25;0;0;
13254;-19,67;-8,03;-19,67;-8,03;2,16;4,13;2,16;4,13;0;0;
13274;-12,25;-9,78;-12,25;-9,78;2,19;4,34;2,19;4,34;0;0;
13294;-14,65;3,9;-14,65;3,9;2,37;4,51;2,37;4,51;0;0;
13313;-18,81;-8,37;-18,81;-8,37;2,37;4,63;2,37;4,63;0;0;
13332;-17,54;-8,67;-17,54;-8,67;2,19;4,49;2,19;4,49;0;0;
13350;-14,73;-9,81;-14,73;-9,81;2,12;4,69;2,12;4,69;0;0;
13372;-19,95;0,82;-19,95;0,82;2,09;4,81;2,09;4,81;0;0;
13388;-19,95;0,82;-19,95;0,82;1,66;4,39;1,66;4,39;0;0;
13408;-19,05;-9,83;-19,05;-9,83;1,64;3,86;1,64;3,86;0;0;
13426;-19,05;-9,83;-19,05;-9,83;1,41;4,9;1,41;4,9;0;0;
13444;-20,43;-7,8;-20,43;-7,8;1,49;4,76;1,49;4,76;0;0;
13463;-17,22;-9,31;-17,22;-9,31;1,46;4,44;1,46;4,44;0;0;
13483;-13,58;-7,06;-13,58;-7,06;1,49;4,31;1,49;4,31;0;0;
13501;-13,8;-7,92;-13,8;-7,92;1,61;4,97;1,61;4,97;0;0;
13520;-17,42;-11,86;-17,42;-11,86;2,03;4,19;2,03;4,19;0;0;
13539;-13,72;-6,92;-13,72;-6,92;2,06;4,23;2,06;4,23;0;0;
13560;-16,2;-7,41;-16,2;-7,41;2,13;4,18;2,13;4,18;0;0;
13578;-14,21;2,52;-14,21;2,52;2,31;4,6;2,31;4,6;1;0;
13597;-15,73;-10,64;-15,73;-10,64;2,45;4,4;2,45;4,4;1;0;
13616;-21,71;-9,09;-21,71;-9,09;2,3;3,12;2,3;3,12;1;0;
13635;-24,33;-15,21;-24,33;-15,21;11,8;2,76;11,8;2,76;1;0;
13654;284,13;-13,96;284,13;-13,96;24,8;3,06;24,8;3,06;1;0;
13676;224,12;-15,95;224,12;-15,95;50,75;4,11;50,75;4,11;1;0;
13695;93,02;-21,9;93,02;-21,9;96,3;4,53;96,3;4,53;1;0;
13714;24,5;-14,29;24,5;-14,29;129,74;4,7;129,74;4,7;1;0;
13734;482,1;-7;482,1;-7;159,51;5,28;159,51;5,28;0;0;
13755;109,75;-9,3;109,75;-9,3;193,79;5,24;193,79;5,24;0;0;
13778;62,75;-0,62;62,75;-0,62;194,97;4,71;194,97;4,71;0;0;
13796;-55,77;-9,83;-55,77;-9,83;187,52;3,53;187,52;3,53;0;0;
13813;-94,71;-7,64;-94,71;-7,64;172,67;3,12;172,67;3,12;0;0;
13834;150,44;-7,27;150,44;-7,27;167,76;3,26;167,76;3,26;0;0;
13852;-44,27;-8,75;-44,27;-8,75;146,47;2,94;146,47;2,94;0;0;
13876;39,86;-6,18;39,86;-6,18;120,32;2,93;120,32;2,93;0;0;
13899;-138,93;-3,6;-138,93;-3,6;106,8;2,67;106,8;2,67;0;0;
13918;-35,85;-6,07;-35,85;-6,07;90,96;2,48;90,96;2,48;0;0;
13937;-24,14;-13,94;-24,14;-13,94;81,31;2,77;81,31;2,77;0;0;
13956;-17,1;-18,91;-17,1;-18,91;49,69;4,59;49,69;4,59;0;0;
13974;-100,02;31,57;-100,02;31,57;39,68;8,36;39,68;8,36;0;0;
13991;-25,85;12,48;-25,85;12,48;25,76;11,42;25,76;11,42;0;0;
14010;-3,53;-7,73;-3,53;-7,73;24,49;14,82;24,49;14,82;0;0;
14028;-28,26;-6,78;-28,26;-6,78;31,53;17,89;31,53;17,89;0;0;
14046;-28,26;-6,78;-28,26;-6,78;22,89;18,34;22,89;18,34;0;0;
14064;-20,24;-5,71;-20,24;-5,71;21,08;14,97;21,08;14,97;0;0;
14084;-17,39;-9,72;-17,39;-9,72;14,03;16,06;14,03;16,06;0;0;
14101;-18,71;-10,97;-18,71;-10,97;11,81;13,87;11,81;13,87;0;0;
14118;-17,2;3,36;-17,2;3,36;5,34;12,17;5,34;12,17;0;0;
14136;-18,27;-9,92;-18,27;-9,92;3;10,3;3;10,3;0;0;
14155;-20,09;28,71;-20,09;28,71;2,51;9,21;2,51;9,21;0;0;
14172;-19,31;-6,3;-19,31;-6,3;2,23;10,31;2,23;10,31;0;0;
14189;-22,34;-8,41;-22,34;-8,41;2,14;8,89;2,14;8,89;0;0;
14209;-16,81;-3,39;-16,81;-3,39;1,94;8,28;1,94;8,28;0;0;
14228;-15,78;-6,41;-15,78;-6,41;1,79;8,35;1,79;8,35;0;0;
14247;-16,9;-6,85;-16,9;-6,85;1,84;7,57;1,84;7,57;0;0;
14266;-16,9;-6,85;-16,9;-6,85;1,81;4,4;1,81;4,4;0;0;
14283;-14,24;-8,99;-14,24;-8,99;1,72;5,11;1,72;5,11;0;0;
14302;-14,58;-10,57;-14,58;-10,57;1,66;5,74;1,66;5,74;0;0;
14320;-20,12;-9,85;-20,12;-9,85;1,59;5,92;1,59;5,92;0;0;
14340;-15,02;-13,42;-15,02;-13,42;1,73;8,83;1,73;8,83;0;0;
14359;-19,53;-4,01;-19,53;-4,01;1,88;8,81;1,88;8,81;0;0;
14381;-15,79;-1,4;-15,79;-1,4;1,97;8,51;1,97;8,51;0;0;
14402;-14,95;-12,83;-14,95;-12,83;2;8,75;2;8,75;0;0;
14420;-16,16;-1,77;-16,16;-1,77;1,83;7,43;1,83;7,43;0;0;
14442;-18,46;22,65;-18,46;22,65;1,95;9,41;1,95;9,41;0;0;
14461;-17,5;-6,8;-17,5;-6,8;2,01;8,48;2,01;8,48;0;0;
14480;-18,13;-7,06;-18,13;-7,06;1,8;9,22;1,8;9,22;0;0;
14497;-18,13;-7,06;-18,13;-7,06;1,91;8,75;1,91;8,75;0;0;
14515;-15,29;4,1;-15,29;4,1;2;10,93;2;10,93;1;0;
14533;-19,72;-14,62;-19,72;-14,62;2,11;10,85;2,11;10,85;1;0;
14553;-16,82;-7,1;-16,82;-7,1;1,96;7,35;1,96;7,35;1;0;
14569;-18,09;-6,88;-18,09;-6,88;1,99;6,67;1,99;6,67;1;0;
14587;-18,09;-6,88;-18,09;-6,88;1,97;5,79;1,97;5,79;1;0;
14605;-84,87;-7,63;-84,87;-7,63;13,86;5,47;13,86;5,47;1;0;
14625;193,81;-1,13;193,81;-1,13;30,15;3,68;30,15;3,68;1;0;
14647;-65,3;-13,91;-65,3;-13,91;48,13;4,08;48,13;4,08;1;0;
14664;217,09;-2,63;217,09;-2,63;84,4;4,72;84,4;4,72;1;0;
14683;-13,59;-8,62;-13,59;-8,62;104,47;5,21;104,47;5,21;1;0;
14704;42,5;-5,72;42,5;-5,72;131,35;4,83;131,35;4,83;1;0;
14726;19,34;-10;19,34;-10;141,67;4,84;141,67;4,84;0;0;
14748;24,1;-9,5;24,1;-9,5;132,61;4,22;132,61;4,22;0;0;
14771;-40,84;-10,97;-40,84;-10,97;143,69;3,63;143,69;3,63;0;0;
14789;-116,25;-7,05;-116,25;-7,05;135,86;3,67;135,86;3,67;0;0;
14808;-14,19;-7,27;-14,19;-7,27;121,05;3,45;121,05;3,45;0;0;
14828;-35,4;-5,34;-35,4;-5,34;100,17;3,5;100,17;3,5;0;0;
14851;-83,36;-8,82;-83,36;-8,82;85,3;2,85;85,3;2,85;0;0;
14872;62,34;-8,28;62,34;-8,28;69,82;2,9;69,82;2,9;0;0;
14891;-10,54;-8,78;-10,54;-8,78;58,69;4,32;58,69;4,32;0;0;
14909;-23,62;6,96;-23,62;6,96;29,89;8,14;29,89;8,14;0;0;
14928;30,53;-5,57;30,53;-5,57;33,79;11,28;33,79;11,28;0;0;
14948;-23,39;9,71;-23,39;9,71;31,63;13,4;31,63;13,4;0;0;
14966;-23,39;9,71;-23,39;9,71;23,49;15,43;23,49;15,43;0;0;
14986;-24,46;-3,65;-24,46;-3,65;17,31;15,4;17,31;15,4;0;0;
15004;-12,35;-8,16;-12,35;-8,16;13,84;17,58;13,84;17,58;0;0;
15023;-20,17;-4,96;-20,17;-4,96;11,45;13,11;11,45;13,11;0;0;
15043;-18,05;-12,32;-18,05;-12,32;7,84;12,02;7,84;12,02;0;0;
15062;-16,45;-9,92;-16,45;-9,92;6,34;12,37;6,34;12,37;0;0;
15086;-16,27;-5,11;-16,27;-5,11;4,62;10,01;4,62;10,01;0;0;
15104;-17,01;-11,7;-17,01;-11,7;2,88;9,08;2,88;9,08;0;0;
15124;-15,72;-11,27;-15,72;-11,27;2,2;6,68;2,2;6,68;0;0;
15145;-16,63;0,31;-16,63;0,31;2,03;6,85;2,03;6,85;0;0;
15163;-16,51;-2,79;-16,51;-2,79;1,75;6,22;1,75;6,22;0;0;
15182;-18,86;-23,31;-18,86;-23,31;1,64;8,35;1,64;8,35;0;0;
15201;-15,47;-12,22;-15,47;-12,22;1,73;9,83;1,73;9,83;0;0;
15221;-16,18;-5,81;-16,18;-5,81;1,55;10,14;1,55;10,14;0;0;
15241;-15,72;-6,24;-15,72;-6,24;1,54;10;1,54;10;0;0;
15259;-16,02;-8;-16,02;-8;1,66;8,25;1,66;8,25;0;0;
15280;-13,28;1,35;-13,28;1,35;1,79;8,18;1,79;8,18;0;0;
15298;-20,05;-10,58;-20,05;-10,58;1,96;7,39;1,96;7,39;0;0;
15315;-15,69;-21,9;-15,69;-21,9;2,23;6,94;2,23;6,94;0;0;
15336;-17,02;-5,69;-17,02;-5,69;2,15;9,66;2,15;9,66;0;0;
15356;-14,79;-9;-14,79;-9;2,29;10,24;2,29;10,24;0;0;
15376;-13,9;-10,51;-13,9;-10,51;2,31;10,89;2,31;10,89;0;0;
15396;-13,49;5,97;-13,49;5,97;2,36;8,35;2,36;8,35;0;0;
15414;-18,21;0,62;-18,21;0,62;2,16;8,85;2,16;8,85;0;0;
15433;-14,7;-0,27;-14,7;-0,27;1,99;10,49;1,99;10,49;0;0;
15451;-15,44;30,93;-15,44;30,93;1,91;10,85;1,91;10,85;0;0;
15470;-16,46;-15,5;-16,46;-15,5;1,79;10,29;1,79;10,29;0;0;
15489;-17,51;-12,18;-17,51;-12,18;1,76;10,37;1,76;10,37;0;0;
15507;-17,51;-12,18;-17,51;-12,18;1,87;10,16;1,87;10,16;0;0;
15526;-15,81;-9,02;-15,81;-9,02;1,77;7,73;1,77;7,73;1;0;
15545;-18,95;-5,68;-18,95;-5,68;1,71;5,17;1,71;5,17;1;0;
15565;-17,32;-7,4;-17,32;-7,4;1,8;3,06;1,8;3,06;1;0;
15582;44,34;-8,77;44,34;-8,77;3,68;2,36;3,68;2,36;1;0;
15604;26,6;-18,84;26,6;-18,84;16,64;2,61;16,64;2,61;1;0;
15623;152,99;-5,58;152,99;-5,58;54,05;4,09;54,05;4,09;1;0;
15641;-16,93;-7,35;-16,93;-7,35;65,52;4,93;65,52;4,93;1;0;
15660;42,98;-1,25;42,98;-1,25;102,92;5,88;102,92;5,88;1;0;
15678;-210,5;-3,19;-210,5;-3,19;129,02;6,13;129,02;6,13;1;0;
15698;-61,17;1,29;-61,17;1,29;145,84;6,35;145,84;6,35;0;0;
15722;36,91;-11,05;36,91;-11,05;152,57;6,31;152,57;6,31;0;0;
15746;44,17;-2,72;44,17;-2,72;165,3;5,96;165,3;5,96;0;0;
15764;-105,66;-5,53;-105,66;-5,53;166,87;5,74;166,87;5,74;0;0;
15785;-0,46;-11,46;-0,46;-11,46;131,87;5,47;131,87;5,47;0;0;
15806;39,03;-5,31;39,03;-5,31;115,92;4,86;115,92;4,86;0;0;
15829;-18,29;-8,63;-18,29;-8,63;90,16;3,8;90,16;3,8;0;0;
15847;-18,29;-8,63;-18,29;-8,63;58,57;2,93;58,57;2,93;0;0;
15871;-37,46;-16,26;-37,46;-16,26;41,75;3,89;41,75;3,89;0;0;
15889;-11,57;-16,62;-11,57;-16,62;33,55;6,62;33,55;6,62;0;0;
15908;-18,74;-8,25;-18,74;-8,25;23,94;8,96;23,94;8,96;0;0;
15929;-38,52;-23,76;-38,52;-23,76;19,33;11,99;19,33;11,99;0;0;
15948;-11,23;11,63;-11,23;11,63;16,39;14,93;16,39;14,93;0;0;
15967;-15,95;1,21;-15,95;1,21;12,3;13,92;12,3;13,92;0;0;
15986;-15,95;1,21;-15,95;1,21;4,69;12,22;4,69;12,22;0;0;
16004;-18,56;-37,77;-18,56;-37,77;3,97;13,24;3,97;13,24;0;0;
16024;-19,34;-17,73;-19,34;-17,73;3,45;11,31;3,45;11,31;0;0;
16044;-17,98;-6,01;-17,98;-6,01;2,38;9,64;2,38;9,64;0;0;
16064;-18,85;-6,23;-18,85;-6,23;2,02;8,52;2,02;8,52;0;0;
16084;-15,56;-10,44;-15,56;-10,44;1,9;8,11;1,9;8,11;0;0;
16105;-18,85;-23,07;-18,85;-23,07;1,93;7,55;1,93;7,55;0;0;
16123;-18,24;-28,46;-18,24;-28,46;1,93;4,96;1,93;4,96;0;0;
16142;-18,97;-12,94;-18,97;-12,94;1,69;5,54;1,69;5,54;0;0;
16162;-15,6;-22,62;-15,6;-22,62;1,85;5,53;1,85;5,53;0;0;
16180;-18,49;-11,28;-18,49;-11,28;1,77;7,66;1,77;7,66;0;0;
16199;-15,89;-8,57;-15,89;-8,57;1,77;8,01;1,77;8,01;0;0;
16218;-18,1;-19,83;-18,1;-19,83;1,82;8,54;1,82;8,54;0;0;
16236;-13,08;-7,85;-13,08;-7,85;2,05;8,35;2,05;8,35;0;0;
16254;-14,1;-14,81;-14,1;-14,81;2,23;7,18;2,23;7,18;0;0;
16273;-14,55;-11,31;-14,55;-11,31;2,3;6,55;2,3;6,55;0;0;
16292;-14,51;-5,58;-14,51;-5,58;2,26;6,13;2,26;6,13;0;0;
16311;-18,72;-10,22;-18,72;-10,22;2,16;6,02;2,16;6,02;0;0;
16330;-16,96;-7,79;-16,96;-7,79;2,02;4,11;2,02;4,11;0;0;
16348;-17,5;-12,75;-17,5;-12,75;1,84;4,9;1,84;4,9;0;0;
16368;-18,58;-9,09;-18,58;-9,09;1,57;5,74;1,57;5,74;0;0;
16388;-17,91;-5,4;-17,91;-5,4;1,48;4,92;1,48;4,92;0;0;
16406;-17,91;-5,4;-17,91;-5,4;1,54;5,11;1,54;5,11;0;0;
16424;-16,01;-6,94;-16,01;-6,94;1,75;4,96;1,75;4,96;0;0;
16443;-20,61;-7,9;-20,61;-7,9;1,82;4,9;1,82;4,9;0;0;
16463;-15,56;-10,27;-15,56;-10,27;1,72;3,62;1,72;3,62;0;0;
16482;-18,04;-4,51;-18,04;-4,51;2,01;3,5;2,01;3,5;0;0;
16499;-11,62;-10,93;-11,62;-10,93;2,06;2,99;2,06;2,99;0;0;
16516;-19,19;-7,33;-19,19;-7,33;2,05;3,03;2,05;3,03;0;0;
16536;-17,72;2,75;-17,72;2,75;1,97;4;1,97;4;0;0;
16557;-16,13;-12,66;-16,13;-12,66;1,84;4,15;1,84;4,15;0;0;
16575;-20,37;-2,77;-20,37;-2,77;1,69;3,35;1,69;3,35;0;0;
16592;-14,42;-5,83;-14,42;-5,83;1,68;5,55;1,68;5,55;0;0;
16612;-19,67;-12,23;-19,67;-12,23;1,91;4,76;1,91;4,76;0;0;
16630;-19,67;-12,23;-19,67;-12,23;2,18;4,1;2,18;4,1;0;0;
16650;-15,52;-10,12;-15,52;-10,12;2,31;4,03;2,31;4,03;0;0;
16668;-20,34;-7,1;-20,34;-7,1;2,22;4,01;2,22;4,01;0;0;
16686;-20,34;-7,1;-20,34;-7,1;2,21;2,87;2,21;2,87;0;0;
16704;-22,01;-3,32;-22,01;-3,32;2,57;2,47;2,57;2,47;0;0;
16722;-15,9;-11,27;-15,9;-11,27;2,56;2,45;2,56;2,45;0;0;
16745;-17,79;-2,54;-17,79;-2,54;2,28;3,38;2,28;3,38;0;0;
16762;-16,18;-3,37;-16,18;-3,37;2,21;4,76;2,21;4,76;0;0;
16779;-17,76;-8,38;-17,76;-8,38;2,34;4,52;2,34;4,52;0;0;
16799;-21,64;-24,47;-21,64;-24,47;2,57;4,38;2,57;4,38;0;0;
16818;-14,17;-10,62;-14,17;-10,62;2,26;4,59;2,26;4,59;0;0;
16838;-17,16;-9,6;-17,16;-9,6;2,33;4,42;2,33;4,42;0;0;
16857;-17,17;-8,03;-17,17;-8,03;2,22;3,29;2,22;3,29;0;0;
16879;-15,46;-11,72;-15,46;-11,72;2,18;2,93;2,18;2,93;0;0;
16897;-19,65;-5,72;-19,65;-5,72;2,16;3,17;2,16;3,17;0;0;
16917;-16,91;-10,47;-16,91;-10,47;1,76;2,65;1,76;2,65;0;0;
16936;-17,98;-7,09;-17,98;-7,09;1,6;2,85;1,6;2,85;0;0;
16956;-15,66;-6,93;-15,66;-6,93;1,55;2,74;1,55;2,74;0;0;
16976;-16,07;-7,64;-16,07;-7,64;1,75;2,05;1,75;2,05;0;0;
16994;-15,48;-5,44;-15,48;-5,44;1,71;2,83;1,71;2,83;0;0;
17012;-19,36;-10,36;-19,36;-10,36;1,82;2,99;1,82;2,99;0;0;
17032;-15,38;-4,73;-15,38;-4,73;2;3,04;2;3,04;0;0;
17049;-17,86;1,13;-17,86;1,13;1,93;4,33;1,93;4,33;0;0;
17067;-17,86;1,13;-17,86;1,13;1,9;5,63;1,9;5,63;0;0;
17088;-19,02;-6,7;-19,02;-6,7;1,94;5,52;1,94;5,52;0;0;
17106;-19,02;-6,7;-19,02;-6,7;1,92;4,46;1,92;4,46;0;0;
17126;-13,09;-16,42;-13,09;-16,42;1,75;4,67;1,75;4,67;0;0;
17144;-15,27;-6,9;-15,27;-6,9;1,73;5,38;1,73;5,38;0;0;
17163;-17,1;-10,46;-17,1;-10,46;1,89;4,1;1,89;4,1;0;0;
17182;-22,15;-10,8;-22,15;-10,8;1,96;4,06;1,96;4,06;0;0;
17201;-15,51;-14,04;-15,51;-14,04;2,04;4,39;2,04;4,39;0;0;
17221;-15,21;-5,13;-15,21;-5,13;2,14;4,29;2,14;4,29;0;0;
17239;-16,67;-2,62;-16,67;-2,62;2,24;3,57;2,24;3,57;0;0;
17259;-16,59;-13,05;-16,59;-13,05;2,05;4,2;2,05;4,2;0;0;
17277;-17,16;-14,04;-17,16;-14,04;2,16;5,11;2,16;5,11;0;0;
17298;-15,21;-9,94;-15,21;-9,94;2,04;4,6;2,04;4,6;0;0;
17317;-18,12;-9,39;-18,12;-9,39;1,91;4,25;1,91;4,25;0;0;
17336;-15,04;-9,45;-15,04;-9,45;2,1;4,25;2,1;4,25;0;0;
17355;-18,61;-3,75;-18,61;-3,75;2,06;4,1;2,06;4,1;0;0;
17373;-15,33;-8,63;-15,33;-8,63;2,13;3,03;2,13;3,03;0;0;
17391;-15,92;-7,71;-15,92;-7,71;2,4;2,33;2,4;2,33;1;0;
17408;-12,95;-7,9;-12,95;-7,9;2,25;2,41;2,25;2,41;1;0;
17425;-12,95;-7,9;-12,95;-7,9;1,87;2,54;1,87;2,54;1;0;
17444;-13,54;-7,06;-13,54;-7,06;2,08;1,99;2,08;1,99;1;0;
17460;-11,67;-7,5;-11,67;-7,5;2;1,94;2;1,94;1;0;
17478;-21,36;-4,32;-21,36;-4,32;2,14;1,89;2,14;1,89;1;0;
17497;-0,49;-9,19;-0,49;-9,19;8,35;2,01;8,35;2,01;1;0;
17515;137,55;-2,24;137,55;-2,24;25,63;2,16;25,63;2,16;1;0;
17533;222,92;-8,5;222,92;-8,5;48,75;3,41;48,75;3,41;1;0;
17552;-112,56;-3,13;-112,56;-3,13;71,17;4;71,17;4;1;0;
17571;-53,43;-9,26;-53,43;-9,26;101,75;4,41;101,75;4,41;1;0;
17590;-37,5;-8,89;-37,5;-8,89;123,76;4,75;123,76;4,75;1;0;
17611;-146,23;-2,76;-146,23;-2,76;131,4;5,21;131,4;5,21;1;0;
17632;84,93;-8,45;84,93;-8,45;147,83;5,06;147,83;5,06;0;0;
17654;-141,29;-9,87;-141,29;-9,87;145,43;4,21;145,43;4,21;0;0;
17674;-78,52;-11,57;-78,52;-11,57;139,6;3,99;139,6;3,99;0;0;
17694;-13,38;-10,53;-13,38;-10,53;107,2;3,54;107,2;3,54;0;0;
17712;-13,38;-10,53;-13,38;-10,53;91,94;3,09;91,94;3,09;0;0;
17731;-16,41;-8,14;-16,41;-8,14;64,88;4,01;64,88;4,01;0;0;
17750;-22,89;20,03;-22,89;20,03;29,79;7,64;29,79;7,64;0;0;
17766;-22,89;20,03;-22,89;20,03;13,34;11,33;13,34;11,33;0;0;
17784;-100,63;-25,8;-100,63;-25,8;8;16,2;8;16,2;0;0;
17804;-5,4;31,53;-5,4;31,53;11,37;19,61;11,37;19,61;0;0;
17824;-17,31;-18,14;-17,31;-18,14;11,1;19,4;11,1;19,4;0;0;
17845;-30,96;12,98;-30,96;12,98;19,09;18,22;19,09;18,22;0;0;
17864;-13,2;-24,23;-13,2;-24,23;20,39;14,85;20,39;14,85;0;0;
17884;-8,95;-2,37;-8,95;-2,37;20,48;11,47;20,48;11,47;0;0;
17901;-8,58;-10,46;-8,58;-10,46;15,76;8,94;15,76;8,94;0;0;
17918;-13,09;-27,26;-13,09;-27,26;14,09;6,85;14,09;6,85;0;0;
17937;-21,17;-11,59;-21,17;-11,59;7,38;7,46;7,38;7,46;0;0;
17955;-18,74;-3,96;-18,74;-3,96;5,59;9,86;5,59;9,86;0;0;
17973;-20,49;-6,66;-20,49;-6,66;4,2;10,48;4,2;10,48;0;0;
17992;-13,73;-13,59;-13,73;-13,59;3,01;9,42;3,01;9,42;0;0;
18011;-15,14;6,31;-15,14;6,31;2,54;9,94;2,54;9,94;0;0;
18031;-18,58;-15,01;-18,58;-15,01;2,35;9,68;2,35;9,68;0;0;
18049;-18,4;-30,37;-18,4;-30,37;2,16;11,8;2,16;11,8;0;0;
18070;-15,69;-12;-15,69;-12;2,25;11,31;2,25;11,31;0;0;
18090;-15,96;-12,06;-15,96;-12,06;2,25;11,06;2,25;11,06;0;0;
18110;-19,95;-3,91;-19,95;-3,91;2,39;11,66;2,39;11,66;0;0;
18128;-17,22;3,85;-17,22;3,85;2,41;9,95;2,41;9,95;0;0;
18148;-19,26;-5,79;-19,26;-5,79;2,15;9,02;2,15;9,02;0;0;
18167;-15;-9,06;-15;-9,06;1,99;6,91;1,99;6,91;0;0;
18184;-15;-9,06;-15;-9,06;2;6,18;2;6,18;0;0;
18202;-14,22;-11,74;-14,22;-11,74;2,07;9,42;2,07;9,42;0;0;
18220;-15,6;-8,77;-15,6;-8,77;2,01;8,58;2,01;8,58;0;0;
18241;-15,4;-5,23;-15,4;-5,23;2,22;7,63;2,22;7,63;0;0;
18258;-17,47;-24,09;-17,47;-24,09;2,18;8;2,18;8;0;0;
18277;-18,31;-8,37;-18,31;-8,37;2,07;8,15;2,07;8,15;0;0;
18297;-18,33;-9,3;-18,33;-9,3;2,11;5,86;2,11;5,86;0;0;
18316;-18,08;-8,6;-18,08;-8,6;1,98;5,91;1,98;5,91;0;0;
18336;-18,78;-7,11;-18,78;-7,11;1,93;6,06;1,93;6,06;0;0;
18355;-15,31;-12,51;-15,31;-12,51;1,82;4,68;1,82;4,68;0;0;
18374;-17,57;-28,49;-17,57;-28,49;1,82;7,39;1,82;7,39;0;0;
18393;-15,22;-11,09;-15,22;-11,09;1,71;7,47;1,71;7,47;0;0;
18410;-20,48;-6,57;-20,48;-6,57;1,85;6,86;1,85;6,86;0;0;
18430;-17,86;14,12;-17,86;14,12;1,78;7,87;1,78;7,87;0;0;
18449;-16,81;-10,92;-16,81;-10,92;1,75;7,68;1,75;7,68;0;0;
18467;-15,61;-8,41;-15,61;-8,41;1,74;4,58;1,74;4,58;0;0;
18486;-15,61;-8,41;-15,61;-8,41;1,88;3,17;1,88;3,17;0;0;
18504;-13,95;-5,91;-13,95;-5,91;1,93;4,2;1,93;4,2;0;0;
18522;-21,86;-6,09;-21,86;-6,09;1,87;4,81;1,87;4,81;0;0;
18544;-17,85;-6,42;-17,85;-6,42;1,96;3,35;1,96;3,35;0;0;
18564;-17,22;-15,67;-17,22;-15,67;1,91;3,58;1,91;3,58;0;0;
18583;-18,62;-10,92;-18,62;-10,92;1,94;4,21;1,94;4,21;0;0;
18600;-13,37;-6,1;-13,37;-6,1;1,92;4,53;1,92;4,53;0;0;
18618;-14,55;-7,51;-14,55;-7,51;1,89;5,77;1,89;5,77;0;0;
18636;-16,01;-4,09;-16,01;-4,09;1,83;5,72;1,83;5,72;0;0;
18658;-18,1;-8,97;-18,1;-8,97;1,82;5,83;1,82;5,83;0;0;
18679;-19,57;-7,04;-19,57;-7,04;2,02;4,96;2,02;4,96;0;0;
18701;-17,11;-15,81;-17,11;-15,81;1,95;5,06;1,95;5,06;0;0;
18722;-15,42;-27,67;-15,42;-27,67;1,93;3,72;1,93;3,72;0;0;
18744;-16,5;-10,86;-16,5;-10,86;1,92;4,74;1,92;4,74;0;0;
18769;-13,79;-6,32;-13,79;-6,32;1,89;4,75;1,89;4,75;0;0;
18793;-17,54;-9,48;-17,54;-9,48;1,72;4,62;1,72;4,62;0;0;
18817;-16,16;-4,11;-16,16;-4,11;1,56;4,54;1,56;4,54;0;0;
18839;-14,2;-9,98;-14,2;-9,98;1,76;4,04;1,76;4,04;0;0;
18862;-20,27;-23,33;-20,27;-23,33;1,8;3,54;1,8;3,54;0;0;
18881;-14,91;-12,16;-14,91;-12,16;1,86;3,96;1,86;3,96;0;0;
18904;-19,57;-6,33;-19,57;-6,33;1,89;3,95;1,89;3,95;0;0;
18921;-20,4;-8,63;-20,4;-8,63;2,18;3,9;2,18;3,9;0;0;
18939;-12,89;-7,99;-12,89;-7,99;2,21;3,8;2,21;3,8;0;0;
18960;-18,59;-5,77;-18,59;-5,77;2,12;3,38;2,12;3,38;0;0;
18978;-12,92;-15,98;-12,92;-15,98;2,05;2,49;2,05;2,49;0;0;
18996;-19,76;-6,93;-19,76;-6,93;2,22;3,6;2,22;3,6;0;0;
19015;-17,45;-7,64;-17,45;-7,64;2,24;3,57;2,24;3,57;0;0;
19035;-19,23;-15,01;-19,23;-15,01;2,12;3,89;2,12;3,89;0;0;
19055;-16,9;-10,61;-16,9;-10,61;2,06;3,89;2,06;3,89;0;0;
19076;-15,97;-9,97;-15,97;-9,97;2,06;3,82;2,06;3,82;0;0;
19094;-14,17;-7,53;-14,17;-7,53;2,03;3,45;2,03;3,45;0;0;
19112;-17,33;-8,38;-17,33;-8,38;2,11;3,21;2,11;3,21;0;0;
19155;-18,6;-7,68;-18,6;-7,68;2,02;3,16;2,02;3,16;0;0;
19174;-16,32;-19,84;-16,32;-19,84;1,78;3,36;1,78;3,36;0;0;
19192;-15,46;-7,71;-15,46;-7,71;1,67;3,29;1,67;3,29;0;0;
19211;-16,86;-6,23;-16,86;-6,23;1,78;3,32;1,78;3,32;0;0;
19229;-11,43;-4,41;-11,43;-4,41;1,67;2,74;1,67;2,74;0;0;
19248;-17,82;-4,31;-17,82;-4,31;1,42;4,28;1,42;4,28;0;0;
19270;-16,58;-18,36;-16,58;-18,36;1,46;5,07;1,46;5,07;0;0;
19290;-15,55;-9,81;-15,55;-9,81;1,61;4,69;1,61;4,69;0;1;
19307;-22,45;-55,43;-22,45;-55,43;1,72;6,19;1,72;6,19;0;1;
19325;-22,45;-55,43;-22,45;-55,43;1,8;7,6;1,8;7,6;0;1;
19344;-27,32;-93,83;-27,32;-93,83;3,4;19,57;3,4;19,57;0;1;
19365;-47,68;108,68;-47,68;108,68;5,99;31,26;5,99;31,26;0;1;
19386;-21,44;402,98;-21,44;402,98;9,34;57,31;9,34;57,31;0;0;
19405;-29,39;272,85;-29,39;272,85;11,71;77,77;11,71;77,77;0;0;
19428;-40,72;-125,39;-40,72;-125,39;15,16;91,47;15,16;91,47;0;0;
19447;-40,72;-125,39;-40,72;-125,39;17,5;99,51;17,5;99,51;0;0;
19466;-30,21;-59,23;-30,21;-59,23;17,89;109,01;17,89;109,01;0;0;
19484;-20,4;-25,21;-20,4;-25,21;15,37;106,59;15,37;106,59;0;0;
19504;-6,37;-30,65;-6,37;-30,65;13,95;86,99;13,95;86,99;0;0;
19523;-18,49;-25,46;-18,49;-25,46;11,16;73,37;11,16;73,37;0;0;
19547;-5,02;16;-5,02;16;7,92;75,05;7,92;75,05;0;0;
19569;-13,21;-56,41;-13,21;-56,41;5,41;61,54;5,41;61,54;0;0;
19588;-15,6;-66,92;-15,6;-66,92;4,67;51,82;4,67;51,82;0;0;
19606;-15,6;-66,92;-15,6;-66,92;4,39;45,62;4,39;45,62;0;0;
19626;-11,54;-27,89;-11,54;-27,89;3,74;49,73;3,74;49,73;0;0;
19644;-19,1;13,72;-19,1;13,72;3,75;43,35;3,75;43,35;0;0;
19662;-16,24;-29,01;-16,24;-29,01;3,3;30,74;3,3;30,74;0;0;
19682;-16,13;-13,63;-16,13;-13,63;2,85;34,64;2,85;34,64;0;0;
19702;-12,78;-69,15;-12,78;-69,15;2,62;40,6;2,62;40,6;0;0;
19722;-18,97;-19,99;-18,97;-19,99;2,99;36,35;2,99;36,35;0;0;
19741;-9,91;-10;-9,91;-10;7,26;31,51;7,26;31,51;0;0;
19759;-9,81;33,44;-9,81;33,44;7,84;41,86;7,84;41,86;0;0;
19776;-12,83;-16,43;-12,83;-16,43;7,62;37,11;7,62;37,11;0;0;
19793;-15,78;-26,53;-15,78;-26,53;7,66;32,39;7,66;32,39;0;0;
19813;-14,52;-65,56;-14,52;-65,56;7,31;31,4;7,31;31,4;0;0;
19832;-19,2;-28,7;-19,2;-28,7;4,44;32;4,44;32;0;0;
19852;-14,38;-15,03;-14,38;-15,03;2,03;29,12;2,03;29,12;0;0;
19873;-20,31;-1,86;-20,31;-1,86;2,06;19,75;2,06;19,75;0;0;
19891;-18,1;-25,52;-18,1;-25,52;2,01;17,29;2,01;17,29;0;0;
19909;-14,88;-14,93;-14,88;-14,93;1,94;13,55;1,94;13,55;0;0;
19929;-20,98;-8,3;-20,98;-8,3;2,14;11,47;2,14;11,47;0;0;
19949;-14,91;-22,62;-14,91;-22,62;1,9;16,6;1,9;16,6;0;0;
19966;-14,91;-22,62;-14,91;-22,62;1,82;22,96;1,82;22,96;0;0;
19983;-21,5;-5,66;-21,5;-5,66;2,03;24,31;2,03;24,31;0;0;
20004;-14,77;-5,5;-14,77;-5,5;2,11;21,34;2,11;21,34;0;0;
20022;-13,3;-7,4;-13,3;-7,4;2,59;19,57;2,59;19,57;1;0;
20042;2,9;-9,91;2,9;-9,91;7,97;15,27;7,97;15,27;1;0;
20060;-122,89;-12,05;-122,89;-12,05;26,15;7,92;26,15;7,92;1;0;
20081;-2,54;-7,12;-2,54;-7,12;39,83;3,77;39,83;3,77;1;0;
20102;-91,78;-14,93;-91,78;-14,93;44,7;2,74;44,7;2,74;1;0;
20123;-190,48;-12,59;-190,48;-12,59;66,87;3,97;66,87;3,97;1;0;
20143;59,26;-15,23;59,26;-15,23;87,5;4,64;87,5;4,64;1;0;
20162;288,27;-9,36;288,27;-9,36;125,25;4,83;125,25;4,83;1;0;
20182;24,76;-11,96;24,76;-11,96;147,68;5,72;147,68;5,72;1;0;
20202;552,8;-11,34;552,8;-11,34;174,04;6,14;174,04;6,14;0;0;
20222;168,28;-14,16;168,28;-14,16;185,77;5,87;185,77;5,87;0;0;
20242;356,59;-11,97;356,59;-11,97;201,98;5,35;201,98;5,35;0;0;
20261;-241,94;-11,1;-241,94;-11,1;187,24;5,05;187,24;5,05;0;0;
20283;-78,59;-9,82;-78,59;-9,82;168,76;4,71;168,76;4,71;0;0;
20301;-150,75;-6,47;-150,75;-6,47;172,52;3,7;172,52;3,7;0;0;
20321;-496,71;-4,97;-496,71;-4,97;163,93;3,55;163,93;3,55;0;0;
20342;-168,15;-12,12;-168,15;-12,12;150,74;3,33;150,74;3,33;0;0;
20363;-153,85;-10,72;-153,85;-10,72;129,6;3,08;129,6;3,08;0;0;
20382;-18,49;-3,9;-18,49;-3,9;98,94;4,3;98,94;4,3;0;0;
20399;-23,07;13,33;-23,07;13,33;81,18;6,93;81,18;6,93;0;0;
20418;-14,43;-5,33;-14,43;-5,33;57,71;9,74;57,71;9,74;0;0;
20436;-81,82;34,76;-81,82;34,76;32,13;13,83;32,13;13,83;0;0;
20453;-13,72;45,06;-13,72;45,06;36,56;20,45;36,56;20,45;0;0;
20472;14,76;-41,44;14,76;-41,44;30,09;23,76;30,09;23,76;0;0;
20491;-16,7;23,65;-16,7;23,65;29,62;29,18;29,62;29,18;0;0;
20508;-18,04;5,97;-18,04;5,97;29,05;30,53;29,05;30,53;0;0;
20528;0,15;-12,96;0,15;-12,96;27,11;32,32;27,11;32,32;0;0;
20547;0,15;-12,96;0,15;-12,96;10,48;30,01;10,48;30,01;0;0;
20568;-16,69;-43,78;-16,69;-43,78;6,92;24,04;6,92;24,04;0;0;
20585;-9,59;-4,5;-9,59;-4,5;5,59;23,5;5,59;23,5;0;0;
20604;-20,71;-20,66;-20,71;-20,66;5,97;19,66;5,97;19,66;0;0;
20623;-14,83;-66,96;-14,83;-66,96;5,74;20,98;5,74;20,98;0;0;
20641;-14,42;-25,5;-14,42;-25,5;5,57;19,94;5,57;19,94;0;0;
20660;-19,67;-9,82;-19,67;-9,82;3,23;20,8;3,23;20,8;0;0;
20679;-18,83;-3,25;-18,83;-3,25;2,44;16,24;2,44;16,24;0;0;
20696;-20,89;-13,66;-20,89;-13,66;2,2;17,21;2,2;17,21;0;0;
20714;-15,68;-4,47;-15,68;-4,47;2,15;14,86;2,15;14,86;0;0;
20733;-15,89;3,04;-15,89;3,04;2,25;11,3;2,25;11,3;0;0;
20752;-17,99;-16,4;-17,99;-16,4;2,31;8,42;2,31;8,42;0;0;
20770;-17,44;-24,6;-17,44;-24,6;2,28;10,32;2,28;10,32;0;0;
20789;-18,99;-2,31;-18,99;-2,31;2,08;11,72;2,08;11,72;0;0;
20809;-15,41;-5,4;-15,41;-5,4;1,99;11,26;1,99;11,26;0;0;
20828;-16,36;-10,58;-16,36;-10,58;2,21;10,42;2,21;10,42;0;0;
20848;-17,07;-27,65;-17,07;-27,65;2,02;10,56;2,02;10,56;0;0;
20867;-10,64;13,31;-10,64;13,31;2,12;10,71;2,12;10,71;0;0;
20885;-10,64;13,31;-10,64;13,31;2,28;10,44;2,28;10,44;0;0;
20903;-13,95;-7,65;-13,95;-7,65;2,22;8,46;2,22;8,46;0;0;
20921;-16,43;-9,87;-16,43;-9,87;2,26;9,84;2,26;9,84;0;0;
20944;-13,24;-10,71;-13,24;-10,71;2,34;9,26;2,34;9,26;0;0;
20963;-17,31;-15,8;-17,31;-15,8;2,34;8,31;2,34;8,31;0;0;
20981;-14,16;-16,43;-14,16;-16,43;2,15;9,02;2,15;9,02;0;0;
20999;-22,18;-2,61;-22,18;-2,61;2,2;8,65;2,2;8,65;0;0;
21019;-19,24;25,03;-19,24;25,03;2,21;9,89;2,21;9,89;0;0;
21037;-16,16;-6,89;-16,16;-6,89;2,18;8,54;2,18;8,54;0;0;
21055;-21,29;-1,85;-21,29;-1,85;2,04;9,9;2,04;9,9;0;0;
21074;-16,09;-2,14;-16,09;-2,14;2,2;10,24;2,2;10,24;0;0;
21095;-17,62;-20,37;-17,62;-20,37;2,24;9,67;2,24;9,67;0;0;
21114;-16,76;-3,49;-16,76;-3,49;2,02;8,8;2,02;8,8;0;0;
21131;-19,81;-9,78;-19,81;-9,78;2,39;8,43;2,39;8,43;0;0;
21149;-20,22;-6,25;-20,22;-6,25;2,41;7,92;2,41;7,92;0;0;
21168;-12,61;-17,14;-12,61;-17,14;9,06;6,67;9,06;6,67;0;0;
21188;-20,68;-10,39;-20,68;-10,39;24;4,77;24;4,77;1;0;
21205;-20,68;-10,39;-20,68;-10,39;38,85;4,72;38,85;4,72;1;0;
21222;25,4;-15,34;25,4;-15,34;66,47;4,54;66,47;4,54;1;0;
21240;-210,69;6,24;-210,69;6,24;88,5;4,64;88,5;4,64;1;0;
21258;-73,39;-14,01;-73,39;-14,01;117,96;5,27;117,96;5,27;1;0;
21276;-115,87;-10,09;-115,87;-10,09;139,98;4,92;139,98;4,92;1;0;
21297;112,88;-9,68;112,88;-9,68;153,57;5,17;153,57;5,17;0;0;
21321;200,03;-4,51;200,03;-4,51;163,36;5,27;163,36;5,27;0;0;
21341;-142,91;-7,56;-142,91;-7,56;160,47;4,67;160,47;4,67;0;0;
21361;-37,01;-10,92;-37,01;-10,92;130,71;4,19;130,71;4,19;0;0;
21380;-143,98;-10,51;-143,98;-10,51;111,61;3,6;111,61;3,6;0;0;
21397;256,63;-12,51;256,63;-12,51;114,83;3,45;114,83;3,45;0;0;
21415;-13,38;-7,76;-13,38;-7,76;93,23;3,28;93,23;3,28;0;0;
21435;-92,85;-6,5;-92,85;-6,5;84,06;3,01;84,06;3,01;0;0;
21456;-78,75;-6,41;-78,75;-6,41;73,31;2,79;73,31;2,79;0;0;
21474;-34,41;-8,89;-34,41;-8,89;83,49;3,13;83,49;3,13;0;0;
21492;-46,7;-15,48;-46,7;-15,48;80,54;3,92;80,54;3,92;0;0;
21509;-25,75;-12,91;-25,75;-12,91;53,59;3,8;53,59;3,8;0;0;
21526;-25,75;-12,91;-25,75;-12,91;52,87;4,29;52,87;4,29;0;0;
21546;19,27;-0,04;19,27;-0,04;45,59;12,79;45,59;12,79;0;0;
21567;-23,99;-31,74;-23,99;-31,74;45,19;18,94;45,19;18,94;0;0;
21586;20,27;54,74;20,27;54,74;35,57;24,15;35,57;24,15;0;0;
21605;-48,05;-10,58;-48,05;-10,58;27,75;24,63;27,75;24,63;0;0;
21625;-17,59;-1,45;-17,59;-1,45;22,53;24,25;22,53;24,25;0;0;
21643;-16,81;-23,98;-16,81;-23,98;20,6;23,29;20,6;23,29;0;0;
21661;-17,89;-36,4;-17,89;-36,4;11,31;17,99;11,31;17,99;0;0;
21679;-20,56;-25,53;-20,56;-25,53;9,69;14,08;9,69;14,08;0;0;
21700;-15,41;-7,78;-15,41;-7,78;4,61;11,81;4,61;11,81;0;0;
21716;-19,1;-8,77;-19,1;-8,77;1,86;11,66;1,86;11,66;0;0;
21738;-13,1;-8,58;-13,1;-8,58;1,76;10,74;1,76;10,74;0;0;
21758;-18,06;-17,59;-18,06;-17,59;1,87;10,01;1,87;10,01;0;0;
21775;-17,64;-2,46;-17,64;-2,46;1,79;7,48;1,79;7,48;0;0;
21798;-16,06;-12,4;-16,06;-12,4;1,88;5,71;1,88;5,71;0;0;
21816;-17,45;-11,67;-17,45;-11,67;2,07;5,12;2,07;5,12;0;0;
21834;-14,29;-20,29;-14,29;-20,29;2,27;5,47;2,27;5,47;0;0;
21853;-14,63;-2,8;-14,63;-2,8;2,47;6,24;2,47;6,24;0;0;
21873;-16,91;-11,25;-16,91;-11,25;2,51;4,55;2,51;4,55;0;0;
21897;-16,14;-7,74;-16,14;-7,74;2,42;5,47;2,42;5,47;0;0;
21915;-18,6;-6,09;-18,6;-6,09;2,41;4,89;2,41;4,89;0;0;
21933;-15;-9,98;-15;-9,98;2,29;5,9;2,29;5,9;0;0;
21951;-15;-9,98;-15;-9,98;2,18;6,78;2,18;6,78;0;0;
21972;-19,36;-4,79;-19,36;-4,79;2;6,5;2;6,5;0;0;
21990;-18,85;-7,48;-18,85;-7,48;2,04;5,06;2,04;5,06;0;0;
22008;-21,57;-5,33;-21,57;-5,33;2,01;5,29;2,01;5,29;0;0;
22026;-21,57;-5,33;-21,57;-5,33;1,99;5,4;1,99;5,4;0;0;
22045;-19,11;2,65;-19,11;2,65;1,82;6,62;1,82;6,62;0;0;
22063;-13;-16,71;-13;-16,71;1,92;6,13;1,92;6,13;0;0;
22081;-19,65;-10,74;-19,65;-10,74;1,72;6,5;1,72;6,5;0;0;
22100;-18,47;-6,63;-18,47;-6,63;1,83;6,54;1,83;6,54;0;0;
22119;-16,89;-11,1;-16,89;-11,1;1,75;6,35;1,75;6,35;0;0;
22136;-13,03;-19,21;-13,03;-19,21;1,88;6,37;1,88;6,37;0;0;
22155;-13,26;-8,79;-13,26;-8,79;1,77;2,88;1,77;2,88;0;0;
22174;-17,27;-14,41;-17,27;-14,41;1,74;2,44;1,74;2,44;0;0;
22192;-16,96;-10,75;-16,96;-10,75;1,5;2,94;1,5;2,94;0;0;
22211;-15,46;-6,18;-15,46;-6,18;1,56;2,91;1,56;2,91;0;0;
22231;-17,51;-8,22;-17,51;-8,22;1,59;2,83;1,59;2,83;0;0;
22248;-15,43;-8,05;-15,43;-8,05;1,6;2,54;1,6;2,54;0;0;
22266;-15,43;-8,05;-15,43;-8,05;1,56;2,69;1,56;2,69;0;0;
22285;-15,42;-7,75;-15,42;-7,75;1,8;2,17;1,8;2,17;0;0;
22304;-16,74;-5;-16,74;-5;1,92;3,1;1,92;3,1;0;0;
22322;-18,66;-8,75;-18,66;-8,75;1,87;4,01;1,87;4,01;0;0;
22344;-18,37;-4,72;-18,37;-4,72;1,95;4,12;1,95;4,12;0;0;
22365;-16,17;-6,86;-16,17;-6,86;2,06;4,04;2,06;4,04;0;0;
22383;-10,44;-10,47;-10,44;-10,47;2,16;4,58;2,16;4,58;0;0;
22404;-19,35;-7,61;-19,35;-7,61;2,12;4,39;2,12;4,39;0;0;
22422;-20,06;-6,3;-20,06;-6,3;2,09;3,53;2,09;3,53;0;0;
22439;-17,1;-9,96;-17,1;-9,96;2,2;2,86;2,2;2,86;0;0;
22456;-17,04;-11,3;-17,04;-11,3;2,27;3,08;2,27;3,08;0;0;
22476;-15,56;-9,23;-15,56;-9,23;2,06;2,91;2,06;2,91;0;0;
22496;-15,3;-2,31;-15,3;-2,31;2,05;3,02;2,05;3,02;0;0;
22514;-15,79;-8,21;-15,79;-8,21;1,93;2,57;1,93;2,57;0;0;
22533;-16,3;-9,11;-16,3;-9,11;1,82;3,2;1,82;3,2;0;0;
22555;-16,3;-7,67;-16,3;-7,67;1,81;3,02;1,81;3,02;0;0;
22575;-14,24;-9,73;-14,24;-9,73;1,92;2,66;1,92;2,66;0;0;
22594;-11,35;-4,93;-11,35;-4,93;1,82;2,73;1,82;2,73;0;0;
22616;-14,15;-6,77;-14,15;-6,77;1,83;2,9;1,83;2,9;0;0;
22633;-22,18;-7,85;-22,18;-7,85;2,06;3,76;2,06;3,76;0;0;
22651;-13,4;-12,27;-13,4;-12,27;2,07;3,42;2,07;3,42;0;0;
22673;-19,16;-5,38;-19,16;-5,38;2,04;3,81;2,04;3,81;0;0;
22693;-16,01;-6,93;-16,01;-6,93;2,09;4,04;2,09;4,04;0;0;
22712;-17,85;-8,82;-17,85;-8,82;2,14;3,71;2,14;3,71;0;0;
22732;-14,16;-8,45;-14,16;-8,45;2,15;3,64;2,15;3,64;0;0;
22750;-15,81;-6,88;-15,81;-6,88;1,95;3,66;1,95;3,66;0;0;
22769;-16,77;-6,89;-16,77;-6,89;1,93;3,73;1,93;3,73;0;0;
22788;-20,81;-9,83;-20,81;-9,83;1,79;3,44;1,79;3,44;0;0;
22809;-16,42;-7,64;-16,42;-7,64;1,55;3,28;1,55;3,28;0;0;
22828;-18,61;-10,32;-18,61;-10,32;1,54;3,16;1,54;3,16;0;0;
22846;-18,61;-10,32;-18,61;-10,32;1,64;2,19;1,64;2,19;0;0;
22865;-21,66;-6,61;-21,66;-6,61;1,68;2,02;1,68;2,02;0;0;
22884;-17,96;-9,59;-17,96;-9,59;1,79;2,33;1,79;2,33;0;0;
22902;-17,48;-5,74;-17,48;-5,74;1,95;2,03;1,95;2,03;0;0;
22920;-14,64;-6,94;-14,64;-6,94;1,91;2,18;1,91;2,18;0;0;
22939;-16,08;-11,31;-16,08;-11,31;1,84;2,35;1,84;2,35;0;0;
22957;-16,24;-3,73;-16,24;-3,73;1,83;2,39;1,83;2,39;0;0;
22977;-14,17;-10,31;-14,17;-10,31;1,8;2,57;1,8;2,57;0;0;
22994;-17,07;-15,65;-17,07;-15,65;1,73;2,64;1,73;2,64;0;0;
23013;-15,67;-17,56;-15,67;-17,56;1,56;3,12;1,56;3,12;0;0;
23032;-7,97;-25,31;-7,97;-25,31;1,93;7,43;1,93;7,43;0;0;
23052;-3,85;50,66;-3,85;50,66;3,3;13,5;3,3;13,5;0;0;
23071;-6,85;49,28;-6,85;49,28;5,46;24,34;5,46;24,34;0;0;
23089;3,15;222,78;3,15;222,78;7,27;40,69;7,27;40,69;0;1;
23108;-12,63;86,42;-12,63;86,42;9,39;60,44;9,39;60,44;0;0;
23128;13,85;226,08;13,85;226,08;12,91;84,57;12,91;84,57;0;0;
23149;-2,62;19,42;-2,62;19,42;13,9;100,11;13,9;100,11;0;0;
23168;-14,92;-12,58;-14,92;-12,58;14,84;109,08;14,84;109,08;0;0;
23191;-33,03;10,64;-33,03;10,64;13,48;112,79;13,48;112,79;0;0;
23212;-21,18;-27,75;-21,18;-27,75;11,88;106,6;11,88;106,6;0;0;
23228;-19,16;-210,69;-19,16;-210,69;10,35;98,83;10,35;98,83;0;0;
23245;-19,16;-210,69;-19,16;-210,69;8,77;86,6;8,77;86,6;0;0;
23261;-19,65;-51,42;-19,65;-51,42;5,96;72,2;5,96;72,2;0;0;
23279;-16,82;-94,6;-16,82;-94,6;5,29;63,11;5,29;63,11;0;0;
23299;-14,3;-45,35;-14,3;-45,35;4,61;50,29;4,61;50,29;0;0;
23316;-16,85;-5,9;-16,85;-5,9;4,4;39,76;4,4;39,76;0;0;
23336;-12,14;-26,88;-12,14;-26,88;3,96;31,31;3,96;31,31;0;0;
23356;-20,6;-11,31;-20,6;-11,31;3,34;29,41;3,34;29,41;0;0;
23377;-19,2;-58,88;-19,2;-58,88;3,13;32,02;3,13;32,02;0;0;
23397;-13,58;27,1;-13,58;27,1;3,1;33,83;3,1;33,83;0;0;
23417;-16,38;-48,24;-16,38;-48,24;2,67;36,55;2,67;36,55;0;0;
23434;-18,86;-59,67;-18,86;-59,67;2,43;42,28;2,43;42,28;0;0;
23452;-30,19;-6,69;-30,19;-6,69;6,46;37,59;6,46;37,59;0;0;
23477;-25,51;-71,82;-25,51;-71,82;9,31;38,69;9,31;38,69;0;0;
23498;-9,43;66,4;-9,43;66,4;10,1;36,64;10,1;36,64;0;0;
23520;-16,4;6,9;-16,4;6,9;9,87;37,88;9,87;37,88;0;0;
23544;-16,81;6,92;-16,81;6,92;9,92;38,93;9,92;38,93;0;0;
23568;-13,26;-10,18;-13,26;-10,18;9,36;36,93;9,36;36,93;0;0;
23593;-22,49;27,77;-22,49;27,77;4,04;33,42;4,04;33,42;0;0;
23617;-15,76;-19,16;-15,76;-19,16;3,15;32,08;3,15;32,08;0;0;
23638;-15,51;0,64;-15,51;0,64;2,58;22,71;2,58;22,71;0;0;
23663;-16,26;19,01;-16,26;19,01;2,66;20,91;2,66;20,91;0;0;
23685;-16,01;-16,48;-16,01;-16,48;2,47;16,46;2,47;16,46;0;0;
23704;-16,44;16,29;-16,44;16,29;2,27;19,19;2,27;19,19;0;0;
23726;-16,15;-9,74;-16,15;-9,74;1,77;15,19;1,77;15,19;0;0;
23751;-18,59;-5,82;-18,59;-5,82;1,72;14,65;1,72;14,65;0;0;
23770;-17,35;-9,26;-17,35;-9,26;1,66;11,61;1,66;11,61;0;0;
23788;-19,02;-8,04;-19,02;-8,04;1,48;7,37;1,48;7,37;0;0;
23806;-19,02;-8,04;-19,02;-8,04;1,48;4,38;1,48;4,38;0;0;
23826;-19,23;-9,38;-19,23;-9,38;1,6;1,39;1,6;1,39;1;0;
23845;-25,75;-8,8;-25,75;-8,8;3,31;1,46;3,31;1,46;1;0;
23865;53,96;-4,08;53,96;-4,08;8,03;1,49;8,03;1,49;1;0;
23885;70,97;-8,06;70,97;-8,06;14,83;1,72;14,83;1,72;1;0;
23904;225,59;2,16;225,59;2,16;30,28;2,15;30,28;2,15;1;0;
23925;31,38;-17,79;31,38;-17,79;71,89;3,41;71,89;3,41;1;0;
23945;51,5;-6,28;51,5;-6,28;94,15;3,64;94,15;3,64;1;0;
23963;95,99;-7,61;95,99;-7,61;125,94;4,39;125,94;4,39;1;0;
23982;-184,95;0,82;-184,95;0,82;146,7;5,06;146,7;5,06;1;0;
24003;2;-3,05;2;-3,05;167,14;5,54;167,14;5,54;0;0;
24025;-393,42;-3,28;-393,42;-3,28;186,25;5,52;186,25;5,52;0;0;
24048;-103,55;-3,5;-103,55;-3,5;180,98;4,74;180,98;4,74;0;0;
24068;-1;2,3;-1;2,3;178,69;4,9;178,69;4,9;0;0;
24094;-118,51;-14,78;-118,51;-14,78;162,38;6,35;162,38;6,35;0;0;
24115;9,68;-21,19;9,68;-21,19;167,1;6,23;167,1;6,23;0;0;
24135;0,77;-8,77;0,77;-8,77;152,81;6,05;152,81;6,05;0;0;
24157;74,19;-18,21;74,19;-18,21;104,13;6,93;104,13;6,93;0;0;
24178;57,66;-9,83;57,66;-9,83;86,86;8,64;86,86;8,64;0;0;
24195;117,68;-5,47;117,68;-5,47;75,44;9;75,44;9;0;0;
24214;-18,23;21,51;-18,23;21,51;59,61;12,56;59,61;12,56;0;0;
24235;-63,8;24,84;-63,8;24,84;49,97;18,93;49,97;18,93;0;0;
24252;-25,91;34,87;-25,91;34,87;49,03;22,84;49,03;22,84;0;0;
24270;20,99;-36,12;20,99;-36,12;48,06;28,95;48,06;28,95;0;0;
24288;3,32;-14,93;3,32;-14,93;42,44;31,31;42,44;31,31;0;0;
24306;3,32;-14,93;3,32;-14,93;38,86;34,42;38,86;34,42;0;0;
24326;7,51;-24,45;7,51;-24,45;42,62;31,72;42,62;31,72;0;0;
24344;-3,74;-3,66;-3,74;-3,66;40,21;32,01;40,21;32,01;0;0;
24364;-22,3;-60,98;-22,3;-60,98;39,64;28,62;39,64;28,62;0;0;
24382;42,83;-6,98;42,83;-6,98;37,14;26,53;37,14;26,53;0;0;
24400;-48,49;-5,54;-48,49;-5,54;31,91;22,48;31,91;22,48;0;0;
24420;3,77;-24,71;3,77;-24,71;28,18;26,37;28,18;26,37;0;0;
24437;-12,57;-5,72;-12,57;-5,72;22,65;23,34;22,65;23,34;0;0;
24454;-17,49;-9,74;-17,49;-9,74;19,9;17,41;19,9;17,41;0;0;
24473;-13,13;-21,53;-13,13;-21,53;17,1;15,42;17,1;15,42;0;0;
24490;-13,46;109,02;-13,46;109,02;13,32;20,7;13,32;20,7;0;0;
24509;-19,12;-33,11;-19,12;-33,11;9,66;17,6;9,66;17,6;0;0;
24528;-18,46;-12,15;-18,46;-12,15;3,47;15,66;3,47;15,66;0;0;
24545;-18,46;-12,15;-18,46;-12,15;2,52;16,33;2,52;16,33;0;0;
24563;-14,69;-11,05;-14,69;-11,05;2,14;15,11;2,14;15,11;0;0;
24581;-18,72;31,37;-18,72;31,37;2,18;14,49;2,18;14,49;0;0;
24601;-18,16;-43,86;-18,16;-43,86;2,14;10,45;2,14;10,45;0;0;
24621;-19,06;-10,24;-19,06;-10,24;2,04;8,69;2,04;8,69;0;0;
24639;-14,96;-10,21;-14,96;-10,21;1,92;9,85;1,92;9,85;0;0;
24657;-19,55;-8,41;-19,55;-8,41;1,78;10,26;1,78;10,26;0;0;
24674;-16,67;-4,44;-16,67;-4,44;1,73;11,75;1,73;11,75;0;0;
24693;-16,67;-4,44;-16,67;-4,44;1,77;10,01;1,77;10,01;0;0;
24712;-12,79;-1,46;-12,79;-1,46;1,49;10,15;1,49;10,15;0;0;
24730;-11,93;-3;-11,93;-3;1,6;11,89;1,6;11,89;0;0;
24748;-13,04;-38,31;-13,04;-38,31;1,83;11,81;1,83;11,81;0;0;
24766;-13,04;-38,31;-13,04;-38,31;2,13;12,46;2,13;12,46;0;0;
24783;-15,48;-9,5;-15,48;-9,5;2,07;11,6;2,07;11,6;0;0;
24802;-15,87;-25,35;-15,87;-25,35;2,15;11,26;2,15;11,26;0;0;
24823;-18,1;-18,64;-18,1;-18,64;2,08;13,35;2,08;13,35;0;0;
24842;-16,14;-18,41;-16,14;-18,41;1,84;12,19;1,84;12,19;0;0;
24861;-20,52;-4,31;-20,52;-4,31;1,66;12,18;1,66;12,18;0;0;
24881;-16,22;-10,06;-16,22;-10,06;1,61;11,78;1,61;11,78;0;0;
24906;-14,87;-8,9;-14,87;-8,9;1,6;11,58;1,6;11,58;0;0;
24926;-17,5;-2,03;-17,5;-2,03;1,84;8,29;1,84;8,29;0;0;
24946;-16,03;-9,36;-16,03;-9,36;1,8;8,2;1,8;8,2;0;0;
24965;-22,05;-30,73;-22,05;-30,73;1,87;7,64;1,87;7,64;0;0;
24983;-18,42;-10,91;-18,42;-10,91;1,88;7,77;1,88;7,77;0;0;
25001;-12,62;-6,06;-12,62;-6,06;1,89;6,93;1,89;6,93;1;0;
25022;-19,53;-5,65;-19,53;-5,65;1,89;6,29;1,89;6,29;1;0;
25042;-16,42;-9,06;-16,42;-9,06;1,83;4,75;1,83;4,75;1;0;
25059;-34,71;-2,24;-34,71;-2,24;2,14;4,89;2,14;4,89;1;0;
25077;81,07;-2,76;81,07;-2,76;11,14;2,35;11,14;2,35;1;0;
25098;-48,58;-23,75;-48,58;-23,75;24,24;3,32;24,24;3,32;1;0;
25118;-118,62;-20,38;-118,62;-20,38;52,83;4,03;52,83;4,03;1;0;
25140;-165,33;-1,77;-165,33;-1,77;71,83;4,43;71,83;4,43;1;0;
25158;72,37;4,81;72,37;4,81;105,23;4,67;105,23;4,67;1;0;
25175;60,38;-11,66;60,38;-11,66;116,01;5,41;116,01;5,41;1;0;
25193;-338,63;-0,81;-338,63;-0,81;152,39;5,19;152,39;5,19;1;0;
25214;-273,58;-8,01;-273,58;-8,01;142,27;4,58;142,27;4,58;0;0;
25235;142,82;-11,94;142,82;-11,94;149,73;3,94;149,73;3,94;0;0;
25259;-149,22;-8,67;-149,22;-8,67;143,4;3,99;143,4;3,99;0;0;
25281;-128,42;-7,09;-128,42;-7,09;125,69;3,5;125,69;3,5;0;0;
25305;107,86;-5,47;107,86;-5,47;123,3;3,08;123,3;3,08;0;0;
25322;109,07;-5,13;109,07;-5,13;99,36;3,02;99,36;3,02;0;0;
25343;-10,03;-4,62;-10,03;-4,62;77,8;2,89;77,8;2,89;0;0;
25363;-17,89;-2,9;-17,89;-2,9;54,43;4,8;54,43;4,8;0;0;
25380;-1,2;36,21;-1,2;36,21;44,38;7,43;44,38;7,43;0;0;
25402;64,87;13,9;64,87;13,9;41,61;11,22;41,61;11,22;0;0;
25421;42,33;-54,72;42,33;-54,72;38,46;13,56;38,46;13,56;0;0;
25441;-24,68;-25,27;-24,68;-25,27;34,28;18,48;34,28;18,48;0;0;
25459;-17,76;-8,38;-17,76;-8,38;33,3;20,65;33,3;20,65;0;0;
25477;-16,79;-18,89;-16,79;-18,89;32,58;20,82;32,58;20,82;0;0;
25494;-19,41;-69,18;-19,41;-69,18;25,21;19,01;25,21;19,01;0;0;
25513;18,05;-34,72;18,05;-34,72;18,25;17,6;18,25;17,6;0;0;
25531;-29,74;-28,44;-29,74;-28,44;14,46;13,84;14,46;13,84;0;0;
25551;-4,4;-6,36;-4,4;-6,36;13,36;12,96;13,36;12,96;0;0;
25568;-12,96;-8,65;-12,96;-8,65;13,24;11,66;13,24;11,66;0;0;
25586;-12,96;-8,65;-12,96;-8,65;13,33;11,02;13,33;11,02;0;0;
25605;-17,98;103,87;-17,98;103,87;13,07;14,19;13,07;14,19;0;0;
25626;-14,6;24,34;-14,6;24,34;4,4;15,58;4,4;15,58;0;0;
25644;-14,78;-11,51;-14,78;-11,51;2,05;15,21;2,05;15,21;0;0;
25663;-15,47;-6,14;-15,47;-6,14;1,75;14,39;1,75;14,39;0;0;
25684;-15,6;-10,31;-15,6;-10,31;1,68;13,79;1,68;13,79;0;0;
25703;-17,2;-50,42;-17,2;-50,42;1,51;12,73;1,51;12,73;0;0;
25720;-19,24;-9,83;-19,24;-9,83;1,53;9,74;1,53;9,74;0;0;
25738;-17,4;-16,9;-17,4;-16,9;1,38;9,36;1,38;9,36;0;0;
25757;-13,92;-9,37;-13,92;-9,37;1,6;10,22;1,6;10,22;0;0;
25775;-19,84;-4,88;-19,84;-4,88;1,7;10,53;1,7;10,53;0;0;
25795;-12,62;-20,02;-12,62;-20,02;1,84;10,69;1,84;10,69;0;0;
25816;-13,8;-15,11;-13,8;-15,11;2,17;8,58;2,17;8,58;0;0;
25836;-18,28;-8,63;-18,28;-8,63;2,23;5,09;2,23;5,09;0;0;
25853;-18,28;-8,63;-18,28;-8,63;2,24;4,35;2,24;4,35;0;0;
25874;-18,12;-6,97;-18,12;-6,97;2,04;4,18;2,04;4,18;0;0;
25892;-17,62;-23,6;-17,62;-23,6;1,9;4,12;1,9;4,12;0;0;
25909;-14,59;-7,88;-14,59;-7,88;1,9;4,17;1,9;4,17;0;0;
25926;-14,59;-7,88;-14,59;-7,88;1,9;5,06;1,9;5,06;0;0;
25945;-19,26;-2,61;-19,26;-2,61;2,05;6,66;2,05;6,66;0;0;
25962;-15,93;-11,16;-15,93;-11,16;2,13;6,6;2,13;6,6;0;0;
25981;-17,56;-3,85;-17,56;-3,85;2,21;7,11;2,21;7,11;0;0;
26001;-19,95;-25,47;-19,95;-25,47;2,33;6,69;2,33;6,69;0;0;
26020;-14,34;-10,22;-14,34;-10,22;2,35;7,37;2,35;7,37;0;0;
26039;-17,52;-0,34;-17,52;-0,34;2,02;7,32;2,02;7,32;0;0;
26057;-19,22;10,39;-19,22;10,39;2,01;9,24;2,01;9,24;0;0;
26078;-14,26;-15,65;-14,26;-15,65;2,08;9,9;2,08;9,9;0;0;
26097;-16,76;-3,1;-16,76;-3,1;1,89;9,87;1,89;9,87;0;0;
26114;-14,93;-9,02;-14,93;-9,02;1,71;7,9;1,71;7,9;0;0;
26131;-17,59;-8,23;-17,59;-8,23;1,58;7,83;1,58;7,83;0;0;
26150;-17,59;-8,23;-17,59;-8,23;1,53;7,24;1,53;7,24;0;0;
26169;-16,11;1,31;-16,11;1,31;1,64;3,55;1,64;3,55;0;0;
26186;-16,11;1,31;-16,11;1,31;1,79;3,54;1,79;3,54;0;0;
26206;-12,33;-1,11;-12,33;-1,11;2;3,69;2;3,69;0;0;
26225;-18,96;-5,15;-18,96;-5,15;1,92;3,37;1,92;3,37;0;0;
26244;-16,62;-4,08;-16,62;-4,08;1,91;3,89;1,91;3,89;0;0;
26263;-12,79;-8,22;-12,79;-8,22;1,82;5,36;1,82;5,36;0;0;
26281;-15,72;-6,79;-15,72;-6,79;1,8;5,12;1,8;5,12;0;0;
26299;-16,03;-7,77;-16,03;-7,77;1,78;4,32;1,78;4,32;0;0;
26317;-17,8;3,05;-17,8;3,05;1,77;4,58;1,77;4,58;0;0;
26333;-16,77;-10,82;-16,77;-10,82;1,8;5,42;1,8;5,42;0;0;
26353;-21,87;0,08;-21,87;0,08;1,95;3,94;1,95;3,94;0;0;
26371;-17,38;-7,16;-17,38;-7,16;2,09;4,1;2,09;4,1;0;0;
26388;-15,42;15,81;-15,42;15,81;2,01;6,48;2,01;6,48;0;0;
26406;-15,42;15,81;-15,42;15,81;2,14;8,96;2,14;8,96;0;0;
26424;-15,2;-12,35;-15,2;-12,35;1,96;7,37;1,96;7,37;0;0;
26442;-17,75;-6,21;-17,75;-6,21;2,07;7,92;2,07;7,92;0;0;
26460;-14,07;-8,47;-14,07;-8,47;1,84;8,02;1,84;8,02;0;0;
26480;-16,12;-8,9;-16,12;-8,9;1,77;8,2;1,77;8,2;0;0;
26498;-18,19;-10,1;-18,19;-10,1;1,82;5,96;1,82;5,96;0;0;
26517;-22,28;-6,68;-22,28;-6,68;1,87;5,34;1,87;5,34;0;0;
26535;-16,51;-11,44;-16,51;-11,44;1,79;4,97;1,79;4,97;0;0;
26556;-20,89;-37,31;-20,89;-37,31;1,78;6,37;1,78;6,37;0;0;
26573;-16,28;-8,97;-16,28;-8,97;1,89;6,43;1,89;6,43;0;0;
26593;-13,54;-3,76;-13,54;-3,76;2,01;6,79;2,01;6,79;0;0;
26611;-13,93;-5,7;-13,93;-5,7;2,04;5,3;2,04;5,3;0;0;
26631;-20,01;-9,62;-20,01;-9,62;1,98;4,7;1,98;4,7;0;0;
26649;-18,58;5,97;-18,58;5,97;2,07;7,26;2,07;7,26;0;0;
26667;-18,58;5,97;-18,58;5,97;1,95;8,03;1,95;8,03;0;0;
26686;-12,57;-4,33;-12,57;-4,33;1,82;8,03;1,82;8,03;0;0;
26703;-18,5;-3,72;-18,5;-3,72;1,79;7,57;1,79;7,57;0;0;
26722;-13,75;-7,48;-13,75;-7,48;1,9;7,51;1,9;7,51;0;0;
26742;-16,83;-9,29;-16,83;-9,29;1,78;5,79;1,78;5,79;0;0;
26760;-16,76;-10,58;-16,76;-10,58;1,9;2,82;1,9;2,82;0;0;
26778;-19,95;-2,74;-19,95;-2,74;1,9;1,53;1,9;1,53;0;0;
26795;-14,87;-16,82;-14,87;-16,82;1,94;2,06;1,94;2,06;0;0;
26813;-17,7;-7,58;-17,7;-7,58;1,72;3,74;1,72;3,74;0;0;
26832;-13,96;-8,52;-13,96;-8,52;1,8;3,98;1,8;3,98;0;0;
26851;-19,46;-5,14;-19,46;-5,14;1,82;4,01;1,82;4,01;0;0;
26870;-18,76;-7,41;-18,76;-7,41;2,04;3,98;2,04;3,98;0;0;
26889;-19,05;-9,36;-19,05;-9,36;1,76;3,85;1,76;3,85;0;0;
26906;-19,05;-9,36;-19,05;-9,36;1,76;3,12;1,76;3,12;0;0;
26925;-18,23;-8,24;-18,23;-8,24;1,84;1,99;1,84;1,99;1;0;
26944;-20,7;-9,81;-20,7;-9,81;1,92;2,28;1,92;2,28;1;0;
26961;-14,39;-4,74;-14,39;-4,74;1,81;2,39;1,81;2,39;1;0;
26979;-13,85;-8,4;-13,85;-8,4;1,76;3,14;1,76;3,14;1;0;
26997;-18,62;-10;-18,62;-10;1,77;3,24;1,77;3,24;1;0;
27016;-17,77;-9,03;-17,77;-9,03;1,68;3,28;1,68;3,28;1;0;
27034;-21,39;-8,87;-21,39;-8,87;1,73;3,27;1,73;3,27;1;0;
27054;-22,3;-5,34;-22,3;-5,34;1,84;2,95;1,84;2,95;1;0;
27072;-84,79;-5,22;-84,79;-5,22;3,72;2,8;3,72;2,8;1;0;
27090;-71,6;-7,24;-71,6;-7,24;14,22;2,12;14,22;2,12;1;0;
27108;-476,78;-1,19;-476,78;-1,19;42,8;2,37;42,8;2,37;1;0;
27125;-476,78;-1,19;-476,78;-1,19;71,37;3,03;71,37;3,03;1;0;
27145;-60,95;-6,03;-60,95;-6,03;104,59;3,5;104,59;3,5;1;0;
27164;-52,49;-4,99;-52,49;-4,99;140,3;3,53;140,3;3,53;1;0;
27184;-143,46;-10,87;-143,46;-10,87;157,64;3,87;157,64;3,87;0;0;
27206;-241,99;-1,25;-241,99;-1,25;168,68;4,16;168,68;4,16;0;0;
27226;-21,73;-11,6;-21,73;-11,6;166,15;4,01;166,15;4,01;0;0;
27246;-14,64;-7,88;-14,64;-7,88;136;3,35;136;3,35;0;0;
27266;-18,01;-4,58;-18,01;-4,58;100,45;3,07;100,45;3,07;0;0;
27286;103,7;-11,33;103,7;-11,33;81,77;3,26;81,77;3,26;0;0;
27307;-43,08;-14,92;-43,08;-14,92;80,96;5,19;80,96;5,19;0;0;
27327;-19,42;-17,14;-19,42;-17,14;57,84;5,34;57,84;5,34;0;0;
27346;-15,86;-12,5;-15,86;-12,5;40,53;7,24;40,53;7,24;0;0;
27365;-16,27;13,63;-16,27;13,63;39,29;8,96;39,29;8,96;0;0;
27381;-15,58;83,35;-15,58;83,35;36,42;17,4;36,42;17,4;0;0;
27398;-9,22;-24,76;-9,22;-24,76;18,27;23,53;18,27;23,53;0;0;
27417;-191,53;4,34;-191,53;4,34;25,7;24,48;25,7;24,48;0;0;
27437;-29,25;-11,73;-29,25;-11,73;26,94;24,33;26,94;24,33;0;0;
27455;-13,26;-2,51;-13,26;-2,51;26,58;23,69;26,58;23,69;0;0;
27474;-17,55;-28,43;-17,55;-28,43;26,42;21,33;26,42;21,33;0;0;
27492;-17,69;-18,12;-17,69;-18,12;26,3;14,08;26,3;14,08;0;0;
27513;-20,76;17,37;-20,76;17,37;18,03;20,59;18,03;20,59;0;0;
27531;-14,35;-27,32;-14,35;-27,32;2,79;22,69;2,79;22,69;0;0;
27549;-14,82;-2,09;-14,82;-2,09;1,93;21,77;1,93;21,77;0;0;
27567;-14,82;-2,09;-14,82;-2,09;1,95;20,45;1,95;20,45;0;0;
27583;-18,42;4,41;-18,42;4,41;1,93;21,87;1,93;21,87;0;0;
27601;-15,09;0,15;-15,09;0,15;2,01;18,69;2,01;18,69;1;0;
27621;-14,19;-10,83;-14,19;-10,83;2,02;12,25;2,02;12,25;1;0;
27640;-14,58;0,13;-14,58;0,13;2,06;14,21;2,06;14,21;1;0;
27660;-18,34;-7,43;-18,34;-7,43;2,08;14,16;2,08;14,16;1;0;
27676;-17,66;3,3;-17,66;3,3;2,04;13,63;2,04;13,63;1;0;
27695;-14,37;-12,07;-14,37;-12,07;2,02;11,73;2,02;11,73;1;0;
27717;362,7;4,5;362,7;4,5;27,97;8,59;27,97;8,59;1;0;
27734;-243,41;-5,55;-243,41;-5,55;62,52;8,24;62,52;8,24;1;0;
27752;-348,67;-1,1;-348,67;-1,1;83,13;6,44;83,13;6,44;1;0;
27770;-268,25;-7,5;-268,25;-7,5;115,45;6,9;115,45;6,9;1;0;
27787;-268,25;-7,5;-268,25;-7,5;147,84;5,95;147,84;5,95;1;0;
27806;192,08;-6,83;192,08;-6,83;158,7;6,19;158,7;6,19;0;0;
27834;285,94;-14,36;285,94;-14,36;147,79;5,9;147,79;5,9;0;0;
27858;27,41;-3,58;27,41;-3,58;139,04;5,1;139,04;5,1;0;0;
27881;-11,22;-6,53;-11,22;-6,53;116,48;4,27;116,48;4,27;0;0;
27901;-15;-25,44;-15;-25,44;84,37;3,96;84,37;3,96;0;0;
27921;-18,69;-26,6;-18,69;-26,6;58,7;5,93;58,7;5,93;0;0;
27940;-8,91;-4,06;-8,91;-4,06;53,58;11,41;53,58;11,41;0;0;
27958;-143,6;-12,98;-143,6;-12,98;33,41;13,59;33,41;13,59;0;0;
27976;-123,04;63,09;-123,04;63,09;30,19;17,68;30,19;17,68;0;0;
27995;-11,11;5,81;-11,11;5,81;31,6;24,94;31,6;24,94;0;0;
28013;-17,03;-37,28;-17,03;-37,28;31,78;26,42;31,78;26,42;0;0;
28031;-30,89;-24,47;-30,89;-24,47;28,76;24,3;28,76;24,3;0;0;
28048;-64,37;-53,65;-64,37;-53,65;27,93;22,76;27,93;22,76;0;0;
28067;-31,92;25,53;-31,92;25,53;22,43;24,23;22,43;24,23;0;0;
28086;-31,92;25,53;-31,92;25,53;17,27;21,79;17,27;21,79;0;0;
28102;-11,86;-21,38;-11,86;-21,38;17,57;18,23;17,57;18,23;0;0;
28119;-16,42;4,62;-16,42;4,62;17,41;18,4;17,41;18,4;0;0;
28137;-21,92;-4,96;-21,92;-4,96;15,21;16,33;15,21;16,33;0;0;
28156;-21,47;-22,36;-21,47;-22,36;8,31;17,33;8,31;17,33;0;0;
28173;-17,36;-32,71;-17,36;-32,71;5,23;14,8;5,23;14,8;0;0;
28191;-15,84;-5,95;-15,84;-5,95;2,7;11,1;2,7;11,1;0;0;
28210;-17,78;-40,73;-17,78;-40,73;2,25;10,2;2,25;10,2;0;0;
28228;-17,39;-9,28;-17,39;-9,28;2,27;9,15;2,27;9,15;0;0;
28246;-17,39;-9,28;-17,39;-9,28;2,14;8,11;2,14;8,11;0;0;
28268;-16,46;-15,97;-16,46;-15,97;1,9;8,71;1,9;8,71;0;0;
28287;-16,46;-15,97;-16,46;-15,97;1,72;10,19;1,72;10,19;0;0;
28305;-16,82;2,05;-16,82;2,05;1,62;10,47;1,62;10,47;0;0;
28323;-17,3;-9,88;-17,3;-9,88;1,8;9,09;1,8;9,09;0;0;
28341;-20,82;-28,76;-20,82;-28,76;2,06;9,95;2,06;9,95;0;0;
28362;-16,06;-12,41;-16,06;-12,41;2,04;8,92;2,04;8,92;0;0;
28381;-17,8;-9,51;-17,8;-9,51;1,99;7,22;1,99;7,22;0;0;
28398;-17,77;-4,68;-17,77;-4,68;2,14;6,59;2,14;6,59;0;0;
28417;-22,05;-2,8;-22,05;-2,8;2,31;9,53;2,31;9,53;0;0;
28437;-11,82;-10,71;-11,82;-10,71;2,26;9,77;2,26;9,77;0;0;
28455;-15,77;-11,06;-15,77;-11,06;1,84;9,08;1,84;9,08;0;0;
28474;-20,2;-9,31;-20,2;-9,31;1,95;8,27;1,95;8,27;0;0;
28493;-9,56;18,07;-9,56;18,07;2,17;9,3;2,17;9,3;0;0;
28510;-15,3;11,81;-15,3;11,81;2,16;10,23;2,16;10,23;0;0;
28531;-13,78;-8,43;-13,78;-8,43;1,82;9,79;1,82;9,79;0;0;
28549;-17,32;-14,12;-17,32;-14,12;1,74;8,92;1,74;8,92;0;0;
28570;-15,63;-10,62;-15,63;-10,62;1,74;8,93;1,74;8,93;0;0;
28588;-19,66;-3,95;-19,66;-3,95;1,58;9,9;1,58;9,9;0;0;
28606;-19,66;-3,95;-19,66;-3,95;1,33;9,93;1,33;9,93;0;0;
28623;-16,4;-10,9;-16,4;-10,9;1,46;8,95;1,46;8,95;0;0;
28642;-18,16;-1,59;-18,16;-1,59;1,54;9,62;1,54;9,62;0;0;
28660;-16,13;-9,23;-16,13;-9,23;1,48;9,68;1,48;9,68;0;0;
28678;-11,5;4,95;-11,5;4,95;1,55;10,66;1,55;10,66;0;0;
28699;-19,17;-7,42;-19,17;-7,42;1,98;10,07;1,98;10,07;0;0;
28716;-14,22;-2,76;-14,22;-2,76;1,96;9,06;1,96;9,06;0;0;
28734;-17,98;-5,24;-17,98;-5,24;1,92;10,29;1,92;10,29;0;0;
28752;-19,83;-10,42;-19,83;-10,42;2,21;7,78;2,21;7,78;0;0;
28772;-16,99;-12,64;-16,99;-12,64;2,45;6,23;2,45;6,23;0;0;
28789;-17,17;-6,42;-17,17;-6,42;2,25;5,16;2,25;5,16;0;0;
28805;-17,17;-6,42;-17,17;-6,42;2,05;5,04;2,05;5,04;0;0;
28823;12;-7,08;12;-7,08;4,4;4,13;4,4;4,13;0;0;
28842;73,1;3,61;73,1;3,61;17,77;3,03;17,77;3,03;1;0;
28865;86,6;-15,89;86,6;-15,89;46,13;4,33;46,13;4,33;1;0;
28884;-76,49;-12,65;-76,49;-12,65;61,7;4,57;61,7;4,57;1;0;
28903;-354,95;-1,79;-354,95;-1,79;101,76;4,88;101,76;4,88;1;0;
28922;-117,83;-12,83;-117,83;-12,83;128,05;4,76;128,05;4,76;1;0;
28944;-253,8;-8,59;-253,8;-8,59;143,07;5,22;143,07;5,22;0;0;
28965;129,68;-7,56;129,68;-7,56;158,51;4,42;158,51;4,42;0;0;
28984;-56,11;-9,15;-56,11;-9,15;154,83;3,84;154,83;3,84;0;0;
29003;-9,32;-7,9;-9,32;-7,9;143,59;3,36;143,59;3,36;0;0;
29026;-31,61;-7,55;-31,61;-7,55;120,24;3,01;120,24;3,01;0;0;
29044;-9,55;-10,18;-9,55;-10,18;98,04;2,68;98,04;2,68;0;0;
29062;-17,76;-8,26;-17,76;-8,26;63,64;2,35;63,64;2,35;0;0;
29081;-22,53;-16,23;-22,53;-16,23;43,79;2,22;43,79;2,22;0;0;
29099;1,76;-5,7;1,76;-5,7;26,97;3,23;26,97;3,23;0;0;
29116;-5,01;3,06;-5,01;3,06;14,32;7,12;14,32;7,12;0;0;
29135;-12,33;-7,59;-12,33;-7,59;21,25;9,2;21,25;9,2;0;0;
29154;28,56;-76,34;28,56;-76,34;23,95;19,18;23,95;19,18;0;0;
29172;-6,62;-6,78;-6,62;-6,78;23,67;21,45;23,67;21,45;0;0;
29190;24,38;3,06;24,38;3,06;20,91;21,33;20,91;21,33;0;0;
29208;-21,4;-10,82;-21,4;-10,82;22,63;20,22;22,63;20,22;0;0;
29228;-16,85;-12,77;-16,85;-12,77;16,09;17,9;16,09;17,9;0;0;
29245;-16,85;-12,77;-16,85;-12,77;10;13,37;10;13,37;0;0;
29264;-15,65;-8,79;-15,65;-8,79;7,47;6,57;7,47;6,57;0;0;
29283;-15,57;-57,22;-15,57;-57,22;7,07;9,12;7,07;9,12;0;0;
29300;-16,03;-14,48;-16,03;-14,48;3,37;10,41;3,37;10,41;0;0;
29319;-12,49;6,85;-12,49;6,85;2,59;10,65;2,59;10,65;0;0;
29337;-18,66;-2,15;-18,66;-2,15;2,47;11,8;2,47;11,8;0;0;
29357;-19,78;-22,65;-19,78;-22,65;2,41;12,03;2,41;12,03;0;0;
29377;-17,47;-2,25;-17,47;-2,25;2,3;11,51;2,3;11,51;0;0;
29396;-14,59;-13,95;-14,59;-13,95;2,38;7,69;2,38;7,69;0;0;
29415;-14,48;-32,28;-14,48;-32,28;2,16;7,47;2,16;7,47;0;0;
29435;-15,27;-3,7;-15,27;-3,7;1,77;10,7;1,77;10,7;0;0;
29452;-14,13;-1,35;-14,13;-1,35;1,69;9,17;1,69;9,17;0;0;
29470;-15,57;-36,59;-15,57;-36,59;1,72;9,16;1,72;9,16;0;0;
29489;-18,81;-35,01;-18,81;-35,01;1,71;9,81;1,71;9,81;0;0;
29508;-18,18;-11,32;-18,18;-11,32;1,67;9,09;1,67;9,09;0;0;
29525;-18,18;-11,32;-18,18;-11,32;1,7;7,29;1,7;7,29;0;0;
29545;-19,67;-12,25;-19,67;-12,25;1,87;4,91;1,87;4,91;0;0;
29566;-15,47;-10,03;-15,47;-10,03;1,9;5,54;1,9;5,54;0;0;
29586;-20,48;84;-20,48;84;1,99;6,92;1,99;6,92;0;0;
29607;-16,79;-4,37;-16,79;-4,37;1,98;6,85;1,98;6,85;0;0;
29627;-16,04;-3,71;-16,04;-3,71;2,22;6,48;2,22;6,48;0;0;
29644;-19,04;-6,02;-19,04;-6,02;2,28;6,37;2,28;6,37;0;0;
29662;-17,52;-9,4;-17,52;-9,4;2,41;5,72;2,41;5,72;0;0;
29682;-16,48;-31,85;-16,48;-31,85;2,35;6,19;2,35;6,19;0;0;
29701;-20,61;-4,6;-20,61;-4,6;2,22;3,29;2,22;3,29;0;0;
29720;-16,85;0,27;-16,85;0,27;2,08;4,56;2,08;4,56;0;0;
29740;-16,88;-7,93;-16,88;-7,93;1,94;4,38;1,94;4,38;0;0;
29759;-16,14;-40,45;-16,14;-40,45;1,72;5,99;1,72;5,99;0;0;
29779;-17,35;-7,42;-17,35;-7,42;1,68;6,13;1,68;6,13;0;0;
29797;-15,74;-7,04;-15,74;-7,04;1,57;6,03;1,57;6,03;0;0;
29841;-15,02;-10,38;-15,02;-10,38;1,48;6,14;1,48;6,14;0;0;
29862;-17,26;-9,08;-17,26;-9,08;1,48;4,9;1,48;4,9;0;0;
29882;-15,67;-3,16;-15,67;-3,16;1,5;3,86;1,5;3,86;0;0;
29901;-20,07;-8,86;-20,07;-8,86;1,41;5,74;1,41;5,74;0;0;
29920;-19,88;-6,41;-19,88;-6,41;1,46;8,39;1,46;8,39;0;0;
29937;-17,17;-7,27;-17,17;-7,27;1,62;8,95;1,62;8,95;0;0;
29956;-15,04;-11,3;-15,04;-11,3;1,51;8,78;1,51;8,78;0;0;
29975;-18,73;-7,22;-18,73;-7,22;1,54;8,77;1,54;8,77;0;0;
29993;-13,64;-7,09;-13,64;-7,09;1,73;7,66;1,73;7,66;0;0;
30010;-17,74;-8,25;-17,74;-8,25;1,9;4,53;1,9;4,53;0;0;
30028;-17,42;-3,51;-17,42;-3,51;1,91;2,49;1,91;2,49;0;0;
30046;-17,42;-3,51;-17,42;-3,51;1,81;2,26;1,81;2,26;0;0;
30063;-17,4;-12,4;-17,4;-12,4;1,86;3,01;1,86;3,01;0;0;
30082;-13,19;-4,09;-13,19;-4,09;1,9;3,84;1,9;3,84;0;0;
30102;-16,66;-3,86;-16,66;-3,86;1,64;4,48;1,64;4,48;0;0;
30119;-15,64;-9,89;-15,64;-9,89;1,64;4,03;1,64;4,03;0;0;
30137;-18,72;-9,25;-18,72;-9,25;1,68;4,1;1,68;4,1;0;0;
30156;-16,32;-3,37;-16,32;-3,37;1,73;3,94;1,73;3,94;0;0;
30176;-19,58;-8,39;-19,58;-8,39;1,71;3,36;1,71;3,36;0;0;
30196;-20,16;-9,09;-20,16;-9,09;1,77;2,85;1,77;2,85;0;0;
30215;-13,77;-9,5;-13,77;-9,5;1,8;3,99;1,8;3,99;0;0;
30234;-15,51;-7,1;-15,51;-7,1;1,8;4,12;1,8;4,12;0;0;
30253;-18,7;-8,76;-18,7;-8,76;1,89;3,97;1,89;3,97;0;0;
30271;-19,05;-6,77;-19,05;-6,77;2,02;3,41;2,02;3,41;0;0;
30289;-14,88;-9,13;-14,88;-9,13;1,89;3,15;1,89;3,15;0;0;
30308;-16,41;-10,03;-16,41;-10,03;1,9;3,23;1,9;3,23;0;0;
30325;-16,41;-10,03;-16,41;-10,03;1,88;3,41;1,88;3,41;0;0;
30343;-17,13;-3,38;-17,13;-3,38;1,87;3,49;1,87;3,49;0;0;
30362;-14,65;-35,79;-14,65;-35,79;1,69;4,18;1,69;4,18;0;0;
30381;-15,94;-6,18;-15,94;-6,18;1,75;5,12;1,75;5,12;0;0;
30401;-14,97;-3,86;-14,97;-3,86;1,85;4,8;1,85;4,8;0;0;
30419;-19,05;-10,37;-19,05;-10,37;1,87;4,09;1,87;4,09;0;0;
30439;-19,46;-13,05;-19,46;-13,05;2,02;4,24;2,02;4,24;0;0;
30457;-17,95;-7,78;-17,95;-7,78;2,04;4,93;2,04;4,93;0;0;
30475;-12,58;-10;-12,58;-10;2,19;3,64;2,19;3,64;0;0;
30494;-13,18;-6,26;-13,18;-6,26;2,25;3,37;2,25;3,37;0;0;
30513;-18,74;-10,2;-18,74;-10,2;2,12;3,49;2,12;3,49;0;0;
30530;-14,63;-8,4;-14,63;-8,4;2,05;3,24;2,05;3,24;0;0;
30549;-19,55;-7,21;-19,55;-7,21;1,98;2,13;1,98;2,13;0;0;
30567;-16,85;-10,47;-16,85;-10,47;1,81;3,12;1,81;3,12;0;0;
30588;-16,01;-9,18;-16,01;-9,18;1,71;3,59;1,71;3,59;0;0;
30607;-12,63;-11,25;-12,63;-11,25;1,92;3,5;1,92;3,5;0;0;
30624;-12,63;-11,25;-12,63;-11,25;2,14;3,34;2,14;3,34;0;0;
30643;-12,51;-10,71;-12,51;-10,71;2,27;3,22;2,27;3,22;0;0;
30660;-19,62;-9,09;-19,62;-9,09;2,15;2,36;2,15;2,36;0;0;
30679;-19,13;-3,26;-19,13;-3,26;2,19;1,99;2,19;1,99;0;0;
30697;-15,55;-3,97;-15,55;-3,97;2,12;2,57;2,12;2,57;0;0;
30715;-15,52;-16,25;-15,52;-16,25;1,96;3,79;1,96;3,79;0;1;
30734;-17,19;-49,28;-17,19;-49,28;1,67;7,58;1,67;7,58;0;1;
30758;-17,06;50,92;-17,06;50,92;1,73;11,76;1,73;11,76;0;1;
30777;-20,16;15,03;-20,16;15,03;1,7;18,09;1,7;18,09;0;1;
30795;-11,92;-2,95;-11,92;-2,95;1,71;19,8;1,71;19,8;0;1;
30814;-14,19;0,03;-14,19;0,03;1,87;19,22;1,87;19,22;0;1;
30834;-7,86;-154,89;-7,86;-154,89;3,7;31,83;3,7;31,83;0;1;
30855;-6,01;-56,43;-6,01;-56,43;8,26;45,8;8,26;45,8;0;0;
30875;-18,56;54,71;-18,56;54,71;10,72;79,59;10,72;79,59;0;0;
30900;-16,34;-0,81;-16,34;-0,81;11,76;84,95;11,76;84,95;0;0;
30919;-13,92;-8,67;-13,92;-8,67;11,76;89,54;11,76;89,54;0;0;
30939;-19,36;14,34;-19,36;14,34;11,62;91,99;11,62;91,99;0;0;
30958;-9;-21,38;-9;-21,38;14,02;76,02;14,02;76,02;0;0;
30976;-61,25;24,96;-61,25;24,96;15,24;52,49;15,24;52,49;0;0;
30994;-11,9;-113,03;-11,9;-113,03;14,37;49,1;14,37;49,1;0;0;
31013;-34,84;80,36;-34,84;80,36;15,27;59,01;15,27;59,01;0;0;
31030;-20,4;-15,72;-20,4;-15,72;16,93;63,6;16,93;63,6;0;0;
31049;-12,43;-0,18;-12,43;-0,18;15,33;63,8;15,33;63,8;0;0;
31069;-15,28;-0,19;-15,28;-0,19;8,78;63,71;8,78;63,71;0;0;
31089;-18,22;-60,16;-18,22;-60,16;5,23;61,38;5,23;61,38;0;0;
31109;-20,06;-44,83;-20,06;-44,83;4,5;52,73;4,5;52,73;0;0;
31126;-20,06;-44,83;-20,06;-44,83;2,7;49,56;2,7;49,56;0;0;
31143;-20,43;3,11;-20,43;3,11;2,57;53,9;2,57;53,9;0;0;
31162;-18,13;15,36;-18,13;15,36;2,56;56,18;2,56;56,18;0;0;
31180;-17,16;74,69;-17,16;74,69;2,55;60,93;2,55;60,93;0;0;
31198;-18,16;-4,04;-18,16;-4,04;2,2;49,1;2,2;49,1;0;0;
31215;-15,67;-124,26;-15,67;-124,26;2,04;44,18;2,04;44,18;0;0;
31233;-11,87;6,88;-11,87;6,88;1,98;40,3;1,98;40,3;0;0;
31252;-15,67;-8,58;-15,67;-8,58;1,87;38,52;1,87;38,52;0;0;
31269;-12,69;21,17;-12,69;21,17;1,97;39,88;1,97;39,88;0;0;
31287;-20,4;-106,71;-20,4;-106,71;2,24;39,46;2,24;39,46;0;0;
31304;-20,4;-106,71;-20,4;-106,71;2,44;40,21;2,44;40,21;0;0;
31323;-18,86;-49,72;-18,86;-49,72;2,48;34,55;2,48;34,55;0;0;
31340;-15,89;-14,96;-15,89;-14,96;2,48;32,16;2,48;32,16;0;0;
31360;-22,45;-4,14;-22,45;-4,14;2,29;28,57;2,29;28,57;0;0;
31379;-14,26;-27,67;-14,26;-27,67;2,58;22,71;2,58;22,71;0;0;
31398;-14,57;-2,07;-14,57;-2,07;2,3;20,1;2,3;20,1;0;0;
31417;-15,21;2,47;-15,21;2,47;2,11;18,6;2,11;18,6;0;0;
31435;-16,94;11,49;-16,94;11,49;1,75;18,98;1,75;18,98;0;0;
31453;-14,57;-12,5;-14,57;-12,5;1,98;18,08;1,98;18,08;0;0;
31470;-18,16;18,7;-18,16;18,7;1,73;18,31;1,73;18,31;0;0;
31488;-19,28;-12,17;-19,28;-12,17;1,73;18,7;1,73;18,7;0;0;
31509;-18,17;-2,73;-18,17;-2,73;1,91;13,08;1,91;13,08;0;0;
31525;-18,17;-2,73;-18,17;-2,73;2,16;8,86;2,16;8,86;0;0;
31542;-17,37;32,28;-17,37;32,28;2;6,81;2;6,81;0;0;
31562;-17,41;43,36;-17,41;43,36;2,16;8,01;2,16;8,01;0;0;
31581;-17,73;-14,42;-17,73;-14,42;2,25;8,18;2,25;8,18;0;0;
31599;-16,86;-9,76;-16,86;-9,76;2,13;8,29;2,13;8,29;0;0;
31617;-16,86;-9,14;-16,86;-9,14;1,93;10,26;1,93;10,26;0;0;
31638;-17,26;-5,36;-17,26;-5,36;1,69;9,69;1,69;9,69;0;0;
31657;-17,71;-9,55;-17,71;-9,55;1,77;7,61;1,77;7,61;0;0;
31674;-14,19;21,33;-14,19;21,33;1,55;5,54;1,55;5,54;0;0;
31693;-18,94;-11,79;-18,94;-11,79;1,66;5,74;1,66;5,74;0;0;
31711;-20,32;-4,92;-20,32;-4,92;1,68;7,08;1,68;7,08;0;0;
31730;-17,18;-6,2;-17,18;-6,2;1,82;6,76;1,82;6,76;0;0;
31748;-17,38;-6,68;-17,38;-6,68;1,95;6,54;1,95;6,54;0;0;
31768;-16,52;-1,51;-16,52;-1,51;1,81;6,42;1,81;6,42;0;0;
31785;-16,52;-1,51;-16,52;-1,51;1,68;4,67;1,68;4,67;0;0;
31803;-19,75;-4,71;-19,75;-4,71;1,47;4,18;1,47;4,18;0;0;
31821;-22,34;-16,12;-22,34;-16,12;1,34;1,7;1,34;1,7;0;0;
31839;-13,32;-7,48;-13,32;-7,48;1,52;2,56;1,52;2,56;0;0;
31858;-18,92;-8,12;-18,92;-8,12;1,71;2,81;1,71;2,81;0;0;
31876;-15,12;-3,96;-15,12;-3,96;1,83;3,02;1,83;3,02;0;0;
31894;-18,39;-6,15;-18,39;-6,15;2;3,02;2;3,02;0;0;
31912;-13,96;-4,73;-13,96;-4,73;2,01;3,14;2,01;3,14;0;0;
31930;-18,87;-7,57;-18,87;-7,57;1,95;2,4;1,95;2,4;0;0;
31948;-16,9;8,23;-16,9;8,23;1,72;3,14;1,72;3,14;0;0;
31965;-16,9;8,23;-16,9;8,23;1,63;3,81;1,63;3,81;0;0;
31983;-18,52;-8,26;-18,52;-8,26;1,61;3,68;1,61;3,68;0;0;
32000;-17,06;-10,33;-17,06;-10,33;1,69;3,89;1,69;3,89;0;0;
32018;-17,71;-14,7;-17,71;-14,7;1,62;4,11;1,62;4,11;0;0;
32039;-17,14;-7,52;-17,14;-7,52;1,58;4,36;1,58;4,36;0;0;
32058;-15,52;15,86;-15,52;15,86;1,72;4,32;1,72;4,32;0;0;
32077;-16;-5,29;-16;-5,29;1,77;4,26;1,77;4,26;0;0;
32095;-14,72;-9,56;-14,72;-9,56;1,73;4,06;1,73;4,06;0;0;
32114;-21,63;-8,12;-21,63;-8,12;1,86;4,26;1,86;4,26;0;0;
32132;-13,5;-5,35;-13,5;-5,35;2,03;3,24;2,03;3,24;0;0;
32152;-19,29;-7,16;-19,29;-7,16;1,92;3,15;1,92;3,15;0;0;
32168;-17,54;-7,43;-17,54;-7,43;2,01;2,44;2,01;2,44;0;0;
32186;-17,54;-7,43;-17,54;-7,43;1,98;2,06;1,98;2,06;0;0;
32205;-16,3;-8,72;-16,3;-8,72;2,09;3,23;2,09;3,23;0;0;
32222;-16,88;-17,1;-16,88;-17,1;2,08;4,12;2,08;4,12;0;0;
32240;-17,89;-8,99;-17,89;-8,99;2,06;4,13;2,06;4,13;0;0;
32258;-14,94;-5,51;-14,94;-5,51;1,99;3,95;1,99;3,95;0;0;
32275;-15,92;-7,29;-15,92;-7,29;1,9;3,71;1,9;3,71;0;0;
32292;-21,72;-8,37;-21,72;-8,37;1,91;2,74;1,91;2,74;0;0;
32310;-17,67;-8,58;-17,67;-8,58;1,73;2,43;1,73;2,43;0;0;
32327;-16,21;1,56;-16,21;1,56;1,7;3,74;1,7;3,74;0;0;
32345;-16,21;1,56;-16,21;1,56;1,77;5,58;1,77;5,58;0;0;
32366;-18,1;-6,92;-18,1;-6,92;1,66;5,65;1,66;5,65;0;0;
32384;-14,4;-8,39;-14,4;-8,39;1,5;5,59;1,5;5,59;0;0;
32402;-19,53;-7,63;-19,53;-7,63;1,38;5,36;1,38;5,36;0;0;
32422;-14,83;-7,77;-14,83;-7,77;1,49;4,78;1,49;4,78;0;0;
32439;-12,47;-13,51;-12,47;-13,51;1,68;3,15;1,68;3,15;0;0;
32457;-15,01;-10,37;-15,01;-10,37;1,72;2,2;1,72;2,2;0;0;
32475;-14,55;13,18;-14,55;13,18;1,88;3,95;1,88;3,95;0;0;
32493;-18,08;-5,44;-18,08;-5,44;1,96;4;1,96;4;0;0;
32514;-18,07;-3,38;-18,07;-3,38;2,14;4,06;2,14;4,06;0;0;
32534;-18,77;-6,52;-18,77;-6,52;2,06;4,23;2,06;4,23;0;0;
32554;-17,3;-7,05;-17,3;-7,05;2,19;3,9;2,19;3,9;0;0;
32573;-18,73;-2,85;-18,73;-2,85;2,24;3,27;2,24;3,27;0;0;
32593;9,93;-5,68;9,93;-5,68;4,3;1,8;4,3;1,8;1;0;
32612;-100,04;-2,65;-100,04;-2,65;22,9;2,39;22,9;2,39;1;0;
32632;-66,21;-11,56;-66,21;-11,56;62,05;2,86;62,05;2,86;1;0;
32650;-19,75;-12,33;-19,75;-12,33;89,87;3,43;89,87;3,43;1;0;
32671;284,25;-7,15;284,25;-7,15;115,28;3,9;115,28;3,9;1;0;
32692;-17,1;-20,72;-17,1;-20,72;129,24;4,15;129,24;4,15;1;0;
32714;13,37;-9,87;13,37;-9,87;146,5;4,66;146,5;4,66;0;0;
32736;-54,08;-3,91;-54,08;-3,91;154,93;4,54;154,93;4,54;0;0;
32756;-110,29;-3,07;-110,29;-3,07;128,05;4,47;128,05;4,47;0;0;
32774;-13,13;-3,44;-13,13;-3,44;145,04;4,72;145,04;4,72;0;0;
32796;-3,37;-4,44;-3,37;-4,44;147,22;4,62;147,22;4,62;0;0;
32816;-140,18;-1,43;-140,18;-1,43;143,48;4,1;143,48;4,1;0;0;
32833;-215,13;-12,81;-215,13;-12,81;129,39;3,95;129,39;3,95;0;0;
32851;61,85;-9,51;61,85;-9,51;113,47;4,02;113,47;4,02;0;0;
32871;-222,97;-7,62;-222,97;-7,62;102,97;3,63;102,97;3,63;0;0;
32892;17,3;-8,68;17,3;-8,68;82,36;3,18;82,36;3,18;0;0;
32915;102,27;-3,28;102,27;-3,28;93,56;3,21;93,56;3,21;0;0;
32933;45,35;-25,15;45,35;-25,15;105,13;3,66;105,13;3,66;0;0;
32951;-17,43;3,49;-17,43;3,49;82,4;3,72;82,4;3,72;0;0;
32968;-17,92;-23,92;-17,92;-23,92;75,33;4,7;75,33;4,7;0;0;
32985;-17,92;-23,92;-17,92;-23,92;55,22;6;55,22;6;0;0;
33007;70,14;-1,1;70,14;-1,1;46,46;11,89;46,46;11,89;0;0;
33027;-14,16;-28,51;-14,16;-28,51;40,2;14,15;40,2;14,15;0;0;
33046;-14,16;-28,51;-14,16;-28,51;38,84;15,95;38,84;15,95;0;0;
33066;-18,58;66,64;-18,58;66,64;38,48;19,43;38,48;19,43;0;0;
33086;-15,19;-9,21;-15,19;-9,21;37,31;18,66;37,31;18,66;0;0;
33104;-18,95;-7,94;-18,95;-7,94;36,58;14,41;36,58;14,41;0;0;
33123;-10,98;6,69;-10,98;6,69;25,35;15,13;25,35;15,13;0;0;
33142;-13,21;56,59;-13,21;56,59;10,23;15,8;10,23;15,8;0;0;
33161;-20,52;2,07;-20,52;2,07;2,17;18,53;2,17;18,53;0;0;
33179;-16,16;-11,78;-16,16;-11,78;2,29;16,28;2,29;16,28;0;0;
33198;-18;-8,52;-18;-8,52;2,23;15,93;2,23;15,93;0;0;
33215;-18,42;-9,11;-18,42;-9,11;2,2;15,05;2,2;15,05;0;0;
33232;-19,25;-50,64;-19,25;-50,64;2,07;13,33;2,07;13,33;0;0;
33249;-14,57;-5,72;-14,57;-5,72;1,97;8,81;1,97;8,81;0;0;
33266;-14,57;-5,72;-14,57;-5,72;1,75;4,94;1,75;4,94;0;0;
33285;-11,93;-49,88;-11,93;-49,88;1,61;6,5;1,61;6,5;0;0;
33303;-19,83;-20,74;-19,83;-20,74;1,9;9,38;1,9;9,38;0;0;
33321;-11,05;-11,15;-11,05;-11,15;2,08;9,27;2,08;9,27;0;0;
33338;-16,38;3,88;-16,38;3,88;2,02;9,2;2,02;9,2;0;0;
33358;-19,53;-5,69;-19,53;-5,69;2;8,76;2;8,76;0;0;
33375;-14,24;0,06;-14,24;0,06;2,13;8,74;2,13;8,74;0;0;
33395;-15,24;-18,26;-15,24;-18,26;2,09;11,2;2,09;11,2;0;0;
33415;-12,75;-5,28;-12,75;-5,28;1,97;6,78;1,97;6,78;0;0;
33433;-15,88;9,9;-15,88;9,9;1,86;5,54;1,86;5,54;0;0;
33451;-18,6;-6,66;-18,6;-6,66;1,86;5,18;1,86;5,18;0;0;
33469;-14,29;-6,69;-14,29;-6,69;1,84;5,02;1,84;5,02;0;0;
33488;-17,89;-7,25;-17,89;-7,25;1,92;3,59;1,92;3,59;0;0;
33507;-17,89;-7,25;-17,89;-7,25;2,08;2,32;2,08;2,32;0;0;
33524;-14,38;-6,94;-14,38;-6,94;2,11;2,54;2,11;2,54;0;0;
33542;-18,06;-34,55;-18,06;-34,55;1,85;2,69;1,85;2,69;0;0;
33562;-17,2;-11,38;-17,2;-11,38;2,03;3,15;2,03;3,15;0;0;
33579;-17,44;-6,67;-17,44;-6,67;2,09;3,07;2,09;3,07;0;0;
33599;-18,81;-5,01;-18,81;-5,01;2,07;3,12;2,07;3,12;0;0;
33620;-15,44;-8,01;-15,44;-8,01;2;2,84;2;2,84;0;0;
33644;-15,11;-10,78;-15,11;-10,78;1,99;3,49;1,99;3,49;0;0;
33662;-19,7;-6,57;-19,7;-6,57;2,02;2,53;2,02;2,53;0;0;
33680;-19,34;-11,1;-19,34;-11,1;1,99;2,86;1,99;2,86;0;0;
33700;-13,92;-8,45;-13,92;-8,45;2,19;4,18;2,19;4,18;0;0;
33718;-18,81;-7,42;-18,81;-7,42;2,08;4,38;2,08;4,38;0;0;
33738;-15,55;-5,32;-15,55;-5,32;2,01;4,09;2,01;4,09;0;0;
33758;-22,55;2,5;-22,55;2,5;2,06;4,04;2,06;4,04;0;0;
33774;-16,63;-9,19;-16,63;-9,19;2,02;3,54;2,02;3,54;0;0;
33793;-16,35;-9,05;-16,35;-9,05;1,72;3,26;1,72;3,26;0;0;
33813;-16,95;-11,09;-16,95;-11,09;1,71;3,03;1,71;3,03;0;0;
33830;-12,23;-10,74;-12,23;-10,74;1,78;3,05;1,78;3,05;0;0;
33847;-12,23;-10,74;-12,23;-10,74;1,91;3,12;1,91;3,12;0;0;
33865;-9,49;-14,67;-9,49;-14,67;2,02;3,53;2,02;3,53;0;0;
33884;-16,28;-4,72;-16,28;-4,72;2,21;3,42;2,21;3,42;0;0;
33903;-19,53;-12,66;-19,53;-12,66;2,46;2,78;2,46;2,78;0;0;
33921;-22,33;-8,26;-22,33;-8,26;2,65;2,56;2,65;2,56;0;0;
33941;-14,31;15,6;-14,31;15,6;2,56;2,94;2,56;2,94;0;0;
33960;-16,38;-9,87;-16,38;-9,87;2,32;3,07;2,32;3,07;0;0;
33979;-21,63;-9,32;-21,63;-9,32;2,04;3,25;2,04;3,25;0;0;
33998;-16,09;-6,74;-16,09;-6,74;1,83;3,74;1,83;3,74;0;0;
34021;-18,43;-10,83;-18,43;-10,83;1,88;3,56;1,88;3,56;0;0;
34039;-13,94;-13,29;-13,94;-13,29;1,84;4,01;1,84;4,01;0;0;
34058;-15,66;-12,58;-15,66;-12,58;1,86;3,23;1,86;3,23;0;0;
34078;-16,33;-11,58;-16,33;-11,58;1,85;2,94;1,85;2,94;0;0;
34097;-18,54;-7,59;-18,54;-7,59;1,68;3,05;1,68;3,05;0;0;
34115;-16,87;-4,18;-16,87;-4,18;1,64;3,38;1,64;3,38;0;0;
34133;-16,45;-5,55;-16,45;-5,55;1,5;3,33;1,5;3,33;0;0;
34155;-17,5;-6,66;-17,5;-6,66;1,6;3,12;1,6;3,12;0;0;
34174;-16,47;-7,86;-16,47;-7,86;1,56;3,09;1,56;3,09;0;0;
34192;-15,96;-6,42;-15,96;-6,42;1,57;2,36;1,57;2,36;0;0;
34213;-17,2;-10,54;-17,2;-10,54;1,54;1,76;1,54;1,76;0;0;
34231;-18,45;-3;-18,45;-3;1,45;1,69;1,45;1,69;0;0;
34249;-14,6;-3,45;-14,6;-3,45;1,49;2,37;1,49;2,37;0;0;
34267;-14,6;-3,45;-14,6;-3,45;1,47;3,23;1,47;3,23;0;0;
34286;-16,02;-7,06;-16,02;-7,06;1,84;3,49;1,84;3,49;0;0;
34304;-20,3;-6,06;-20,3;-6,06;1,87;3,55;1,87;3,55;0;0;
34321;-13,88;-9,7;-13,88;-9,7;1,97;3,6;1,97;3,6;0;0;
34338;-16,87;-10,02;-16,87;-10,02;1,99;4,66;1,99;4,66;0;0;
34356;-18,99;-38,34;-18,99;-38,34;2,09;5,78;2,09;5,78;0;0;
34375;-19,42;-63,48;-19,42;-63,48;1,87;8,31;1,87;8,31;0;0;
34395;-17,85;-19,08;-17,85;-19,08;2,15;8,95;2,15;8,95;0;0;
34414;-16,11;13,8;-16,11;13,8;2,09;14,06;2,09;14,06;0;0;
34431;-19,52;40,52;-19,52;40,52;2,41;20,15;2,41;20,15;0;0;
34450;-19,52;40,52;-19,52;40,52;2,88;26,6;2,88;26,6;0;0;
34467;-19,52;40,52;-19,52;40,52;3,05;31,24;3,05;31,24;0;0;
34485;-13,09;-54,03;-13,09;-54,03;3,02;37,09;3,02;37,09;0;0;
34502;-11,83;43,53;-11,83;43,53;3,71;43,95;3,71;43,95;0;0;
34521;-23,4;-2,53;-23,4;-2,53;4,55;43,33;4,55;43,33;0;1;
34540;-0,16;98,59;-0,16;98,59;5,51;60,5;5,51;60,5;0;1;
34561;-7,81;62,85;-7,81;62,85;6,23;68,19;6,23;68,19;0;1;
34579;-21,79;-45,87;-21,79;-45,87;7,2;69,48;7,2;69,48;0;1;
34598;-19,37;-74,68;-19,37;-74,68;7,22;70,38;7,22;70,38;0;1;
34617;-17,61;-101,44;-17,61;-101,44;6,52;76,06;6,52;76,06;0;1;
34637;-14,16;-48,08;-14,16;-48,08;5,61;70,88;5,61;70,88;0;1;
34655;-21,02;19,03;-21,02;19,03;4,71;58,03;4,71;58,03;0;1;
34674;-9,57;29,73;-9,57;29,73;4,79;52,17;4,79;52,17;0;1;
34692;-16,93;-13,68;-16,93;-13,68;3,78;45,86;3,78;45,86;0;1;
34711;-10,93;16,98;-10,93;16,98;3,75;39,91;3,75;39,91;0;1;
34732;-22,55;-25,98;-22,55;-25,98;3,85;32,1;3,85;32,1;0;1;
34751;-15,38;54,75;-15,38;54,75;3,99;27,54;3,99;27,54;0;1;
34772;-17,07;-22,37;-17,07;-22,37;3,23;21,94;3,23;21,94;0;1;
34789;-15,81;-12,24;-15,81;-12,24;2,75;25,52;2,75;25,52;0;1;
34805;-15,81;-12,24;-15,81;-12,24;2,84;30,52;2,84;30,52;0;1;
34825;-16,68;-30,79;-16,68;-30,79;2,56;34,33;2,56;34,33;0;1;
34844;-14,1;-106,79;-14,1;-106,79;2,33;36,55;2,33;36,55;0;1;
34866;-16,85;-23,24;-16,85;-23,24;1,96;33,42;1,96;33,42;0;1;
34885;-26,55;-9,1;-26,55;-9,1;3,68;34,53;3,68;34,53;0;0;
34904;-16,18;28,4;-16,18;28,4;3,78;35,33;3,78;35,33;0;0;
34923;-14,63;0,94;-14,63;0,94;3,83;35,73;3,83;35,73;0;0;
34946;-19,12;-24,05;-19,12;-24,05;4,06;32,89;4,06;32,89;0;0;
34966;-18,96;-7,83;-18,96;-7,83;4,19;27,93;4,19;27,93;0;0;
34987;-20,44;-14,5;-20,44;-14,5;4,34;25,29;4,34;25,29;0;0;
35007;-16,01;-15,92;-16,01;-15,92;2,67;20,1;2,67;20,1;0;0;
35025;-16,01;-15,92;-16,01;-15,92;2,51;16,49;2,51;16,49;0;0;
35042;-18,08;-32,92;-18,08;-32,92;2,29;13,67;2,29;13,67;0;0;
35060;-15,02;-12,31;-15,02;-12,31;2,49;12,94;2,49;12,94;0;0;
35080;-18,68;-15,89;-18,68;-15,89;2,16;12,79;2,16;12,79;0;0;
35101;-17,9;-13,04;-17,9;-13,04;2,04;11,1;2,04;11,1;0;0;
35124;-15,94;-2,74;-15,94;-2,74;2,03;8,19;2,03;8,19;0;0;
35142;-17,25;-7,66;-17,25;-7,66;2,12;7,57;2,12;7,57;0;0;
35161;-17,55;-11,57;-17,55;-11,57;1,94;5,29;1,94;5,29;0;0;
35177;-16,41;-9,91;-16,41;-9,91;1,81;3,42;1,81;3,42;0;0;
35196;-17,13;-13,41;-17,13;-13,41;1,81;2,76;1,81;2,76;0;0;
35214;-16,71;-7,68;-16,71;-7,68;1,8;3,02;1,8;3,02;0;0;
35234;-18,51;-5,05;-18,51;-5,05;1,74;2,73;1,74;2,73;1;0;
35251;-58,57;-5,69;-58,57;-5,69;2,65;2,68;2,65;2,68;1;0;
35269;54,38;-5,7;54,38;-5,7;7,67;2,51;7,67;2,51;1;0;
35287;54,38;-5,7;54,38;-5,7;12,79;2,61;12,79;2,61;1;0;
35305;-225,45;-9,71;-225,45;-9,71;34,05;2,52;34,05;2,52;1;0;
35322;130,65;-8,15;130,65;-8,15;46,69;2,44;46,69;2,44;1;0;
35340;163,27;2,75;163,27;2,75;79,34;2,91;79,34;2,91;1;0;
35358;-102,83;-15,63;-102,83;-15,63;87,81;3,65;87,81;3,65;1;0;
35379;328,8;-8,12;328,8;-8,12;140;4,26;140;4,26;1;0;
35397;287,08;-6;287,08;-6;155,66;4,46;155,66;4,46;0;0;
35420;41,58;-12,53;41,58;-12,53;168,27;4,24;168,27;4,24;0;0;
35439;-3,83;-4,38;-3,83;-4,38;161,11;4,52;161,11;4,52;0;0;
35456;-105,02;-10,61;-105,02;-10,61;152,21;3,98;152,21;3,98;0;0;
35475;-29;-8,06;-29;-8,06;131,07;3,44;131,07;3,44;0;0;
35493;-33,34;-10,71;-33,34;-10,71;96,21;3,13;96,21;3,13;0;0;
35511;-136,23;-9,16;-136,23;-9,16;79,14;2,75;79,14;2,75;0;0;
35531;167,85;-6,45;167,85;-6,45;68,13;2,76;68,13;2,76;0;0;
35552;37,5;-14,04;37,5;-14,04;71,13;2,8;71,13;2,8;0;0;
35572;-18,81;-10,7;-18,81;-10,7;50,68;3,66;50,68;3,66;0;0;
35593;-15,48;-3,96;-15,48;-3,96;43,71;6,56;43,71;6,56;0;0;
35612;-58,49;-1,97;-58,49;-1,97;41,45;8,58;41,45;8,58;0;0;
35629;192,97;-37,26;192,97;-37,26;37,46;15,84;37,46;15,84;0;0;
35646;192,97;-37,26;192,97;-37,26;29,31;23,28;29,31;23,28;0;0;
35663;-33;-13,26;-33;-13,26;22,94;23,74;22,94;23,74;0;0;
35681;-14,12;-16,17;-14,12;-16,17;22,71;23,58;22,71;23,58;0;0;
35699;-16,23;-8,97;-16,23;-8,97;22,58;21,6;22,58;21,6;0;0;
35718;-19,6;12,48;-19,6;12,48;19,04;19,83;19,04;19,83;0;0;
35735;-17,77;-9,92;-17,77;-9,92;11,02;17,33;11,02;17,33;0;0;
35753;-6,46;-0,68;-6,46;-0,68;4;13,27;4;13,27;0;0;
35770;-17,42;4,63;-17,42;4,63;13,7;12,62;13,7;12,62;0;0;
35787;-17,42;4,63;-17,42;4,63;24,58;12,17;24,58;12,17;0;0;
35804;-13,16;-11,3;-13,16;-11,3;24,64;11,77;24,64;11,77;0;0;
35821;-19,09;-10,15;-19,09;-10,15;24,55;11,96;24,55;11,96;0;0;
35840;-15,96;25,55;-15,96;25,55;24,14;10,02;24,14;10,02;0;0;
35858;-16,98;-22,36;-16,98;-22,36;20,28;9,66;20,28;9,66;0;0;
35878;-15,2;-2,33;-15,2;-2,33;9,46;11,75;9,46;11,75;0;0;
35896;-15,07;-11,78;-15,07;-11,78;2;11,05;2;11,05;0;0;
35942;-16,04;-15,76;-16,04;-15,76;1,8;11,51;1,8;11,51;0;0;
35960;-16,04;-10,9;-16,04;-10,9;1,75;10,17;1,75;10,17;0;0;
35978;-16,26;-6,56;-16,26;-6,56;1,73;8,5;1,73;8,5;0;0;
35999;-13,57;-9,56;-13,57;-9,56;1,76;6,06;1,76;6,06;0;0;
36018;-14,65;-8,94;-14,65;-8,94;1,76;6,75;1,76;6,75;0;0;
36035;-17,74;-11,28;-17,74;-11,28;1,71;6,42;1,71;6,42;0;0;
36052;-17,58;-14,76;-17,58;-14,76;1,76;3,98;1,76;3,98;0;0;
36070;-17,58;-14,76;-17,58;-14,76;1,88;4,08;1,88;4,08;0;0;
36089;-13,84;8,3;-13,84;8,3;1,84;6,27;1,84;6,27;0;0;
36106;-13,84;8,3;-13,84;8,3;1,72;7,08;1,72;7,08;0;0;
36124;-14,43;-10,71;-14,43;-10,71;1,71;9,21;1,71;9,21;0;0;
36142;-12,95;-8;-12,95;-8;1,83;8,67;1,83;8,67;0;0;
36162;-17,18;-7,39;-17,18;-7,39;1,78;8,46;1,78;8,46;0;0;
36179;-12,64;-12,44;-12,64;-12,44;1,79;8,44;1,79;8,44;0;0;
36198;-17,68;12,49;-17,68;12,49;1,87;6,94;1,87;6,94;0;0;
36216;-15,6;-15,67;-15,6;-15,67;2;4,02;2;4,02;0;0;
36236;-17,6;-5,68;-17,6;-5,68;1,91;3,78;1,91;3,78;0;0;
36253;-19,06;-6,86;-19,06;-6,86;2,08;3,73;2,08;3,73;0;0;
36271;-20,19;-10,11;-20,19;-10,11;2,07;3;2,07;3;0;0;
36290;-12,86;-9,14;-12,86;-9,14;2,25;3,05;2,25;3,05;0;0;
36308;-17,63;-7,6;-17,63;-7,6;2,18;2,44;2,18;2,44;0;0;
36324;-17,63;-7,6;-17,63;-7,6;2,11;1,9;2,11;1,9;0;0;
36343;-21;-9,12;-21;-9,12;2,05;1,85;2,05;1,85;0;0;
36364;-17,03;-4,49;-17,03;-4,49;1,86;1,84;1,86;1,84;0;0;
36384;-14,63;-7,76;-14,63;-7,76;1,75;1,58;1,75;1,58;0;0;
36403;-16,62;-5,5;-16,62;-5,5;1,69;1,71;1,69;1,71;0;0;
36422;-15,97;-8,45;-15,97;-8,45;1,92;2,83;1,92;2,83;0;1;
36443;-17,43;-3,59;-17,43;-3,59;2,02;4,48;2,02;4,48;0;1;
36462;-17,37;-7,4;-17,37;-7,4;2,11;6,37;2,11;6,37;0;1;
36481;-16,93;5,04;-16,93;5,04;2,15;9,91;2,15;9,91;0;1;
36501;-14,89;10,34;-14,89;10,34;2,47;14,57;2,47;14,57;0;1;
36519;-13,37;-3,33;-13,37;-3,33;2,28;17,89;2,28;17,89;0;1;
36537;-19,96;-17,1;-19,96;-17,1;2,9;22,11;2,9;22,11;0;1;
36559;-31,77;-97,98;-31,77;-97,98;3,68;44,79;3,68;44,79;0;0;
36581;-10,77;86,26;-10,77;86,26;5,52;73,21;5,52;73,21;0;0;
36600;3,51;180,61;3,51;180,61;8,31;97,71;8,31;97,71;0;0;
36619;-21,35;-75,58;-21,35;-75,58;8,67;105,85;8,67;105,85;0;0;
36636;-12,7;42,74;-12,7;42,74;8,99;109,65;8,99;109,65;0;0;
36654;-19,15;55,29;-19,15;55,29;8,31;110;8,31;110;0;0;
36673;-19,77;-81,92;-19,77;-81,92;7,23;89,48;7,23;89,48;0;0;
36696;-5,56;27,27;-5,56;27,27;5,56;75,4;5,56;75,4;0;0;
36715;-1,04;115,33;-1,04;115,33;5,8;62,59;5,8;62,59;0;0;
36731;-17,48;-7,74;-17,48;-7,74;6,12;57,35;6,12;57,35;0;0;
36752;-17,82;4,92;-17,82;4,92;5,97;51,25;5,97;51,25;0;0;
36770;-19,24;-8,02;-19,24;-8,02;5,71;42,31;5,71;42,31;0;0;
36786;-19,24;-8,02;-19,24;-8,02;5,67;30,11;5,67;30,11;0;0;
36803;-13,9;-37,47;-13,9;-37,47;4,82;23,55;4,82;23,55;0;0;
36821;-3,02;9,83;-3,02;9,83;4,27;18,28;4,27;18,28;0;0;
36841;-10,29;50,56;-10,29;50,56;3,82;29;3,82;29;0;0;
36858;-14,55;-5,41;-14,55;-5,41;3,89;37,51;3,89;37,51;0;0;
36877;-15,17;-28,01;-15,17;-28,01;3,98;41,11;3,98;41,11;0;0;
36897;-12,71;-86,88;-12,71;-86,88;3,7;39,86;3,7;39,86;0;0;
36915;-21,54;-29,07;-21,54;-29,07;3,14;41,85;3,14;41,85;0;0;
36933;-13,97;-54,17;-13,97;-54,17;2,54;38,05;2,54;38,05;0;0;
36951;17,36;30,44;17,36;30,44;3,51;29,65;3,51;29,65;0;0;
36969;-17,25;-51,75;-17,25;-51,75;4,56;27,4;4,56;27,4;0;0;
36988;-9,16;-35,3;-9,16;-35,3;4,69;28,03;4,69;28,03;0;0;
37005;-9,16;-35,3;-9,16;-35,3;4,84;26,03;4,84;26,03;0;0;
37022;-16,19;-8,76;-16,19;-8,76;4,77;21,68;4,77;21,68;0;0;
37039;-16,03;8,27;-16,03;8,27;4,7;18,46;4,7;18,46;0;0;
37058;-18,81;-9,89;-18,81;-9,89;2,86;14,57;2,86;14,57;0;0;
37075;-14,09;-7,58;-14,09;-7,58;2,88;10,88;2,88;10,88;0;0;
37097;-15,08;-13,57;-15,08;-13,57;2,7;6,76;2,7;6,76;0;0;
37114;-14,58;-12,93;-14,58;-12,93;2,37;6,24;2,37;6,24;0;0;
37131;-16,81;-6,28;-16,81;-6,28;2,19;6,37;2,19;6,37;0;0;
37150;-13,94;-7,65;-13,94;-7,65;2,31;5,38;2,31;5,38;0;0;
37169;-16,64;-2,63;-16,64;-2,63;2,05;6,46;2,05;6,46;0;0;
37189;-17,16;-5,86;-17,16;-5,86;2,05;6,46;2,05;6,46;0;0;
37206;-17,16;-5,86;-17,16;-5,86;1,82;4,35;1,82;4,35;0;0;
37225;-14,92;-9,16;-14,92;-9,16;1,72;3,65;1,72;3,65;0;0;
37242;-16,98;-3,54;-16,98;-3,54;1,47;3,78;1,47;3,78;0;0;
37259;-18,59;-9,08;-18,59;-9,08;1,49;3,68;1,49;3,68;0;0;
37279;-16,9;-11,96;-16,9;-11,96;1,47;2,63;1,47;2,63;0;0;
37295;-16,37;-13,12;-16,37;-13,12;1,49;3,12;1,49;3,12;0;0;
37314;-21,29;-9,81;-21,29;-9,81;1,78;3,01;1,78;3,01;0;0;
37332;-15,01;-8,1;-15,01;-8,1;1,81;3,71;1,81;3,71;0;0;
37350;-17,37;-8,76;-17,37;-8,76;1,76;3,63;1,76;3,63;0;0;
37370;-16,06;-7,15;-16,06;-7,15;1,62;3,54;1,62;3,54;0;0;
37387;-13,85;-5,34;-13,85;-5,34;1,74;3,8;1,74;3,8;0;0;
37404;-13,85;-5,34;-13,85;-5,34;1,8;3,59;1,8;3,59;0;0;
37421;-18,2;0,84;-18,2;0,84;1,57;2,9;1,57;2,9;0;0;
37440;-18,63;-6,4;-18,63;-6,4;1,62;3,25;1,62;3,25;0;0;
37459;-14,18;-5,36;-14,18;-5,36;1,74;3,27;1,74;3,27;0;0;
37477;-18,56;-7,25;-18,56;-7,25;1,79;3,14;1,79;3,14;0;0;
37494;-14,42;-7,68;-14,42;-7,68;1,85;2,7;1,85;2,7;0;0;
37512;-15,37;-6,56;-15,37;-6,56;1,87;2,3;1,87;2,3;0;0;
37528;-13,84;-29,77;-13,84;-29,77;1,91;1,9;1,91;1,9;0;0;
37547;-18,4;13,46;-18,4;13,46;1,85;2,87;1,85;2,87;0;0;
37565;-18,4;13,46;-18,4;13,46;1,94;3,83;1,94;3,83;0;0;
37581;-13,04;-6,15;-13,04;-6,15;1,77;3,94;1,77;3,94;0;0;
37599;-13,73;-7,74;-13,73;-7,74;1,79;4,01;1,79;4,01;0;0;
37617;-14,95;-5,15;-14,95;-5,15;1,87;4,1;1,87;4,1;0;0;
37635;-17,28;-9,66;-17,28;-9,66;1,96;3,13;1,96;3,13;0;0;
37656;-17,79;-9,38;-17,79;-9,38;2,02;2,19;2,02;2,19;0;0;
37674;-19,24;-9,57;-19,24;-9,57;2,13;1,54;2,13;1,54;0;0;
37692;-16,09;-8,39;-16,09;-8,39;2;1,6;2;1,6;0;0;
37710;-18,21;-12,89;-18,21;-12,89;1,8;1,85;1,8;1,85;0;0;
37728;-18,37;-5,08;-18,37;-5,08;1,71;2,01;1,71;2,01;0;0;
37747;-16,52;-7,35;-16,52;-7,35;1,59;1,92;1,59;1,92;0;0;
37765;-16,52;-7,35;-16,52;-7,35;1,58;1,87;1,58;1,87;0;0;
37781;-16,96;-7,38;-16,96;-7,38;1,72;2,14;1,72;2,14;0;0;
37800;-16,65;-4,17;-16,65;-4,17;1,71;2,13;1,71;2,13;0;0;
37820;-18,35;-8,57;-18,35;-8,57;1,83;1,81;1,83;1,81;0;0;
37837;-17,45;-8,7;-17,45;-8,7;1,84;2,01;1,84;2,01;0;0;
37855;-15,93;-8,49;-15,93;-8,49;1,82;2,08;1,82;2,08;0;0;
37873;-15,79;-6,03;-15,79;-6,03;1,8;1,78;1,8;1,78;0;0;
37892;-20,31;-5,45;-20,31;-5,45;1,87;1,82;1,87;1,82;0;0;
37909;-16,5;-5,94;-16,5;-5,94;1,88;1,68;1,88;1,68;0;0;
37925;-16,5;-5,94;-16,5;-5,94;1,79;1,48;1,79;1,48;0;0;
37942;-14,87;-4,59;-14,87;-4,59;1,73;1,53;1,73;1,53;0;0;
37960;-20,22;-9,65;-20,22;-9,65;1,77;1,54;1,77;1,54;0;0;
37978;-12,9;-7,8;-12,9;-7,8;2,07;1,58;2,07;1,58;0;0;
37996;-15,97;-0,33;-15,97;-0,33;2,15;1,76;2,15;1,76;0;0;
38016;-17,11;-6,8;-17,11;-6,8;2,35;1,97;2,35;1,97;0;0;
38033;-17,34;-7,05;-17,34;-7,05;2,5;1,88;2,5;1,88;0;0;
38051;-19,66;-8,78;-19,66;-8,78;2,39;1,94;2,39;1,94;0;0;
38069;-19,33;-8,38;-19,33;-8,38;2,23;1,9;2,23;1,9;0;0;
38088;-11,49;-4,02;-11,49;-4,02;2,08;1,97;2,08;1,97;0;0;
38106;-11,49;-4,02;-11,49;-4,02;2,02;1,74;2,02;1,74;0;0;
38124;-18,37;-7,41;-18,37;-7,41;1,82;1,57;1,82;1,57;0;0;
38143;-22,66;-8,02;-22,66;-8,02;1,98;1,6;1,98;1,6;0;0;
38163;-19,38;-8,73;-19,38;-8,73;2,08;1,52;2,08;1,52;0;0;
38181;-13,09;-6,82;-13,09;-6,82;2,17;1,71;2,17;1,71;0;0;
38199;-15,83;-7,06;-15,83;-7,06;2,15;1,66;2,15;1,66;0;0;
38216;-15,83;-7,06;-15,83;-7,06;2,21;1,61;2,21;1,61;0;0;
38234;-19,02;-5,96;-19,02;-5,96;2,43;1,7;2,43;1,7;1;0;
38253;-37,72;-8,36;-37,72;-8,36;4,29;1,74;4,29;1,74;1;0;
38273;10,64;-5,36;10,64;-5,36;7,63;1,66;7,63;1,66;1;0;
38292;9,26;-10,08;9,26;-10,08;17,26;1,86;17,26;1,86;1;0;
38310;145,58;-6,9;145,58;-6,9;31,9;2,16;31,9;2,16;1;0;
38326;145,58;-6,9;145,58;-6,9;46,41;2,45;46,41;2,45;1;0;
38344;-79,03;-2,11;-79,03;-2,11;59,65;2,81;59,65;2,81;1;0;
38363;135,82;-11,77;135,82;-11,77;74,19;2,98;74,19;2,98;1;0;
38383;358,97;-10,08;358,97;-10,08;128,11;3,34;128,11;3,34;1;0;
38405;-70,45;-7,85;-70,45;-7,85;141,16;3,69;141,16;3,69;0;0;
38427;186,88;-10,22;186,88;-10,22;152,02;4;152,02;4;0;0;
38448;-55,73;-3,67;-55,73;-3,67;150,41;3,81;150,41;3,81;0;0;
38471;78,06;-7,53;78,06;-7,53;133,34;3,59;133,34;3,59;0;0;
38492;123,15;-8,82;123,15;-8,82;123,01;3,4;123,01;3,4;0;0;
38512;66,84;-9,13;66,84;-9,13;99,89;3,19;99,89;3,19;0;0;
38530;-22,53;-6,03;-22,53;-6,03;71,53;2,84;71,53;2,84;0;0;
38548;-9,46;-9,68;-9,46;-9,68;50,74;2,4;50,74;2,4;0;0;
38565;-9,46;-9,68;-9,46;-9,68;40,14;2,33;40,14;2,33;0;0;
38580;-4,26;-41,97;-4,26;-41,97;32,55;4,92;32,55;4,92;0;0;
38598;30,37;-19,96;30,37;-19,96;17,06;10,17;17,06;10,17;0;0;
38616;60,03;-12,52;60,03;-12,52;14,3;12,08;14,3;12,08;0;0;
38637;-38,03;-50,13;-38,03;-50,13;18,6;16,52;18,6;16,52;0;0;
38654;65,08;-7,86;65,08;-7,86;24,74;22,16;24,74;22,16;0;0;
38676;-9,04;-8,13;-9,04;-8,13;27,62;22,12;27,62;22,12;0;0;
38692;-13,33;-15,44;-13,33;-15,44;25,29;19,11;25,29;19,11;0;0;
38709;-19,72;-16,76;-19,72;-16,76;20,54;18,65;20,54;18,65;0;0;
38726;-19,72;-16,76;-19,72;-16,76;14,35;16,04;14,35;16,04;0;0;
38747;-14,54;-17,91;-14,54;-17,91;10,95;13,65;10,95;13,65;0;0;
38766;-17,46;-8,83;-17,46;-8,83;3,02;10,61;3,02;10,61;0;0;
38785;-19,57;-7,53;-19,57;-7,53;1,79;9,51;1,79;9,51;0;0;
38802;-17,91;34,92;-17,91;34,92;1,57;8,51;1,57;8,51;0;0;
38821;-18,16;-3,66;-18,16;-3,66;1,47;8,74;1,47;8,74;0;0;
38838;-15,78;-5,98;-15,78;-5,98;1,43;7,9;1,43;7,9;0;0;
38858;-12,05;-3,98;-12,05;-3,98;1,48;6,71;1,48;6,71;0;0;
38875;-18,5;-10,74;-18,5;-10,74;1,49;7,59;1,49;7,59;0;0;
38893;-17,52;-5,68;-17,52;-5,68;1,72;7,21;1,72;7,21;0;0;
38912;-16,71;-11,59;-16,71;-11,59;1,78;6,53;1,78;6,53;0;0;
38930;-17,64;-8,1;-17,64;-8,1;1,81;7,13;1,81;7,13;0;0;
38948;-20,77;34,75;-20,77;34,75;1,95;9,21;1,95;9,21;0;0;
38965;-20,77;34,75;-20,77;34,75;2,03;10,79;2,03;10,79;0;0;
38985;-20,07;-12,04;-20,07;-12,04;2,09;10,48;2,09;10,48;0;0;
39002;-18,38;-6,45;-18,38;-6,45;2,25;8,22;2,25;8,22;0;0;
39021;-13,58;-8,88;-13,58;-8,88;2,39;6,56;2,39;6,56;1;0;
39040;-69,39;-16,36;-69,39;-16,36;16,34;6,6;16,34;6,6;1;0;
39058;-169,06;1,85;-169,06;1,85;52,68;5,19;52,68;5,19;1;0;
39076;190,3;-9,75;190,3;-9,75;83,9;3,93;83,9;3,93;1;0;
39093;44,36;-10,62;44,36;-10,62;103,75;4,24;103,75;4,24;1;0;
39111;-146,72;1,79;-146,72;1,79;125,06;4,75;125,06;4,75;1;0;
39129;-113,6;-5,33;-113,6;-5,33;137,12;4,89;137,12;4,89;1;0;
39149;-411,07;1,05;-411,07;1,05;149,42;4,67;149,42;4,67;0;0;
39171;97,98;-4,5;97,98;-4,5;142,57;4,78;142,57;4,78;0;0;
39190;-125,08;-6,97;-125,08;-6,97;152,18;4,72;152,18;4,72;0;0;
39207;117,7;-5,35;117,7;-5,35;149,79;4,4;149,79;4,4;0;0;
39225;117,7;-5,35;117,7;-5,35;140,18;3,87;140,18;3,87;0;0;
39244;-10,68;-6,68;-10,68;-6,68;116,75;3,44;116,75;3,44;0;0;
39262;-20,56;-7,78;-20,56;-7,78;76,58;2,59;76,58;2,59;0;0;
39282;-17,52;-8,07;-17,52;-8,07;50,44;2,22;50,44;2,22;0;0;
39301;108,15;-13,79;108,15;-13,79;44,87;4,25;44,87;4,25;0;0;
39321;-131,34;-11,54;-131,34;-11,54;47,09;4,73;47,09;4,73;0;0;
39340;-5,06;-16,65;-5,06;-16,65;37,79;7,27;37,79;7,27;0;0;
39366;-26,32;-11,18;-26,32;-11,18;37,34;8,42;37,34;8,42;0;0;
39385;-58,89;-17,01;-58,89;-17,01;40,89;9,22;40,89;9,22;0;0;
39402;78;3,39;78;3,39;45,78;11,66;45,78;11,66;0;0;
39420;-70,83;1,47;-70,83;1,47;39,49;15,68;39,49;15,68;0;0;
39438;-3,22;-6,51;-3,22;-6,51;33,29;17,54;33,29;17,54;0;0;
39456;-18,41;-9,13;-18,41;-9,13;31,74;16,67;31,74;16,67;0;0;
39475;-15,52;-11,29;-15,52;-11,29;30,64;16,11;30,64;16,11;0;0;
39493;-16,41;-6,66;-16,41;-6,66;22,11;14,54;22,11;14,54;0;0;
39510;-14,28;-11,46;-14,28;-11,46;13;12,85;13;12,85;0;0;
39528;-17,73;-37,49;-17,73;-37,49;3,3;10,36;3,3;10,36;0;0;
39549;-17,75;-11,96;-17,75;-11,96;2,29;8,58;2,29;8,58;0;0;
39568;-13,96;-0,44;-13,96;-0,44;2,18;7,54;2,18;7,54;0;0;
39586;-13,96;-0,44;-13,96;-0,44;2,24;7,6;2,24;7,6;0;0;
39605;-18,17;-9,13;-18,17;-9,13;2,16;9;2,16;9;0;0;
39624;-17,12;-12,28;-17,12;-12,28;1,97;9,59;1,97;9,59;0;0;
39643;-17,24;-8,03;-17,24;-8,03;1,87;8,37;1,87;8,37;0;0;
39662;-11,98;-6,92;-11,98;-6,92;2,03;8,36;2,03;8,36;0;0;
39680;-17,7;-13,41;-17,7;-13,41;1,98;8,08;1,98;8,08;0;0;
39700;-12,61;-5,44;-12,61;-5,44;2,2;7,48;2,2;7,48;0;0;
39717;-19,74;-11,3;-19,74;-11,3;2,14;3,68;2,14;3,68;0;0;
39734;-17,5;-9,35;-17,5;-9,35;2,33;3,41;2,33;3,41;0;0;
39753;-20,54;-15,55;-20,54;-15,55;2,11;4,87;2,11;4,87;0;0;
39773;-14,86;-10,57;-14,86;-10,57;1,93;5,28;1,93;5,28;0;0;
39793;-17,3;-8,87;-17,3;-8,87;1,71;5,3;1,71;5,3;0;0;
39810;-20,99;-7,78;-20,99;-7,78;1,79;4,68;1,79;4,68;0;0;
39827;-13,8;-15,23;-13,8;-15,23;1,82;4,6;1,82;4,6;0;0;
39845;-13,8;-15,23;-13,8;-15,23;1,91;3,41;1,91;3,41;0;0;
39866;-14,62;-4,91;-14,62;-4,91;2,08;2,95;2,08;2,95;0;0;
39883;-15,77;9,16;-15,77;9,16;2,28;3,2;2,28;3,2;0;0;
39901;-15,48;-11,08;-15,48;-11,08;2,35;3,69;2,35;3,69;0;0;
39922;-15,28;-4,98;-15,28;-4,98;2,23;3,54;2,23;3,54;0;0;
39942;-12,44;0,13;-12,44;0,13;2,23;3,66;2,23;3,66;0;0;
39963;-14,47;-7,77;-14,47;-7,77;2,19;4,49;2,19;4,49;0;0;
39980;-18,55;0,91;-18,55;0,91;2,06;3,63;2,06;3,63;0;0;
39998;-16,51;-9,64;-16,51;-9,64;2,16;4,69;2,16;4,69;0;0;
40017;-18,19;-8,38;-18,19;-8,38;1,94;4,62;1,94;4,62;0;0;
40036;-16,15;-7,49;-16,15;-7,49;1,71;4,36;1,71;4,36;0;0;
40054;-17,37;-20,68;-17,37;-20,68;1,66;4,45;1,66;4,45;0;0;
40071;-17,36;40,84;-17,36;40,84;1,52;6,99;1,52;6,99;0;0;
40090;-19,92;-8,35;-19,92;-8,35;1,59;7,15;1,59;7,15;0;0;
40107;-18,05;-1,58;-18,05;-1,58;1,7;8,24;1,7;8,24;0;0;
40124;-18,05;-1,58;-18,05;-1,58;1,87;10,3;1,87;10,3;0;0;
40142;-19,38;-2,35;-19,38;-2,35;1,98;10,08;1,98;10,08;0;0;
40160;-15,68;-9,35;-15,68;-9,35;2,19;8,4;2,19;8,4;0;0;
40178;-18,23;-3,03;-18,23;-3,03;2,5;6,98;2,5;6,98;0;0;
40196;-16,8;-9,89;-16,8;-9,89;2,13;6,49;2,13;6,49;1;0;
40215;-14,79;-3,93;-14,79;-3,93;2,01;5,73;2,01;5,73;1;0;
40235;-19,21;-6,07;-19,21;-6,07;2,02;4,25;2,02;4,25;1;0;
40253;-14,58;-8,04;-14,58;-8,04;4,41;4,06;4,41;4,06;1;0;
40269;-4,67;-9,32;-4,67;-9,32;9,04;3,8;9,04;3,8;1;0;
40288;-73,68;-9,49;-73,68;-9,49;27,36;3,05;27,36;3,05;1;0;
40305;-73,68;-9,49;-73,68;-9,49;45,93;2,56;45,93;2,56;1;0;
40322;163,22;-17,74;163,22;-17,74;89,32;1,9;89,32;1,9;1;0;
40340;108,14;-15,96;108,14;-15,96;106,66;2,7;106,66;2,7;1;0;
40362;152,73;-9,54;152,73;-9,54;133,76;3,29;133,76;3,29;1;0;
40383;-489,55;-1,45;-489,55;-1,45;155,65;4,5;155,65;4,5;0;0;
40402;37,32;-4,65;37,32;-4,65;161,75;5,25;161,75;5,25;0;0;
40424;-62,26;-13,7;-62,26;-13,7;142,99;5,26;142,99;5,26;0;0;
40445;14,99;-11,23;14,99;-11,23;122,97;5,14;122,97;5,14;0;0;
40466;-19,9;-8,39;-19,9;-8,39;98,53;4,51;98,53;4,51;0;0;
