Time;EMG1;EMG2;EMG3;EMG4;EMG1_F;EMG2_F;EMG3_F;EMG4_F;Note_R;Note_V;;Level 3;Joueur;Score;Notes hit;% Reussite R;Offset EMG1;Onset EMG1;% Reussite V;Offset EMG2;Onset EMG2
11;-15,01;-35,9;-15,01;-35,9;1,48;1,77;1,48;1,77;0;0;;;1;21000;137;50,50505;-16,38454;21,79261;87,87878;-34,79353;32,98816
31;-17,73;-33,73;-17,73;-33,73;1,52;1,65;1,52;1,65;0;0;;;2;21100;138;51,51515;-16,38454;21,79261;87,87878;-34,79353;32,98816
49;-13,28;-37,29;-13,28;-37,29;1,64;1,71;1,64;1,71;0;0;
67;-17,65;-38,58;-17,65;-38,58;1,65;1,68;1,65;1,68;0;0;
87;-15,4;-37,08;-15,4;-37,08;1,88;1,66;1,88;1,66;0;0;
110;-16,32;-34,39;-16,32;-34,39;1,77;1,6;1,77;1,6;0;0;
132;-20,86;-35,38;-20,86;-35,38;1,96;1,7;1,96;1,7;0;0;
150;-13,51;-34,57;-13,51;-34,57;2,16;1,82;2,16;1,82;0;0;
170;-15,62;-34,23;-15,62;-34,23;2,12;1,66;2,12;1,66;0;0;
188;-16;-35,69;-16;-35,69;1,82;1,48;1,82;1,48;0;0;
207;-18,72;-35,47;-18,72;-35,47;1,87;1,39;1,87;1,39;0;0;
228;-18,69;-33,53;-18,69;-33,53;1,98;1,51;1,98;1,51;0;0;
247;-18,62;-34,07;-18,62;-34,07;1,99;1,57;1,99;1,57;0;0;
271;-16,32;-35,74;-16,32;-35,74;1,84;1,57;1,84;1,57;0;0;
290;-15,27;-35,26;-15,27;-35,26;1,77;1,81;1,77;1,81;0;0;
308;-20,93;-36,99;-20,93;-36,99;1,73;1,87;1,73;1,87;0;0;
328;-16,37;-31,46;-16,37;-31,46;1,59;1,9;1,59;1,9;0;0;
347;-14,48;-35,87;-14,48;-35,87;1,61;1,62;1,61;1,62;0;0;
366;-16,34;-37,13;-16,34;-37,13;1,54;1,8;1,54;1,8;0;0;
384;-16,51;-35,87;-16,51;-35,87;1,55;1,78;1,55;1,78;0;0;
403;-13,87;-34,25;-13,87;-34,25;1,58;1,72;1,58;1,72;0;0;
425;-15,9;-38,49;-15,9;-38,49;1,55;1,8;1,55;1,8;0;0;
444;-14,3;-36,43;-14,3;-36,43;1,51;1,93;1,51;1,93;0;0;
461;-14,68;-33,89;-14,68;-33,89;1,46;1,88;1,46;1,88;0;0;
480;-18,05;-37,07;-18,05;-37,07;1,5;1,72;1,5;1,72;0;0;
499;-19,15;-35,25;-19,15;-35,25;1,51;1,67;1,51;1,67;0;0;
516;-19,15;-35,25;-19,15;-35,25;1,5;1,56;1,5;1,56;0;0;
535;-20,52;-36,64;-20,52;-36,64;1,59;1,34;1,59;1,34;0;0;
553;-16,18;-35,8;-16,18;-35,8;1,8;1,28;1,8;1,28;0;0;
582;-17,95;-33,27;-17,95;-33,27;1,59;1,23;1,59;1,23;0;0;
600;-15,71;-33,95;-15,71;-33,95;1,65;1,22;1,65;1,22;0;0;
617;-13,37;-38,12;-13,37;-38,12;1,67;1,34;1,67;1,34;0;0;
635;-13,37;-38,12;-13,37;-38,12;1,65;1,49;1,65;1,49;0;0;
653;-16,66;-32,73;-16,66;-32,73;1,36;1,48;1,36;1,48;0;0;
671;-17,91;-34,6;-17,91;-34,6;1,32;1,57;1,32;1,57;0;0;
691;-15,06;-36,6;-15,06;-36,6;1,46;1,68;1,46;1,68;0;0;
710;-18,18;-35,6;-18,18;-35,6;1,61;1,83;1,61;1,83;0;0;
732;-19,74;-31,28;-19,74;-31,28;1,59;1,89;1,59;1,89;0;0;
749;-15,96;-39,02;-15,96;-39,02;1,85;1,84;1,85;1,84;0;0;
771;-12,81;-32,78;-12,81;-32,78;1,82;1,82;1,82;1,82;0;0;
789;-12,3;-35,31;-12,3;-35,31;1,83;1,59;1,83;1,59;0;0;
806;-18,84;-38,3;-18,84;-38,3;2,13;1,61;2,13;1,61;0;0;
824;-18,62;-34,48;-18,62;-34,48;2,03;1,42;2,03;1,42;0;0;
841;-13,88;-36,7;-13,88;-36,7;1,91;1,3;1,91;1,3;0;0;
859;-17,08;-37,21;-17,08;-37,21;2,06;1,3;2,06;1,3;0;0;
877;-12,52;-32,93;-12,52;-32,93;2,1;1,42;2,1;1,42;0;0;
899;-15,16;-36;-15,16;-36;1,97;1,46;1,97;1,46;0;0;
916;-15,16;-36;-15,16;-36;1,93;1,56;1,93;1,56;0;0;
936;-19,06;-35,51;-19,06;-35,51;2,08;1,94;2,08;1,94;0;0;
955;-17,87;-34,39;-17,87;-34,39;2,03;2,2;2,03;2,2;0;0;
973;-17,88;-35,61;-17,88;-35,61;1,99;2,15;1,99;2,15;0;0;
991;-19,22;-35,45;-19,22;-35,45;1,99;2,01;1,99;2,01;0;0;
1009;-18,32;-36,87;-18,32;-36,87;2,11;1,93;2,11;1,93;0;0;
1027;-14,44;-35,69;-14,44;-35,69;1,74;1,36;1,74;1,36;0;0;
1049;-15,31;-37,18;-15,31;-37,18;1,62;1,48;1,62;1,48;0;0;
1067;-18,36;-32,52;-18,36;-32,52;1,68;1,38;1,68;1,38;0;0;
1085;-13,79;-35,77;-13,79;-35,77;1,58;1,5;1,58;1,5;0;0;
1105;-19,57;-35,67;-19,57;-35,67;1,66;1,78;1,66;1,78;0;0;
1124;-15,02;-34,27;-15,02;-34,27;1,67;1,86;1,67;1,86;0;0;
1143;-13,49;-35,97;-13,49;-35,97;1,79;1,85;1,79;1,85;0;0;
1162;-18,32;-34,88;-18,32;-34,88;1,92;1,77;1,92;1,77;0;0;
1181;-15,98;-33,41;-15,98;-33,41;1,89;1,75;1,89;1,75;0;0;
1203;-14,19;-35,66;-14,19;-35,66;2,07;1,58;2,07;1,58;0;0;
1222;-18,53;-34,48;-18,53;-34,48;1,88;1,49;1,88;1,49;0;0;
1243;-16,88;-34,78;-16,88;-34,78;1,73;1,53;1,73;1,53;0;0;
1261;-16,9;-34,64;-16,9;-34,64;1,61;1,56;1,61;1,56;0;0;
1281;-18,88;-34,87;-18,88;-34,87;1,57;1,53;1,57;1,53;0;0;
1303;-15,58;-37,78;-15,58;-37,78;1,32;1,54;1,32;1,54;0;0;
1321;-15,83;-33,91;-15,83;-33,91;1,27;1,61;1,27;1,61;0;0;
1340;-14,63;-35,05;-14,63;-35,05;1,51;1,68;1,51;1,68;0;0;
1362;-19,59;-33,89;-19,59;-33,89;1,62;1,55;1,62;1,55;0;0;
1380;-16,69;-36,59;-16,69;-36,59;1,82;1,76;1,82;1,76;0;0;
1399;-16,78;-32,76;-16,78;-32,76;2,01;2,07;2,01;2,07;0;0;
1418;-16,03;-34,53;-16,03;-34,53;1,99;1,86;1,99;1,86;0;0;
1438;-18,92;-34,63;-18,92;-34,63;1,91;2,01;1,91;2,01;0;0;
1455;-18,92;-34,63;-18,92;-34,63;1,71;2,17;1,71;2,17;0;0;
1472;-17,98;-34,34;-17,98;-34,34;1,76;2,36;1,76;2,36;0;0;
1490;-16,02;-35,93;-16,02;-35,93;1,71;2,17;1,71;2,17;0;0;
1511;-13,87;-35,39;-13,87;-35,39;1,67;2,02;1,67;2,02;0;0;
1533;-17,66;-36,83;-17,66;-36,83;1,71;1,92;1,71;1,92;0;0;
1553;-17,51;-33,19;-17,51;-33,19;1,75;1,82;1,75;1,82;0;0;
1574;-18,66;-35,39;-18,66;-35,39;1,59;1,58;1,59;1,58;0;0;
1592;-14,39;-35,76;-14,39;-35,76;1,52;1,44;1,52;1,44;0;0;
1611;-17,93;-33,57;-17,93;-33,57;1,46;1,25;1,46;1,25;0;0;
1628;-17,53;-32,23;-17,53;-32,23;1,42;1,3;1,42;1,3;0;0;
1645;-17,39;-32,54;-17,39;-32,54;1,49;1,46;1,49;1,46;0;0;
1665;-18,96;-37,46;-18,96;-37,46;1,59;1,47;1,59;1,47;0;0;
1690;-16,01;-36,97;-16,01;-36,97;1,66;1,65;1,66;1,65;0;0;
1710;-20,45;-32,29;-20,45;-32,29;1,59;1,57;1,59;1,57;0;0;
1728;-18,06;-35,23;-18,06;-35,23;1,62;1,77;1,62;1,77;0;0;
1749;-16;-33,69;-16;-33,69;1,57;1,79;1,57;1,79;0;0;
1771;-22,88;-39,16;-22,88;-39,16;1,61;1,62;1,61;1,62;0;0;
1789;-17;-38,81;-17;-38,81;1,69;1,67;1,69;1,67;0;0;
1808;-14,1;-36,11;-14,1;-36,11;1,75;1,65;1,75;1,65;0;0;
1827;-19,02;-38,29;-19,02;-38,29;1,73;1,76;1,73;1,76;0;0;
1851;-12,41;-34,94;-12,41;-34,94;1,73;1,59;1,73;1,59;0;0;
1868;-16,32;-36,03;-16,32;-36,03;1,77;1,61;1,77;1,61;0;0;
1886;-17,99;-34,28;-17,99;-34,28;1,67;1,66;1,67;1,66;0;0;
1907;-15,97;-34,58;-15,97;-34,58;1,63;1,6;1,63;1,6;0;0;
1925;-17,83;-37,77;-17,83;-37,77;1,45;1,46;1,45;1,46;0;0;
1943;-18,16;-37,22;-18,16;-37,22;1,54;1,61;1,54;1,61;0;0;
1963;-16,1;-36,9;-16,1;-36,9;1,5;1,8;1,5;1,8;0;0;
1983;-16,51;-33,72;-16,51;-33,72;1,62;1,75;1,62;1,75;0;0;
2005;-14,11;-34,51;-14,11;-34,51;1,59;1,65;1,59;1,65;0;0;
2023;-18,69;-34,51;-18,69;-34,51;1,54;1,73;1,54;1,73;0;0;
2041;-16,29;-35,59;-16,29;-35,59;1,52;1,68;1,52;1,68;0;0;
2059;-17,1;-33,96;-17,1;-33,96;1,53;1,6;1,53;1,6;0;0;
2080;-14,99;-35,14;-14,99;-35,14;1,45;1,34;1,45;1,34;0;0;
2100;-13,93;-36,45;-13,93;-36,45;1,4;1,46;1,4;1,46;0;0;
2118;-19,71;-35,99;-19,71;-35,99;1,51;1,54;1,51;1,54;0;0;
2136;-19,71;-35,99;-19,71;-35,99;1,56;1,65;1,56;1,65;0;0;
2156;-14,66;-35,49;-14,66;-35,49;1,65;1,6;1,65;1,6;0;0;
2175;-19,27;-34,76;-19,27;-34,76;1,68;1,64;1,68;1,64;0;0;
2193;-13,32;-34,27;-13,32;-34,27;1,63;1,63;1,63;1,63;0;0;
2210;-15,52;-34,63;-15,52;-34,63;1,76;1,49;1,76;1,49;0;0;
2233;-19,12;-35,24;-19,12;-35,24;1,7;1,36;1,7;1,36;0;0;
2251;-18,29;-35,43;-18,29;-35,43;1,67;1,34;1,67;1,34;0;0;
2269;-16,2;-36,85;-16,2;-36,85;1,69;1,42;1,69;1,42;0;0;
2288;-16,14;-36,22;-16,14;-36,22;1,64;1,37;1,64;1,37;0;0;
2312;-19,83;-34,94;-19,83;-34,94;1,78;1,29;1,78;1,29;0;0;
2330;-18,83;-34,26;-18,83;-34,26;1,7;1,34;1,7;1,34;0;0;
2350;-19,14;-35,38;-19,14;-35,38;1,67;1,39;1,67;1,39;0;0;
2370;-17,06;-39,12;-17,06;-39,12;1,48;1,52;1,48;1,52;0;0;
2390;-15;-36,6;-15;-36,6;1,78;1,69;1,78;1,69;0;0;
2407;-15,42;-35,73;-15,42;-35,73;1,64;1,72;1,64;1,72;0;0;
2425;-20,03;-36,46;-20,03;-36,46;1,63;1,8;1,63;1,8;0;0;
2444;-14,47;-34,96;-14,47;-34,96;1,72;1,89;1,72;1,89;0;0;
2466;-17,8;-30,58;-17,8;-30,58;1,65;1,95;1,65;1,95;0;0;
2485;-18,94;-33,71;-18,94;-33,71;1,74;1,75;1,74;1,75;0;0;
2504;-18,74;-36,49;-18,74;-36,49;1,52;1,57;1,52;1,57;0;0;
2522;-17,31;-33,1;-17,31;-33,1;1,43;1,55;1,43;1,55;0;0;
2539;-14,79;-33,65;-14,79;-33,65;1,33;1,6;1,33;1,6;0;0;
2557;-17,36;-35,05;-17,36;-35,05;1,31;1,6;1,31;1,6;0;0;
2577;-13,28;-37,94;-13,28;-37,94;1,33;1,55;1,33;1,55;0;0;
2595;-13,28;-37,94;-13,28;-37,94;1,26;1,46;1,26;1,46;0;0;
2618;-16,28;-30,93;-16,28;-30,93;1,26;1,68;1,26;1,68;0;0;
2636;-16,28;-30,93;-16,28;-30,93;1,17;1,71;1,17;1,71;0;0;
2655;-15,83;-35,76;-15,83;-35,76;1,11;1,82;1,11;1,82;0;0;
2673;-19;-36,21;-19;-36,21;1,26;1,79;1,26;1,79;0;0;
2692;-18,17;-32,21;-18,17;-32,21;1,23;1,95;1,23;1,95;0;0;
2710;-13,44;-31,56;-13,44;-31,56;1,27;2,02;1,27;2,02;0;0;
2729;-17,33;-37,1;-17,33;-37,1;1,26;1,91;1,26;1,91;0;0;
2748;-16,72;-32,39;-16,72;-32,39;1,42;1,88;1,42;1,88;0;0;
2773;-14,14;-36,08;-14,14;-36,08;1,47;1,85;1,47;1,85;0;0;
2790;-16,52;-36,04;-16,52;-36,04;1,39;1,72;1,39;1,72;0;0;
2809;-16,43;-34,89;-16,43;-34,89;1,46;1,58;1,46;1,58;0;0;
2827;-15,91;-35,59;-15,91;-35,59;1,56;1,37;1,56;1,37;0;0;
2846;-15,11;-31,81;-15,11;-31,81;1,54;1,26;1,54;1,26;0;0;
2866;-14,62;-33,71;-14,62;-33,71;1,53;1,38;1,53;1,38;0;0;
2884;-17,63;-32,26;-17,63;-32,26;1,47;1,39;1,47;1,39;0;0;
2904;-14,74;-36,57;-14,74;-36,57;1,54;1,38;1,54;1,38;0;0;
2927;-19,81;-35,98;-19,81;-35,98;1,35;1,38;1,35;1,38;0;0;
2944;-16,07;-34,27;-16,07;-34,27;1,42;1,34;1,42;1,34;0;0;
2962;-16,89;-37,58;-16,89;-37,58;1,38;1,14;1,38;1,14;0;0;
2981;-15,75;-33,27;-15,75;-33,27;1,21;1,1;1,21;1,1;0;0;
3000;-12,48;-34,26;-12,48;-34,26;1,3;1,25;1,3;1,25;0;0;
3021;-17,25;-35,79;-17,25;-35,79;1,33;1,29;1,33;1,29;0;0;
3041;-13,4;-35,07;-13,4;-35,07;1,4;1,32;1,4;1,32;0;0;
3060;-20,3;-34,96;-20,3;-34,96;1,39;1,46;1,39;1,46;0;0;
3082;-12,96;-36,55;-12,96;-36,55;1,7;1,49;1,7;1,49;0;0;
3101;-18,28;-35,26;-18,28;-35,26;1,93;1,36;1,93;1,36;0;0;
3119;-15,78;-35,9;-15,78;-35,9;1,78;1,44;1,78;1,44;0;0;
3136;-15,78;-35,9;-15,78;-35,9;1,74;1,62;1,74;1,62;0;0;
3154;-13,75;-34,22;-13,75;-34,22;1,77;1,73;1,77;1,73;0;0;
3173;-16,86;-36,59;-16,86;-36,59;1,81;1,7;1,81;1,7;0;0;
3192;-17,34;-37,79;-17,34;-37,79;1,78;1,79;1,78;1,79;0;0;
3209;-16,99;-32,27;-16,99;-32,27;1,62;1,9;1,62;1,9;0;0;
3227;-19,71;-36,59;-19,71;-36,59;1,55;1,74;1,55;1,74;0;0;
3250;-17,98;-35,06;-17,98;-35,06;1,63;1,42;1,63;1,42;0;0;
3267;-16,52;-34,51;-16,52;-34,51;1,58;1,52;1,58;1,52;0;0;
3286;-13,18;-33,51;-13,18;-33,51;1,63;1,38;1,63;1,38;0;0;
3306;-18,31;-33,92;-18,31;-33,92;1,47;1,23;1,47;1,23;0;0;
3323;-20,32;-35,6;-20,32;-35,6;1,45;1,28;1,45;1,28;0;0;
3341;-11,99;-35,24;-11,99;-35,24;1,56;1,33;1,56;1,33;0;0;
3359;-17,73;-37,21;-17,73;-37,21;1,68;1,39;1,68;1,39;0;0;
3379;-17,13;-32,56;-17,13;-32,56;1,76;1,59;1,76;1,59;0;0;
3402;-12,61;-34,87;-12,61;-34,87;1,86;1,66;1,86;1,66;0;0;
3420;-16,28;-37,24;-16,28;-37,24;1,95;1,73;1,95;1,73;0;0;
3440;-13,77;-37,94;-13,77;-37,94;1,92;1,72;1,92;1,72;0;0;
3458;-18,9;-31,75;-18,9;-31,75;1,83;1,75;1,83;1,75;0;0;
3476;-18,9;-31,75;-18,9;-31,75;1,79;1,45;1,79;1,45;0;0;
3493;-18,33;-37,39;-18,33;-37,39;1,75;1,5;1,75;1,5;0;0;
3511;-12,93;-33,02;-12,93;-33,02;1,71;1,61;1,71;1,61;0;0;
3528;-17,82;-35,42;-17,82;-35,42;1,73;1,49;1,73;1,49;0;0;
3545;-16,94;-34,28;-16,94;-34,28;1,7;1,51;1,7;1,51;0;0;
3567;-18,53;-33,7;-18,53;-33,7;1,74;1,56;1,74;1,56;0;0;
3587;-17,63;-34,96;-17,63;-34,96;1,75;1,51;1,75;1,51;0;0;
3605;-16,26;-38,43;-16,26;-38,43;1,79;1,41;1,79;1,41;0;0;
3623;-14,58;-35,43;-14,58;-35,43;1,66;1,39;1,66;1,39;0;0;
3643;-15,15;-34,86;-15,15;-34,86;1,74;1,3;1,74;1,3;0;0;
3660;-15,15;-34,86;-15,15;-34,86;1,71;1,18;1,71;1,18;0;0;
3678;-15,59;-37,41;-15,59;-37,41;1,66;1,16;1,66;1,16;0;0;
3698;-20,54;-36,4;-20,54;-36,4;1,53;1,33;1,53;1,33;0;0;
3724;-17,46;-35,92;-17,46;-35,92;1,56;1,2;1,56;1,2;0;0;
3742;-13,44;-35,98;-13,44;-35,98;1,67;1,22;1,67;1,22;0;0;
3762;-20,08;-32,17;-20,08;-32,17;1,69;1,28;1,69;1,28;0;0;
3784;-17,21;-36,91;-17,21;-36,91;1,6;1,33;1,6;1,33;0;0;
3803;-17,49;-35,11;-17,49;-35,11;1,54;1,68;1,54;1,68;0;0;
3821;-19,02;-32,74;-19,02;-32,74;1,56;1,53;1,56;1,53;0;0;
3838;-18,88;-35,06;-18,88;-35,06;1,55;1,55;1,55;1,55;0;0;
3858;-17,6;-38,62;-17,6;-38,62;1,57;1,61;1,57;1,61;0;0;
3883;-17,02;-35,22;-17,02;-35,22;1,52;1,63;1,52;1,63;0;0;
3904;-13,95;-33,94;-13,95;-33,94;1,59;1,41;1,59;1,41;0;0;
3922;-16,71;-36,96;-16,71;-36,96;1,5;1,22;1,5;1,22;0;0;
3943;-14,56;-34,45;-14,56;-34,45;1,51;1,25;1,51;1,25;0;0;
3960;-14,94;-36,22;-14,94;-36,22;1,53;1,21;1,53;1,21;0;0;
3980;-15,89;-34,51;-15,89;-34,51;1,46;1,33;1,46;1,33;0;0;
3999;-17,69;-34,2;-17,69;-34,2;1,39;1,35;1,39;1,35;0;0;
4019;-15,19;-36,21;-15,19;-36,21;1,5;1,52;1,5;1,52;0;0;
4043;-16,88;-34;-16,88;-34;1,57;1,52;1,57;1,52;0;0;
4061;-15,43;-32,56;-15,43;-32,56;1,6;1,65;1,6;1,65;0;0;
4079;-16,96;-34,63;-16,96;-34,63;1,55;1,63;1,55;1,63;0;0;
4100;-13,89;-33,76;-13,89;-33,76;1,61;1,66;1,61;1,66;0;0;
4120;-18,43;-36,53;-18,43;-36,53;1,45;1,59;1,45;1,59;0;0;
4139;-16,88;-35,44;-16,88;-35,44;1,45;1,43;1,45;1,43;0;0;
4158;-16,83;-33,89;-16,83;-33,89;1,25;1,36;1,25;1,36;0;0;
4178;-17,51;-32,43;-17,51;-32,43;1,24;1,27;1,24;1,27;0;0;
4200;-16,15;-38,31;-16,15;-38,31;1,24;1,21;1,24;1,21;0;0;
4218;-19,21;-33,53;-19,21;-33,53;1,22;1,12;1,22;1,12;0;0;
4238;-17,36;-37,3;-17,36;-37,3;1,34;1,13;1,34;1,13;0;0;
4256;-17,36;-37,3;-17,36;-37,3;1,29;1,24;1,29;1,24;0;0;
4274;-16,91;-35,91;-16,91;-35,91;1,44;1,35;1,44;1,35;0;0;
4292;-17,5;-34,63;-17,5;-34,63;1,44;1,31;1,44;1,31;0;0;
4311;-16,34;-35,87;-16,34;-35,87;1,57;1,28;1,57;1,28;0;0;
4329;-13,49;-37,4;-13,49;-37,4;1,69;1,42;1,69;1,42;0;0;
4350;-17,6;-36,68;-17,6;-36,68;1,67;1,38;1,67;1,38;0;0;
4369;-13,01;-36,49;-13,01;-36,49;1,75;1,3;1,75;1,3;0;0;
4387;-16,52;-34,25;-16,52;-34,25;1,54;1,33;1,54;1,33;0;0;
4406;-16,73;-39,46;-16,73;-39,46;1,53;1,41;1,53;1,41;0;0;
4424;-13,58;-37,81;-13,58;-37,81;1,47;1,43;1,47;1,43;0;0;
4443;-14,99;-36,77;-14,99;-36,77;1,47;1,48;1,47;1,48;0;0;
4460;-15,28;-38,65;-15,28;-38,65;1,53;1,71;1,53;1,71;0;0;
4479;-17,23;-34,98;-17,23;-34,98;1,44;1,7;1,44;1,7;0;0;
4503;-14,42;-36,57;-14,42;-36,57;1,49;1,81;1,49;1,81;0;0;
4525;-15,23;-34,87;-15,23;-34,87;1,39;1,79;1,39;1,79;0;0;
4542;-14,56;-35,48;-14,56;-35,48;1,43;1,73;1,43;1,73;0;0;
4561;-17,52;-35,43;-17,52;-35,43;1,54;1,67;1,54;1,67;0;0;
4581;-20,32;-32,06;-20,32;-32,06;1,55;1,45;1,55;1,45;0;0;
4599;-14,71;-35,49;-14,71;-35,49;1,61;1,43;1,61;1,43;0;0;
4619;-17,33;-36,6;-17,33;-36,6;1,54;1,33;1,54;1,33;0;0;
4637;-17,58;-32,75;-17,58;-32,75;1,6;1,46;1,6;1,46;0;0;
4659;-20,59;-36,04;-20,59;-36,04;1,73;1,52;1,73;1,52;0;0;
4677;-18,68;-35,72;-18,68;-35,72;1,75;1,6;1,75;1,6;0;0;
4695;-18,68;-35,72;-18,68;-35,72;1,84;1,69;1,84;1,69;0;0;
4715;-16,26;-36,78;-16,26;-36,78;1,86;1,64;1,86;1,64;0;0;
4734;-17,12;-33,15;-17,12;-33,15;1,87;1,65;1,87;1,65;0;0;
4751;-17,98;-35,75;-17,98;-35,75;1,74;1,61;1,74;1,61;0;0;
4773;-17,87;-36,65;-17,87;-36,65;1,43;1,58;1,43;1,58;0;0;
4792;-14,76;-34,52;-14,76;-34,52;1,24;1,72;1,24;1,72;0;0;
4815;-18,23;-36,97;-18,23;-36,97;1,15;1,86;1,15;1,86;0;0;
4835;-14,81;-35,61;-14,81;-35,61;1,22;1,91;1,22;1,91;0;0;
4853;-13,12;-37,14;-13,12;-37,14;1,35;1,84;1,35;1,84;0;0;
4870;-17,61;-33,97;-17,61;-33,97;1,35;1,91;1,35;1,91;0;0;
4889;-16,14;-36,68;-16,14;-36,68;1,44;1,83;1,44;1,83;0;0;
4908;-14,28;-35,62;-14,28;-35,62;1,5;1,63;1,5;1,63;0;0;
4926;-12,77;-32,18;-12,77;-32,18;1,51;1,59;1,51;1,59;0;0;
4945;-14,87;-33,62;-14,87;-33,62;1,46;1,68;1,46;1,68;0;0;
4966;-16,19;-35,6;-16,19;-35,6;1,42;1,62;1,42;1,62;0;0;
4984;-20,1;-36,49;-20,1;-36,49;1,4;1,69;1,4;1,69;0;0;
5006;-16,44;-33,79;-16,44;-33,79;1,51;1,75;1,51;1,75;0;0;
5025;-15,16;-36,23;-15,16;-36,23;1,67;1,92;1,67;1,92;0;0;
5045;-18,12;-36,73;-18,12;-36,73;1,79;1,67;1,79;1,67;0;0;
5064;-14,16;-37,15;-14,16;-37,15;1,96;1,66;1,96;1,66;0;0;
5083;-16,82;-36,42;-16,82;-36,42;1,9;1,65;1,9;1,65;0;0;
5102;-18,19;-34,5;-18,19;-34,5;1,71;1,64;1,71;1,64;0;0;
5124;-19,09;-34,27;-19,09;-34,27;1,81;1,45;1,81;1,45;0;0;
5142;-16,63;-37,56;-16,63;-37,56;1,69;1,48;1,69;1,48;0;0;
5159;-18,41;-35,68;-18,41;-35,68;1,67;1,5;1,67;1,5;0;0;
5178;-14,92;-33,59;-14,92;-33,59;1,49;1,34;1,49;1,34;0;0;
5198;-17,45;-34,5;-17,45;-34,5;1,4;1,36;1,4;1,36;0;0;
5217;-16,21;-33,4;-16,21;-33,4;1,38;1,25;1,38;1,25;0;0;
5238;-14,78;-35,23;-14,78;-35,23;1,43;1,46;1,43;1,46;0;0;
5257;-19,08;-35,05;-19,08;-35,05;1,44;1,34;1,44;1,34;0;0;
5281;-20,17;-33,15;-20,17;-33,15;1,42;1,6;1,42;1,6;0;0;
5300;-14,78;-35,42;-14,78;-35,42;1,68;1,65;1,68;1,65;0;0;
5320;-16,63;-33,41;-16,63;-33,41;1,81;1,65;1,81;1,65;0;0;
5337;-14,03;-34,25;-14,03;-34,25;1,76;1,6;1,76;1,6;0;0;
5355;-14,03;-34,25;-14,03;-34,25;1,71;1,52;1,71;1,52;0;0;
5375;-16,14;-36,22;-16,14;-36,22;1,7;1,48;1,7;1,48;0;1;
5392;-20,85;-35,63;-20,85;-35,63;2,19;1,64;2,19;1,64;0;1;
5413;-32,2;-39,84;-32,2;-39,84;2,66;2,16;2,66;2,16;0;1;
5437;-11,7;-29,96;-11,7;-29,96;3,32;2,48;3,32;2,48;0;1;
5455;-12,98;-35,73;-12,98;-35,73;3,42;2,68;3,42;2,68;0;1;
5473;-16,94;-32,88;-16,94;-32,88;3,42;2,62;3,42;2,62;0;1;
5491;-21,07;-45,62;-21,07;-45,62;3,69;2,98;3,69;2,98;0;1;
5509;-48,51;-31,88;-48,51;-31,88;4,15;4,33;4,15;4,33;0;1;
5532;0,39;-124,29;0,39;-124,29;6,08;10,62;6,08;10,62;0;1;
5551;-46,44;-50,7;-46,44;-50,7;11,4;21,2;11,4;21,2;0;1;
5573;-22,13;-68,53;-22,13;-68,53;13,51;26,97;13,51;26,97;0;1;
5596;-17,95;-24,44;-17,95;-24,44;15,43;32,25;15,43;32,25;0;1;
5615;-13,46;-17,81;-13,46;-17,81;16,62;36,1;16,62;36,1;0;0;
5637;-23,24;-39,47;-23,24;-39,47;16,54;35,09;16,54;35,09;0;0;
5660;-21,25;-36,97;-21,25;-36,97;14,46;25,4;14,46;25,4;0;0;
5678;-18,82;-31,71;-18,82;-31,71;10,15;18,87;10,15;18,87;0;0;
5697;-14,41;-29,62;-14,41;-29,62;8,77;13,85;8,77;13,85;0;0;
5716;-14,41;-29,62;-14,41;-29,62;7,01;9,73;7,01;9,73;0;0;
5735;-20,67;-32,55;-20,67;-32,55;5,57;5,87;5,57;5,87;0;0;
5761;-14,83;-36,72;-14,83;-36,72;3,5;3,21;3,5;3,21;0;0;
5784;-14,59;-34,45;-14,59;-34,45;2,87;2,86;2,87;2,86;0;0;
5803;-9,77;-34,72;-9,77;-34,72;2,61;2,19;2,61;2,19;0;0;
5824;-17,87;-33,05;-17,87;-33,05;2,61;1,86;2,61;1,86;0;0;
5843;-11,81;-32,9;-11,81;-32,9;2,34;1,74;2,34;1,74;0;0;
5862;-17,86;-34,4;-17,86;-34,4;2,21;1,64;2,21;1,64;0;0;
5880;-17,61;-40,27;-17,61;-40,27;1,9;1,62;1,9;1,62;0;0;
5900;-14,41;-31,57;-14,41;-31,57;1,88;1,72;1,88;1,72;0;0;
5922;-17,44;-35,48;-17,44;-35,48;1,75;1,61;1,75;1,61;0;0;
5941;-16,77;-33,39;-16,77;-33,39;1,56;1,72;1,56;1,72;0;0;
5960;-13,9;-34,87;-13,9;-34,87;1,42;1,76;1,42;1,76;0;0;
5979;-17,23;-35,43;-17,23;-35,43;1,66;1,9;1,66;1,9;0;0;
5997;-12,7;-38,67;-12,7;-38,67;1,68;2,16;1,68;2,16;0;0;
6015;-12,7;-38,67;-12,7;-38,67;1,7;2,44;1,7;2,44;0;0;
6038;-16,95;-32,92;-16,95;-32,92;1,83;2,32;1,83;2,32;0;0;
6056;-16,95;-32,92;-16,95;-32,92;1,91;2,29;1,91;2,29;0;0;
6079;-15,57;-35,47;-15,57;-35,47;1,71;2,21;1,71;2,21;0;0;
6099;-14,62;-34,95;-14,62;-34,95;1,51;1,9;1,51;1,9;0;0;
6120;-16,27;-35,21;-16,27;-35,21;1,41;1,66;1,41;1,66;0;0;
6139;-12,69;-35,01;-12,69;-35,01;1,37;1,65;1,37;1,65;0;0;
6157;-15,88;-36,44;-15,88;-36,44;1,31;1,74;1,31;1,74;0;0;
6175;-15,88;-36,44;-15,88;-36,44;1,27;1,84;1,27;1,84;0;0;
6193;-18,42;-36,4;-18,42;-36,4;1,53;1,96;1,53;1,96;0;0;
6212;-13,57;-38,06;-13,57;-38,06;1,48;2;1,48;2;0;0;
6238;-16,52;-35,23;-16,52;-35,23;1,62;1,87;1,62;1,87;0;0;
6256;-16,52;-35,23;-16,52;-35,23;1,66;1,66;1,66;1,66;0;0;
6274;-17,36;-36,56;-17,36;-36,56;1,85;1,59;1,85;1,59;0;0;
6295;-20,03;-31,95;-20,03;-31,95;1,89;1,58;1,89;1,58;0;0;
6314;-13,05;-33,76;-13,05;-33,76;1,86;1,47;1,86;1,47;0;0;
6331;-17,88;-36,05;-17,88;-36,05;1,82;1,44;1,82;1,44;0;0;
6348;-17,62;-32,97;-17,62;-32,97;1,75;1,6;1,75;1,6;0;0;
6370;-19,96;-35,6;-19,96;-35,6;1,56;1,49;1,56;1,49;0;0;
6393;-17,37;-33,88;-17,37;-33,88;1,67;1,48;1,67;1,48;0;0;
6411;-15,33;-34,07;-15,33;-34,07;1,6;1,45;1,6;1,45;0;0;
6431;-16,49;-36,24;-16,49;-36,24;1,55;1,39;1,55;1,39;0;0;
6450;-17,82;-36,9;-17,82;-36,9;1,48;1,29;1,48;1,29;0;0;
6469;-15,59;-36,21;-15,59;-36,21;1,42;1,27;1,42;1,27;0;0;
6487;-17,51;-36,82;-17,51;-36,82;1,36;1,34;1,36;1,34;0;0;
6506;-16,12;-36,05;-16,12;-36,05;1,43;1,39;1,43;1,39;0;0;
6527;-16,59;-37,93;-16,59;-37,93;1,24;1,45;1,24;1,45;0;0;
6549;-16,65;-34,48;-16,65;-34,48;1,29;1,5;1,29;1,5;0;0;
6570;-13,65;-34,26;-13,65;-34,26;1,36;1,68;1,36;1,68;0;0;
6590;-16,57;-34,5;-16,57;-34,5;1,42;1,81;1,42;1,81;0;0;
6608;-14,98;-35,96;-14,98;-35,96;1,55;2;1,55;2;0;0;
6628;-17,61;-36,16;-17,61;-36,16;1,68;2,08;1,68;2,08;0;0;
6649;-15,91;-33,75;-15,91;-33,75;1,7;1,91;1,7;1,91;0;0;
6668;-14,95;-37,4;-14,95;-37,4;1,83;1,76;1,83;1,76;0;0;
6689;-14,2;-35,02;-14,2;-35,02;1,85;1,86;1,85;1,86;0;0;
6712;-13,45;-36,46;-13,45;-36,46;1,89;1,6;1,89;1,6;0;0;
6730;-20,21;-37,93;-20,21;-37,93;1,69;1,58;1,69;1,58;0;0;
6748;-12,02;-34,25;-12,02;-34,25;1,58;1,67;1,58;1,67;0;0;
6770;-14,14;-36,22;-14,14;-36,22;1,67;1,62;1,67;1,62;0;0;
6789;-14,19;-35,83;-14,19;-35,83;1,48;1,48;1,48;1,48;0;0;
6808;-15,87;-34,87;-15,87;-34,87;1,34;1,51;1,34;1,51;0;0;
6826;-17,15;-36,05;-17,15;-36,05;1,53;1,39;1,53;1,39;0;0;
6844;-15,74;-36,46;-15,74;-36,46;1,49;1,47;1,49;1,47;0;0;
6865;-19,79;-35,61;-19,79;-35,61;1,42;1,4;1,42;1,4;0;0;
6884;-18,25;-36,41;-18,25;-36,41;1,41;1,45;1,41;1,45;0;0;
6902;-15,29;-35,23;-15,29;-35,23;1,38;1,55;1,38;1,55;0;0;
6922;-18,81;-35,98;-18,81;-35,98;1,45;1,46;1,45;1,46;0;0;
6942;-14,94;-34,64;-14,94;-34,64;1,47;1,49;1,47;1,49;0;0;
6960;-14,58;-37,65;-14,58;-37,65;1,49;1,5;1,49;1,5;0;0;
6978;-16,92;-33,94;-16,92;-33,94;1,43;1,54;1,43;1,54;0;0;
6996;-16,92;-33,94;-16,92;-33,94;1,42;1,39;1,42;1,39;0;0;
7017;-16,28;-36,58;-16,28;-36,58;1,43;1,34;1,43;1,34;0;0;
7038;-17,97;-32,91;-17,97;-32,91;1,37;1,37;1,37;1,37;0;0;
7057;-14,69;-35,49;-14,69;-35,49;1,33;1,33;1,33;1,33;0;0;
7078;-15,12;-34,75;-15,12;-34,75;1,38;1,4;1,38;1,4;0;0;
7097;-15,12;-34,75;-15,12;-34,75;1,45;1,53;1,45;1,53;0;0;
7113;-14,31;-34,71;-14,31;-34,71;1,52;1,57;1,52;1,57;0;0;
7132;-17,43;-32,92;-17,43;-32,92;1,59;1,68;1,59;1,68;0;0;
7150;-19,07;-34,95;-19,07;-34,95;1,52;1,63;1,52;1,63;0;0;
7175;-16,29;-33,71;-16,29;-33,71;1,58;1,64;1,58;1,64;0;0;
7192;-16,61;-37,18;-16,61;-37,18;1,46;1,51;1,46;1,51;0;0;
7217;-15,6;-35,93;-15,6;-35,93;1,42;1,58;1,42;1,58;0;0;
7238;-17,09;-35,41;-17,09;-35,41;1,41;1,67;1,41;1,67;0;0;
7259;-15,12;-34,44;-15,12;-34,44;1,36;1,74;1,36;1,74;0;0;
7276;-15,12;-34,44;-15,12;-34,44;1,3;2;1,3;2;0;0;
7294;-16,45;-36,89;-16,45;-36,89;1,37;2,08;1,37;2,08;0;0;
7313;-16,43;-38,19;-16,43;-38,19;1,28;2,11;1,28;2,11;0;0;
7334;-15,48;-34,91;-15,48;-34,91;1,56;2,09;1,56;2,09;0;0;
7355;-13,86;-35,5;-13,86;-35,5;1,67;1,84;1,67;1,84;0;0;
7375;-17,7;-33,89;-17,7;-33,89;1,67;1,6;1,67;1,6;0;0;
7394;-15,84;-36,11;-15,84;-36,11;1,54;1,54;1,54;1,54;0;0;
7412;-19,21;-35,21;-19,21;-35,21;1,61;1,66;1,61;1,66;0;0;
7430;-19,21;-35,21;-19,21;-35,21;1,6;1,63;1,6;1,63;0;0;
7448;-16,63;-37,12;-16,63;-37,12;1,42;1,88;1,42;1,88;0;0;
7468;-17,69;-35,96;-17,69;-35,96;1,45;2,08;1,45;2,08;0;0;
7490;-17,54;-33,09;-17,54;-33,09;1,62;2,13;1,62;2,13;0;0;
7509;-13,09;-32,7;-13,09;-32,7;1,68;2,1;1,68;2,1;0;0;
7529;-16,74;-33,42;-16,74;-33,42;1,84;2,04;1,84;2,04;0;0;
7548;-19,18;-38,37;-19,18;-38,37;1,68;2,07;1,68;2,07;0;0;
7569;-14,28;-34,78;-14,28;-34,78;1,74;1,92;1,74;1,92;0;0;
7589;-18,64;-35,58;-18,64;-35,58;1,89;1,99;1,89;1,99;0;0;
7608;-15,22;-33,87;-15,22;-33,87;1,87;2,1;1,87;2,1;0;0;
7627;-12,25;-33,52;-12,25;-33,52;1,56;2,16;1,56;2,16;0;0;
7651;-17,11;-34,08;-17,11;-34,08;1,61;2,19;1,61;2,19;0;0;
7672;-16,03;-32,92;-16,03;-32,92;1,79;2,03;1,79;2,03;0;0;
7693;-16,62;-36,1;-16,62;-36,1;1,83;2,02;1,83;2,02;0;0;
7711;-18,8;-35,38;-18,8;-35,38;1,54;1,76;1,54;1,76;0;0;
7729;-13,52;-35,48;-13,52;-35,48;1,62;1,79;1,62;1,79;0;0;
7749;-16,64;-36,61;-16,64;-36,61;1,87;1,55;1,87;1,55;0;0;
7768;-13,44;-34,39;-13,44;-34,39;1,95;1,67;1,95;1,67;0;0;
7786;-18,11;-39,3;-18,11;-39,3;2,29;1,84;2,29;1,84;0;1;
7810;-18,17;-29,3;-18,17;-29,3;3,12;3,36;3,12;3,36;0;1;
7829;-17,05;-51,49;-17,05;-51,49;3,45;3,91;3,45;3,91;0;1;
7847;-21,97;-43,26;-21,97;-43,26;4,26;4,62;4,26;4,62;0;1;
7866;-15,29;-27,98;-15,29;-27,98;4,33;5,07;4,33;5,07;0;1;
7885;-24,26;-125,2;-24,26;-125,2;5,24;9,42;5,24;9,42;0;1;
7904;-30,99;-177,85;-30,99;-177,85;5,77;16,52;5,77;16,52;0;1;
7925;-15,54;-40,36;-15,54;-40,36;6,69;20,28;6,69;20,28;0;1;
7945;-29,42;-26,36;-29,42;-26,36;7,87;34,5;7,87;34,5;0;0;
7970;-38,24;-44,78;-38,24;-44,78;9,92;42,74;9,92;42,74;0;0;
7992;3,6;-109,43;3,6;-109,43;13,55;46,44;13,55;46,44;0;0;
8011;-13,79;-28,52;-13,79;-28,52;14,43;42,66;14,43;42,66;0;0;
8030;-23,21;-88,22;-23,21;-88,22;15,24;38,69;15,24;38,69;0;0;
8048;14,63;33,37;14,63;33,37;15,69;38,36;15,69;38,36;0;0;
8067;-18,87;-30,75;-18,87;-30,75;14,33;25,46;14,33;25,46;0;0;
8084;-7,81;-33,69;-7,81;-33,69;11,93;18,95;11,93;18,95;0;0;
8106;-24,47;-34,43;-24,47;-34,43;9,83;15,77;9,83;15,77;0;0;
8131;-18,61;-33,51;-18,61;-33,51;8,14;11,97;8,14;11,97;0;0;
8156;-33,99;-42,98;-33,99;-42,98;7,78;7,97;7,78;7,97;0;0;
8174;-14,49;-35,22;-14,49;-35,22;6,23;3,27;6,23;3,27;0;0;
8193;-15,25;-35,98;-15,25;-35,98;4,94;2,66;4,94;2,66;0;0;
8212;-16,82;-33,48;-16,82;-33,48;4,3;2,74;4,3;2,74;0;0;
8231;-24,25;-38,56;-24,25;-38,56;3,72;2,4;3,72;2,4;0;0;
8251;-17,12;-36,86;-17,12;-36,86;3,25;2,15;3,25;2,15;0;0;
8270;-18,49;-38,36;-18,49;-38,36;2,39;1,78;2,39;1,78;0;0;
8295;-21,64;-37,91;-21,64;-37,91;2,13;1,78;2,13;1,78;0;0;
8312;-16,73;-35,6;-16,73;-35,6;2,61;2,17;2,61;2,17;0;0;
8331;-15,7;-36,82;-15,7;-36,82;2,39;1,97;2,39;1,97;0;0;
8350;-15,18;-33,99;-15,18;-33,99;2,18;1,94;2,18;1,94;0;0;
8370;-17,56;-35,55;-17,56;-35,55;2,24;1,99;2,24;1,99;0;0;
8391;-17,56;-35,55;-17,56;-35,55;1,96;1,92;1,96;1,92;0;0;
8411;-17,17;-34,88;-17,17;-34,88;1,81;1,64;1,81;1,64;0;0;
8429;-13,39;-40,44;-13,39;-40,44;1,62;1,63;1,62;1,63;0;0;
8451;-13,08;-37,59;-13,08;-37,59;1,72;1,51;1,72;1,51;0;0;
8469;-18,04;-35,79;-18,04;-35,79;1,88;1,53;1,88;1,53;0;0;
8489;-12,51;-34,34;-12,51;-34,34;2,07;1,83;2,07;1,83;0;0;
8509;-15,53;-37,36;-15,53;-37,36;2,33;2,02;2,33;2,02;0;0;
8528;-15,72;-37,85;-15,72;-37,85;2,5;2,23;2,5;2,23;1;0;
8549;-13,5;-31,83;-13,5;-31,83;3,02;2,83;3,02;2,83;1;0;
8570;-14,97;-35,21;-14,97;-35,21;3,17;3,25;3,17;3,25;1;0;
8589;-14,21;-36,72;-14,21;-36,72;3,48;3,37;3,48;3,37;1;0;
8613;-17,04;-35,61;-17,04;-35,61;3,21;3,01;3,21;3,01;1;0;
8632;-16,45;-36,78;-16,45;-36,78;3,2;3,19;3,2;3,19;1;0;
8649;-16,37;-38,36;-16,37;-38,36;3,55;3,17;3,55;3,17;1;0;
8668;-15,35;-35,81;-15,35;-35,81;4,05;4,28;4,05;4,28;1;0;
8687;-13,13;-27,58;-13,13;-27,58;4,79;5,14;4,79;5,14;1;0;
8708;-17,09;-40,45;-17,09;-40,45;5,82;6,43;5,82;6,43;1;0;
8728;-21,28;-34,68;-21,28;-34,68;7,24;7,24;7,24;7,24;1;0;
8747;-1,47;-27,58;-1,47;-27,58;8,61;7,97;8,61;7,97;1;0;
8771;-25,23;-56,86;-25,23;-56,86;13,82;9,49;13,82;9,49;1;0;
8791;-58,15;-58,52;-58,15;-58,52;15,57;10,18;15,57;10,18;1;0;
8809;-11,27;-31,51;-11,27;-31,51;17,02;9,83;17,02;9,83;1;0;
8827;-13,35;-27;-13,35;-27;20,91;11,75;20,91;11,75;1;0;
8846;-3,17;-33,6;-3,17;-33,6;22,86;13,99;22,86;13,99;1;0;
8868;13,54;-1,5;13,54;-1,5;21,27;16,35;21,27;16,35;0;0;
8890;-8,41;-46,71;-8,41;-46,71;19,04;18,24;19,04;18,24;0;0;
8914;-32,13;-7,85;-32,13;-7,85;16,88;19,08;16,88;19,08;0;0;
8939;-10,92;-25,72;-10,92;-25,72;15,13;19,38;15,13;19,38;0;0;
8964;-15,73;-21,17;-15,73;-21,17;11,95;17,23;11,95;17,23;0;0;
8984;-17,16;-35,41;-17,16;-35,41;10,82;16,35;10,82;16,35;0;0;
9003;-18,85;-31,31;-18,85;-31,31;8,36;11,8;8,36;11,8;0;0;
9022;-13,25;-35,29;-13,25;-35,29;6,45;8,01;6,45;8,01;0;0;
9041;-14,49;-33,26;-14,49;-33,26;4,47;5,73;4,47;5,73;0;0;
9062;-16,37;-40,7;-16,37;-40,7;3,28;4,52;3,28;4,52;0;0;
9081;-17,55;-40,17;-17,55;-40,17;2,68;3,32;2,68;3,32;0;0;
9106;-15,19;-30,76;-15,19;-30,76;2,56;3,26;2,56;3,26;0;0;
9125;-13,9;-34,88;-13,9;-34,88;2,1;2,41;2,1;2,41;0;0;
9144;-16,26;-35,33;-16,26;-35,33;1,97;2,19;1,97;2,19;0;0;
9163;-12,76;-32,91;-12,76;-32,91;2,08;2,18;2,08;2,18;0;0;
9181;-14,99;-33,28;-14,99;-33,28;1,81;1,58;1,81;1,58;0;0;
9198;-14,59;-33,62;-14,59;-33,62;1,65;1,69;1,65;1,69;0;0;
9215;-14,59;-33,62;-14,59;-33,62;1,54;1,89;1,54;1,89;0;0;
9235;-18,48;-35,29;-18,48;-35,29;1,77;1,79;1,77;1,79;0;0;
9260;-16,4;-35,22;-16,4;-35,22;1,81;1,85;1,81;1,85;0;0;
9280;-16,15;-33,63;-16,15;-33,63;1,66;1,88;1,66;1,88;0;0;
9298;-14,68;-36,43;-14,68;-36,43;1,95;2,09;1,95;2,09;0;0;
9316;-14,68;-36,43;-14,68;-36,43;2,17;2,04;2,17;2,04;0;0;
9334;-15,29;-35,58;-15,29;-35,58;2,16;1,91;2,16;1,91;0;0;
9353;-14,09;-37,55;-14,09;-37,55;1,99;2,04;1,99;2,04;0;0;
9372;-17,37;-37,92;-17,37;-37,92;1,83;2,05;1,83;2,05;0;0;
9391;-9,78;-35,16;-9,78;-35,16;2,05;2,09;2,05;2,09;0;0;
9413;-16,58;-36,93;-16,58;-36,93;2,03;1,87;2,03;1,87;0;0;
9432;-21,29;-33,68;-21,29;-33,68;1,7;1,74;1,7;1,74;0;0;
9451;-18,88;-39,21;-18,88;-39,21;1,76;1,79;1,76;1,79;0;0;
9469;-15,78;-37,75;-15,78;-37,75;1,78;1,99;1,78;1,99;0;0;
9488;-18,01;-36,06;-18,01;-36,06;1,65;1,96;1,65;1,96;0;0;
9506;-15,34;-35,86;-15,34;-35,86;1,46;2,07;1,46;2,07;0;0;
9526;-18,2;-34,7;-18,2;-34,7;1,35;1,95;1,35;1,95;0;0;
9546;-15,81;-32,2;-15,81;-32,2;1,24;2,15;1,24;2,15;0;0;
9569;-13,14;-36,58;-13,14;-36,58;1,34;2,22;1,34;2,22;0;0;
9586;-14,77;-40,29;-14,77;-40,29;1,27;2;1,27;2;0;0;
9603;-22,97;-32,55;-22,97;-32,55;1,45;2,11;1,45;2,11;0;0;
9621;-14,73;-36,25;-14,73;-36,25;1,55;2,19;1,55;2,19;0;0;
9641;-18,67;-37,98;-18,67;-37,98;1,56;2,18;1,56;2,18;0;0;
9660;-16,55;-37,34;-16,55;-37,34;1,67;2,08;1,67;2,08;0;0;
9680;-14,06;-35,03;-14,06;-35,03;1,79;2,3;1,79;2,3;0;0;
9698;-16,28;-39,1;-16,28;-39,1;1,97;2,2;1,97;2,2;1;0;
9719;-18,25;-33,53;-18,25;-33,53;1,95;2,09;1,95;2,09;1;0;
9738;-16,15;-32,57;-16,15;-32,57;1,93;1,88;1,93;1,88;1;0;
9755;-16,15;-32,57;-16,15;-32,57;1,86;1,96;1,86;1,96;1;0;
9775;-15,63;-38,61;-15,63;-38,61;2,04;2,24;2,04;2,24;1;0;
9793;-11,61;-40,08;-11,61;-40,08;4,52;4,08;4,52;4,08;1;0;
9813;43,95;-13,54;43,95;-13,54;9,94;6,83;9,94;6,83;1;0;
9832;16,81;-38,18;16,81;-38,18;13,52;8,27;13,52;8,27;1;0;
9854;-10,21;-22,81;-10,21;-22,81;17,48;9,96;17,48;9,96;1;0;
9876;-7,61;-30,13;-7,61;-30,13;20,94;12,14;20,94;12,14;1;0;
9894;-23,03;-54,18;-23,03;-54,18;20,58;14;20,58;14;1;0;
9913;-19,29;-50,07;-19,29;-50,07;17,36;12,26;17,36;12,26;1;0;
9931;-2,35;-13,02;-2,35;-13,02;15,05;12,77;15,05;12,77;1;0;
9948;-18,13;-26,35;-18,13;-26,35;12,83;13,45;12,83;13,45;1;0;
9969;-26,08;-27,76;-26,08;-27,76;10,28;13,33;10,28;13,33;1;0;
9987;-30,71;-18,53;-30,71;-18,53;9,47;12,02;9,47;12,02;1;0;
10007;-8,68;-26,03;-8,68;-26,03;10,19;12,68;10,19;12,68;1;0;
10028;-26,61;-52,12;-26,61;-52,12;10,29;12,76;10,29;12,76;1;0;
10046;-20,77;-34,49;-20,77;-34,49;8,54;11,09;8,54;11,09;0;0;
10064;-0,15;-16,19;-0,15;-16,19;8,04;11,77;8,04;11,77;0;0;
10082;-15,71;-37,21;-15,71;-37,21;7,64;11,06;7,64;11,06;0;0;
10101;-17,92;-31,57;-17,92;-31,57;6,05;8,76;6,05;8,76;0;0;
10122;-10,59;-40,35;-10,59;-40,35;4,79;7,23;4,79;7,23;0;0;
10146;-27,32;-39,19;-27,32;-39,19;3,94;5,65;3,94;5,65;0;0;
10168;-15,97;-36,47;-15,97;-36,47;3,49;5,42;3,49;5,42;0;0;
10198;-16,75;-40,88;-16,75;-40,88;2,43;2,87;2,43;2,87;0;0;
10223;-14,19;-35,24;-14,19;-35,24;2,21;2,8;2,21;2,8;0;0;
10245;-11,99;-34,57;-11,99;-34,57;2,46;3,04;2,46;3,04;0;0;
10264;-16,79;-37,47;-16,79;-37,47;2,39;2,73;2,39;2,73;0;0;
10282;-15,97;-36,22;-15,97;-36,22;2,12;2,24;2,12;2,24;0;0;
10300;-22,29;-35,03;-22,29;-35,03;2,25;2,18;2,25;2,18;0;0;
10320;-12,86;-32,6;-12,86;-32,6;2,43;2,18;2,43;2,18;0;0;
10341;-14,94;-35,59;-14,94;-35,59;2,39;2,16;2,39;2,16;0;0;
10361;-15,6;-33,05;-15,6;-33,05;2,4;1,83;2,4;1,83;0;0;
10381;-15,84;-35,24;-15,84;-35,24;2,27;1,7;2,27;1,7;0;0;
10400;-17,01;-34,53;-17,01;-34,53;1,93;1,68;1,93;1,68;0;0;
10420;-17,4;-35,41;-17,4;-35,41;1,82;1,67;1,82;1,67;0;0;
10440;-14,55;-36,7;-14,55;-36,7;1,62;1,65;1,62;1,65;0;0;
10459;-17,61;-35,21;-17,61;-35,21;1,4;1,6;1,4;1,6;0;0;
10481;-17,26;-36,77;-17,26;-36,77;1,57;1,69;1,57;1,69;0;0;
10503;-14,38;-34,71;-14,38;-34,71;1,67;1,82;1,67;1,82;0;0;
10521;-16,85;-36,95;-16,85;-36,95;1,72;1,76;1,72;1,76;0;0;
10542;-13,67;-35,85;-13,67;-35,85;1,62;1,77;1,62;1,77;0;0;
10562;-16,04;-35,62;-16,04;-35,62;1,58;1,59;1,58;1,59;0;0;
10579;-18,4;-33,28;-18,4;-33,28;1,67;1,57;1,67;1,57;0;0;
10598;-11,88;-35,27;-11,88;-35,27;1,54;1,73;1,54;1,73;0;0;
10622;-14,77;-36,24;-14,77;-36,24;1,4;1,72;1,4;1,72;0;0;
10639;-15,45;-38,94;-15,45;-38,94;1,54;1,73;1,54;1,73;0;0;
10662;-12,07;-30,84;-12,07;-30,84;1,7;1,94;1,7;1,94;0;0;
10680;-16,64;-39,64;-16,64;-39,64;1,66;2,25;1,66;2,25;0;0;
10698;-16,08;-33,53;-16,08;-33,53;1,57;2,54;1,57;2,54;0;0;
10717;-15,79;-35,52;-15,79;-35,52;1,56;2,33;1,56;2,33;0;0;
10735;-15,79;-35,52;-15,79;-35,52;1,49;2,13;1,49;2,13;0;0;
10753;-18,02;-32,47;-18,02;-32,47;1,39;1,78;1,39;1,78;0;0;
10773;-17,31;-33,52;-17,31;-33,52;1,37;1,44;1,37;1,44;0;0;
10795;-18,04;-34,88;-18,04;-34,88;1,54;1,11;1,54;1,11;0;0;
10819;-17,62;-35,98;-17,62;-35,98;1,65;1,16;1,65;1,16;0;0;
10838;-13,93;-38,68;-13,93;-38,68;1,78;1,28;1,78;1,28;0;0;
10856;-13,93;-38,68;-13,93;-38,68;1,77;1,44;1,77;1,44;0;0;
10877;-17,18;-35,34;-17,18;-35,34;1,74;1,55;1,74;1,55;0;0;
10899;-16,28;-34,75;-16,28;-34,75;1,75;1,43;1,75;1,43;0;0;
10916;-16,28;-34,75;-16,28;-34,75;1,54;1,46;1,54;1,46;0;0;
10933;-15,91;-35,07;-15,91;-35,07;1,67;1,52;1,67;1,52;0;0;
10953;-16,47;-36,23;-16,47;-36,23;1,56;1,43;1,56;1,43;0;0;
10978;-15,91;-34,98;-15,91;-34,98;1,64;1,34;1,64;1,34;0;0;
10997;-17,9;-37,58;-17,9;-37,58;1,72;1,43;1,72;1,43;0;0;
11015;-17,9;-37,58;-17,9;-37,58;1,82;1,65;1,82;1,65;0;0;
11033;-15,27;-33,41;-15,27;-33,41;1,72;1,63;1,72;1,63;0;0;
11051;-14,94;-37,39;-14,94;-37,39;1,7;1,52;1,7;1,52;0;0;
11071;-14,92;-36,22;-14,92;-36,22;1,72;1,5;1,72;1,5;0;0;
11091;-15,66;-33,29;-15,66;-33,29;1,59;1,58;1,59;1,58;0;0;
11110;-18,72;-34,87;-18,72;-34,87;1,61;1,63;1,61;1,63;0;0;
11132;-14,43;-31,75;-14,43;-31,75;1,46;1,59;1,46;1,59;0;0;
11152;-16,07;-33,11;-16,07;-33,11;1,6;1,77;1,6;1,77;0;0;
11170;-16,86;-33,89;-16,86;-33,89;1,61;1,82;1,61;1,82;0;0;
11188;-18,6;-32,71;-18,6;-32,71;1,62;1,94;1,62;1,94;0;0;
11208;-17,69;-36,44;-17,69;-36,44;1,49;1,63;1,49;1,63;0;0;
11227;-15,25;-37,47;-15,25;-37,47;1,55;1,68;1,55;1,68;0;0;
11245;-14,05;-35,52;-14,05;-35,52;1,48;1,52;1,48;1,52;0;0;
11266;-15,15;-38,31;-15,15;-38,31;1,37;1,49;1,37;1,49;0;0;
11288;-16,1;-35,25;-16,1;-35,25;1,37;1,31;1,37;1,31;0;0;
11309;-18,56;-34,62;-18,56;-34,62;1,42;1,29;1,42;1,29;0;0;
11326;-11,36;-34,77;-11,36;-34,77;1,96;1,36;1,96;1,36;0;0;
11343;-15,45;-36,24;-15,45;-36,24;2,02;1,33;2,02;1,33;0;0;
11362;-16,42;-36,47;-16,42;-36,47;2,12;1,55;2,12;1,55;0;0;
11382;-16,77;-37,78;-16,77;-37,78;2,1;1,71;2,1;1,71;0;0;
11400;-16,46;-34,25;-16,46;-34,25;1,92;1,69;1,92;1,69;0;0;
11418;-17,81;-37,29;-17,81;-37,29;1,73;1,67;1,73;1,67;0;0;
11439;-16,43;-37,39;-16,43;-37,39;1,43;1,61;1,43;1,61;0;0;
11459;-16,09;-39,1;-16,09;-39,1;1,35;1,63;1,35;1,63;0;0;
11480;-18,27;-38,12;-18,27;-38,12;1,33;1,65;1,33;1,65;0;0;
11498;-16,08;-38,4;-16,08;-38,4;1,39;1,57;1,39;1,57;0;0;
11515;-16,08;-38,4;-16,08;-38,4;1,46;1,78;1,46;1,78;0;0;
11534;-17,28;-38,94;-17,28;-38,94;1,36;1,97;1,36;1,97;0;0;
11552;-18,37;-35,79;-18,37;-35,79;1,47;2,05;1,47;2,05;0;0;
11573;-11,09;-35,6;-11,09;-35,6;1,54;1,99;1,54;1,99;1;0;
11593;-23,05;-33,89;-23,05;-33,89;1,79;2,14;1,79;2,14;1;0;
11610;-19,33;-40,85;-19,33;-40,85;2,05;2,32;2,05;2,32;1;0;
11629;-19,08;-41,94;-19,08;-41,94;2,24;2,65;2,24;2,65;1;0;
11647;-20,08;-37,57;-20,08;-37,57;2,63;2,62;2,63;2,62;1;0;
11669;-13,73;-32,57;-13,73;-32,57;2,54;2,68;2,54;2,68;1;0;
11688;-19,31;-38,48;-19,31;-38,48;2,46;2,72;2,46;2,72;1;0;
11709;-16,94;-35,09;-16,94;-35,09;2,41;2,71;2,41;2,71;1;0;
11727;-19,51;-36,96;-19,51;-36,96;2,29;2,46;2,29;2,46;1;0;
11750;-34,9;-46,3;-34,9;-46,3;4,05;3,42;4,05;3,42;1;0;
11770;-20,19;-43,41;-20,19;-43,41;8,07;5,46;8,07;5,46;1;0;
11790;-7,32;-37,68;-7,32;-37,68;11,07;6,52;11,07;6,52;1;0;
11810;26,06;-47,47;26,06;-47,47;16,86;9,14;16,86;9,14;1;0;
11832;-29,95;-31,28;-29,95;-31,28;22,91;12,51;22,91;12,51;1;0;
11851;10,4;-25,85;10,4;-25,85;24,88;14,22;24,88;14,22;0;0;
11873;6,63;-13,39;6,63;-13,39;24,64;15,23;24,64;15,23;0;0;
11898;-20,63;-36,68;-20,63;-36,68;23,71;14,79;23,71;14,79;0;0;
11926;-17,09;-34,32;-17,09;-34,32;21,19;13,85;21,19;13,85;0;0;
11946;-4,71;-35,05;-4,71;-35,05;15,16;11,15;15,16;11,15;0;0;
11965;-8,73;-32,07;-8,73;-32,07;12,69;9,25;12,69;9,25;0;0;
11983;-30,48;-43,78;-30,48;-43,78;12,39;8,99;12,39;8,99;0;0;
12003;-19,14;-27,88;-19,14;-27,88;8,4;5,13;8,4;5,13;0;0;
12021;-22,81;-38,83;-22,81;-38,83;7,28;4,93;7,28;4,93;0;0;
12043;-20,61;-40,53;-20,61;-40,53;8,78;5,46;8,78;5,46;0;0;
12062;-16,6;-44,78;-16,6;-44,78;8,04;5,06;8,04;5,06;0;0;
12084;-15,4;-33,22;-15,4;-33,22;6,49;4,77;6,49;4,77;0;0;
12103;-8,62;-35,65;-8,62;-35,65;5,24;4,26;5,24;4,26;0;0;
12121;-20,51;-43,27;-20,51;-43,27;5,12;4,17;5,12;4,17;0;0;
12138;-15,74;-43,07;-15,74;-43,07;4,1;3,71;4,1;3,71;0;0;
12155;-15,74;-43,07;-15,74;-43,07;2,84;3,2;2,84;3,2;0;0;
12174;-16,64;-38,64;-16,64;-38,64;2,39;2,62;2,39;2,62;0;0;
12191;-12,4;-35,37;-12,4;-35,37;2,8;2,51;2,8;2,51;0;0;
12211;-18,13;-36,83;-18,13;-36,83;2,75;2,67;2,75;2,67;0;0;
12230;-12,75;-37,61;-12,75;-37,61;2,54;2,61;2,54;2,61;0;0;
12253;-19,21;-35,19;-19,21;-35,19;2,47;2,42;2,47;2,42;0;0;
12272;-26,26;-36,47;-26,26;-36,47;2,49;2,39;2,49;2,39;0;0;
12296;-18,61;-37,46;-18,61;-37,46;2,91;2,55;2,91;2,55;0;0;
12314;-11,38;-37,09;-11,38;-37,09;3,15;2,81;3,15;2,81;0;0;
12334;-15,52;-30,97;-15,52;-30,97;3,44;3;3,44;3;0;0;
12351;-13,58;-35,43;-13,58;-35,43;3,36;3,02;3,36;3,02;0;0;
12369;-16,89;-33,9;-16,89;-33,9;3,38;3,01;3,38;3,01;0;0;
12389;-18,24;-37,94;-18,24;-37,94;3,17;2,8;3,17;2,8;0;0;
12412;-17,49;-35,9;-17,49;-35,9;2,59;2,69;2,59;2,69;0;0;
12431;-17,08;-35,6;-17,08;-35,6;2,09;2,29;2,09;2,29;0;0;
12448;-17,2;-35,41;-17,2;-35,41;1,98;1,88;1,98;1,88;0;0;
12466;-14,71;-36,62;-14,71;-36,62;2,12;1,71;2,12;1,71;0;0;
12485;-16,34;-37,59;-16,34;-37,59;2,3;1,84;2,3;1,84;0;0;
12506;-15,82;-35,44;-15,82;-35,44;2,22;1,62;2,22;1,62;0;0;
12523;-14,93;-38,28;-14,93;-38,28;2,17;1,56;2,17;1,56;0;0;
12542;-15,97;-36,41;-15,97;-36,41;2,3;1,73;2,3;1,73;0;0;
12566;-19,39;-36,05;-19,39;-36,05;2,13;1,7;2,13;1,7;0;0;
12584;-17,05;-38,45;-17,05;-38,45;2,1;1,63;2,1;1,63;0;0;
12603;-14,35;-35,53;-14,35;-35,53;2,11;1,71;2,11;1,71;0;0;
12622;-16,66;-38,61;-16,66;-38,61;2,05;1,92;2,05;1,92;0;0;
12642;-21,36;-36,24;-21,36;-36,24;1,93;1,72;1,93;1,72;0;0;
12660;-16,9;-34,61;-16,9;-34,61;2,02;1,92;2,02;1,92;0;0;
12678;-18,05;-36,83;-18,05;-36,83;1,96;1,87;1,96;1,87;0;0;
12699;-15,1;-34,87;-15,1;-34,87;2,2;1,96;2,2;1,96;0;0;
12723;-14,18;-34,27;-14,18;-34,27;2,3;1,98;2,3;1,98;0;0;
12742;-15,77;-35,46;-15,77;-35,46;2,29;1,77;2,29;1,77;0;0;
12763;-18,48;-34,11;-18,48;-34,11;2,31;1,93;2,31;1,93;0;0;
12783;-16,15;-30,8;-16,15;-30,8;2,09;1,7;2,09;1,7;0;0;
12802;-16,93;-39,05;-16,93;-39,05;1,92;1,78;1,92;1,78;0;0;
12821;-14,95;-34,53;-14,95;-34,53;1,68;1,62;1,68;1,62;0;0;
12841;-13,47;-35,95;-13,47;-35,95;1,49;1,58;1,49;1,58;0;0;
12859;-17,01;-34,69;-17,01;-34,69;1,28;1,65;1,28;1,65;0;0;
12882;-15,3;-37,58;-15,3;-37,58;1,13;1,65;1,13;1,65;0;0;
12901;-19,4;-36,59;-19,4;-36,59;1,28;1,59;1,28;1,59;0;0;
12920;-15,26;-36,46;-15,26;-36,46;1,31;1,61;1,31;1,61;0;0;
12937;-18,53;-36,57;-18,53;-36,57;1,48;1,62;1,48;1,62;0;0;
12955;-18,53;-36,57;-18,53;-36,57;1,66;1,54;1,66;1,54;0;0;
12973;-14,54;-35,23;-14,54;-35,23;1,93;1,38;1,93;1,38;0;0;
12995;-15,94;-36,58;-15,94;-36,58;2;1,46;2;1,46;0;0;
13013;-16,98;-33,88;-16,98;-33,88;1,86;1,42;1,86;1,42;0;0;
13035;-21,63;-40,05;-21,63;-40,05;1,83;1,42;1,83;1,42;0;0;
13052;-16,27;-34,91;-16,27;-34,91;1,79;1,53;1,79;1,53;0;0;
13069;-16,41;-38,77;-16,41;-38,77;1,79;1,56;1,79;1,56;0;0;
13088;-18,81;-34,69;-18,81;-34,69;1,57;1,65;1,57;1,65;0;0;
13109;-15,8;-34,87;-15,8;-34,87;1,61;1,55;1,61;1,55;0;0;
13127;-16,58;-37,59;-16,58;-37,59;1,66;1,58;1,66;1,58;0;0;
13145;-17,96;-35,22;-17,96;-35,22;1,53;1,32;1,53;1,32;0;0;
13166;-17,27;-38,74;-17,27;-38,74;1,38;1,42;1,38;1,42;0;0;
13187;-15,6;-33,65;-15,6;-33,65;1,21;1,16;1,21;1,16;0;0;
13205;-13,52;-35;-13,52;-35;1,59;1,34;1,59;1,34;0;0;
13224;-16,69;-33,78;-16,69;-33,78;1,5;1,53;1,5;1,53;0;0;
13243;-13,44;-37,92;-13,44;-37,92;1,61;1,77;1,61;1,77;0;0;
13261;-18,15;-35,27;-18,15;-35,27;1,77;1,78;1,77;1,78;0;0;
13279;-16,15;-34,48;-16,15;-34,48;1,77;1,65;1,77;1,65;0;0;
13299;-20,45;-35,24;-20,45;-35,24;1,78;1,63;1,78;1,63;0;0;
13317;-16,15;-35,44;-16,15;-35,44;1,79;1,39;1,79;1,39;0;0;
13339;-17,01;-37,14;-17,01;-37,14;1,67;1,34;1,67;1,34;0;0;
13356;-17,01;-37,14;-17,01;-37,14;1,55;1,27;1,55;1,27;0;0;
13375;-19,44;-33,72;-19,44;-33,72;1,65;1,3;1,65;1,3;0;0;
13396;-15,31;-38,2;-15,31;-38,2;1,55;1,31;1,55;1,31;0;0;
13414;-14,81;-37,5;-14,81;-37,5;1,26;1,48;1,26;1,48;0;0;
13433;-15,58;-35,33;-15,58;-35,33;1,14;1,44;1,14;1,44;0;0;
13453;-15,54;-34,63;-15,54;-34,63;1,15;1,31;1,15;1,31;0;0;
13471;-15,73;-38,11;-15,73;-38,11;1,26;1,19;1,26;1,19;1;0;
13494;-16,29;-34,21;-16,29;-34,21;1,14;1,15;1,14;1,15;1;0;
13514;-13,31;-37,93;-13,31;-37,93;1,37;1,19;1,37;1,19;1;0;
13532;-17,01;-37,69;-17,01;-37,69;1,48;1,04;1,48;1,04;1;0;
13549;-21,63;-40,71;-21,63;-40,71;1,62;1,41;1,62;1,41;1;0;
13569;-14,64;-34,32;-14,64;-34,32;2,62;2,37;2,62;2,37;1;0;
13588;-37,3;-48,13;-37,3;-48,13;5,89;4,1;5,89;4,1;1;0;
13608;-46,99;-46,07;-46,99;-46,07;8,37;5,78;8,37;5,78;1;0;
13630;-4,1;-16,88;-4,1;-16,88;10,17;6,86;10,17;6,86;1;0;
13652;73,2;19,02;73,2;19,02;13,57;8,8;13,57;8,8;1;0;
13672;-30,64;-46,08;-30,64;-46,08;15,98;10,02;15,98;10,02;1;0;
13692;-32,81;-65,54;-32,81;-65,54;16,67;11,2;16,67;11,2;1;0;
13711;-45,92;-37,77;-45,92;-37,77;17,63;12,88;17,63;12,88;1;0;
13732;-17,4;-40,11;-17,4;-40,11;18,25;12,73;18,25;12,73;1;0;
13751;4,98;-17,23;4,98;-17,23;16,34;12,13;16,34;12,13;1;0;
13773;-16,3;-35,15;-16,3;-35,15;13,09;10,29;13,09;10,29;1;0;
13792;11,28;-16,74;11,28;-16,74;13,95;12,79;13,95;12,79;1;0;
13817;-15,19;-29,97;-15,19;-29,97;11,55;12,03;11,55;12,03;1;0;
13837;-5,16;-27,59;-5,16;-27,59;9,33;10,73;9,33;10,73;0;0;
13858;-12,43;-42,27;-12,43;-42,27;8,99;10,63;8,99;10,63;0;0;
13881;-12,73;-27,31;-12,73;-27,31;10,15;12,53;10,15;12,53;0;0;
13903;-17,01;-37,74;-17,01;-37,74;9,78;11,74;9,78;11,74;0;0;
13921;-32,83;-40,15;-32,83;-40,15;7,4;8,26;7,4;8,26;0;0;
13941;-17;-39,03;-17;-39,03;6,29;7,34;6,29;7,34;0;0;
13968;-14,62;-36,76;-14,62;-36,76;5,58;6,36;5,58;6,36;0;0;
13999;-16,76;-32,92;-16,76;-32,92;3,79;4,99;3,79;4,99;0;0;
14021;-16,7;-33,91;-16,7;-33,91;2,28;2,71;2,28;2,71;0;0;
14041;-17,02;-37,21;-17,02;-37,21;2,04;2,53;2,04;2,53;0;0;
14060;-15,08;-32,58;-15,08;-32,58;1,7;2,17;1,7;2,17;0;0;
14079;-17,22;-38,29;-17,22;-38,29;1,67;2,09;1,67;2,09;0;0;
14099;-16,68;-35,37;-16,68;-35,37;1,56;1,79;1,56;1,79;0;0;
14122;-18,14;-36,75;-18,14;-36,75;1,42;1,63;1,42;1,63;0;0;
14145;-16,49;-33,89;-16,49;-33,89;1,4;1,66;1,4;1,66;0;0;
14165;-18,18;-29,91;-18,18;-29,91;1,67;1,83;1,67;1,83;0;0;
14184;-21,47;-35,84;-21,47;-35,84;1,85;1,92;1,85;1,92;0;0;
14205;-16,02;-33,17;-16,02;-33,17;1,92;1,92;1,92;1,92;0;0;
14224;-15,85;-34,97;-15,85;-34,97;1,85;2,02;1,85;2,02;0;0;
14243;-18,64;-34,5;-18,64;-34,5;1,96;1,99;1,96;1,99;0;0;
14264;-16,43;-35,61;-16,43;-35,61;1,94;1,9;1,94;1,9;0;0;
14281;-15,76;-36,97;-15,76;-36,97;1,5;1,42;1,5;1,42;0;0;
14304;-12,3;-35,96;-12,3;-35,96;1,54;1,29;1,54;1,29;0;0;
14322;-17,05;-34,47;-17,05;-34,47;1,61;1,27;1,61;1,27;0;0;
14343;-17,8;-36,59;-17,8;-36,59;1,6;1,35;1,6;1,35;0;0;
14361;-18,57;-34,56;-18,57;-34,56;1,81;1,63;1,81;1,63;0;0;
14381;-13,1;-37,37;-13,1;-37,37;1,9;1,73;1,9;1,73;0;0;
14399;-15,65;-35,24;-15,65;-35,24;1,91;1,8;1,91;1,8;1;0;
14418;-14,38;-35,25;-14,38;-35,25;1,94;1,79;1,94;1,79;1;0;
14437;-14,37;-36,59;-14,37;-36,59;1,98;1,68;1,98;1,68;1;0;
14458;-18,87;-34,92;-18,87;-34,92;1,84;1,72;1,84;1,72;1;0;
14477;-13,71;-37,07;-13,71;-37,07;1,91;1,5;1,91;1,5;1;0;
14499;-16,26;-34,27;-16,26;-34,27;1,84;1,6;1,84;1,6;1;0;
14516;-16,26;-34,27;-16,26;-34,27;1,57;1,8;1,57;1,8;1;0;
14536;-22,05;-40,33;-22,05;-40,33;3,67;3,17;3,67;3,17;1;0;
14553;-23,47;-33,89;-23,47;-33,89;5,61;4,26;5,61;4,26;1;0;
14571;-31;-41,27;-31;-41,27;8,39;6,81;8,39;6,81;1;0;
14592;-21,39;-44,57;-21,39;-44,57;11,58;8,34;11,58;8,34;1;0;
14614;-14,92;-28,6;-14,92;-28,6;13,21;10,31;13,21;10,31;1;0;
14635;-14,29;-13,16;-14,29;-13,16;13,26;11,71;13,26;11,71;1;0;
14654;-17,95;-29,3;-17,95;-29,3;14,66;13,06;14,66;13,06;1;0;
14672;-4,64;-45,98;-4,64;-45,98;14,54;12,91;14,54;12,91;1;0;
14690;0,79;-39,54;0,79;-39,54;12,96;12,78;12,96;12,78;1;0;
14709;-18,22;-42,23;-18,22;-42,23;13,89;13,53;13,89;13,53;1;0;
14727;-9,13;-23,95;-9,13;-23,95;14,85;15,08;14,85;15,08;1;0;
14745;-13,11;5,03;-13,11;5,03;16,04;15,62;16,04;15,62;1;0;
14768;-35,8;-27,35;-35,8;-27,35;12,96;14,42;12,96;14,42;0;0;
14787;-9,75;-24,3;-9,75;-24,3;12,91;12,85;12,91;12,85;0;0;
14806;-20,73;-31,22;-20,73;-31,22;11,72;12,6;11,72;12,6;0;0;
14826;-21,04;-35,47;-21,04;-35,47;7,58;10,61;7,58;10,61;0;0;
14846;-47,59;-69,6;-47,59;-69,6;7,45;8,7;7,45;8,7;0;0;
14868;-20,87;-37,98;-20,87;-37,98;4,93;5,67;4,93;5,67;0;0;
14888;-16,98;-35,41;-16,98;-35,41;4,09;4,96;4,09;4,96;0;0;
14908;-13,13;-33,42;-13,13;-33,42;3,96;4,44;3,96;4,44;0;0;
14936;-16,62;-38,18;-16,62;-38,18;3,2;3,4;3,2;3,4;0;0;
14957;-17,79;-35,24;-17,79;-35,24;2,96;3,14;2,96;3,14;0;0;
14974;-14,5;-31,21;-14,5;-31,21;2,12;2,01;2,12;2,01;0;0;
14992;-16,31;-35,1;-16,31;-35,1;2,26;1,82;2,26;1,82;0;0;
15011;-16,88;-34,14;-16,88;-34,14;1,98;1,72;1,98;1,72;0;0;
15031;-16,28;-36,69;-16,28;-36,69;1,67;1,45;1,67;1,45;0;0;
15048;-9,28;-38,19;-9,28;-38,19;1,86;1,4;1,86;1,4;0;0;
15068;-16,84;-35,25;-16,84;-35,25;1,89;1,4;1,89;1,4;0;0;
15090;-19,45;-37,02;-19,45;-37,02;1,78;1,36;1,78;1,36;0;0;
15109;-17,44;-38,29;-17,44;-38,29;1,59;1,47;1,59;1,47;0;0;
15129;-13,13;-34,25;-13,13;-34,25;1,55;1,51;1,55;1,51;0;0;
15147;-15,31;-40,35;-15,31;-40,35;1,8;1,73;1,8;1,73;0;0;
15167;-12,99;-34,08;-12,99;-34,08;1,49;1,67;1,49;1,67;0;0;
15186;-16,11;-36,23;-16,11;-36,23;1,75;1,75;1,75;1,75;0;0;
15205;-16,29;-34,11;-16,29;-34,11;1,58;1,9;1,58;1,9;0;0;
15225;-14,95;-34,95;-14,95;-34,95;1,69;1,9;1,69;1,9;0;0;
15248;-16,77;-33,89;-16,77;-33,89;1,5;1,81;1,5;1,81;0;0;
15267;-19,47;-33,99;-19,47;-33,99;1,8;1,83;1,8;1,83;0;0;
15284;-18,06;-36,59;-18,06;-36,59;1,67;1,84;1,67;1,84;0;0;
15304;-17,05;-33,18;-17,05;-33,18;1,62;1,72;1,62;1,72;0;0;
15323;-13,15;-33,91;-13,15;-33,91;1,77;1,77;1,77;1,77;0;0;
15341;-14,7;-35,95;-14,7;-35,95;1,91;1,73;1,91;1,73;0;0;
15359;-15,4;-38,27;-15,4;-38,27;1,87;1,74;1,87;1,74;0;0;
15376;-15,4;-38,27;-15,4;-38,27;1,49;1,81;1,49;1,81;0;0;
15397;-9,42;-37,58;-9,42;-37,58;1,74;1,62;1,74;1,62;0;0;
15419;-19,46;-32,56;-19,46;-32,56;2,02;1,6;2,02;1,6;1;0;
15438;-15,79;-31,93;-15,79;-31,93;1,79;1,48;1,79;1,48;1;0;
15458;-10,79;-29,39;-10,79;-29,39;1,99;1,73;1,99;1,73;1;0;
15475;-10,79;-29,39;-10,79;-29,39;2,15;1,94;2,15;1,94;1;0;
15492;-17,11;-37,94;-17,11;-37,94;2,4;2,04;2,4;2,04;1;0;
15512;-14,02;-35,93;-14,02;-35,93;2,31;2,65;2,31;2,65;1;0;
15534;-18,29;-38,42;-18,29;-38,42;2,42;2,86;2,42;2,86;1;0;
15555;-12,25;-36,07;-12,25;-36,07;3,18;3,11;3,18;3,11;1;0;
15573;-16,73;-36,96;-16,73;-36,96;3,27;3,19;3,27;3,19;1;0;
15592;-20,87;-45,16;-20,87;-45,16;5,09;4,55;5,09;4,55;1;0;
15610;-25,62;-34,6;-25,62;-34,6;7,13;6,22;7,13;6,22;1;0;
15628;-24,58;-35,19;-24,58;-35,19;8,61;7,06;8,61;7,06;1;0;
15652;-5,84;-57,19;-5,84;-57,19;12,17;9,55;12,17;9,55;1;0;
15670;8,04;3,17;8,04;3,17;13,82;11,32;13,82;11,32;1;0;
15687;-31,33;-43,43;-31,33;-43,43;16,87;15,54;16,87;15,54;1;0;
15709;-16,19;-0,61;-16,19;-0,61;17,08;16,9;17,08;16,9;1;0;
15727;-5,4;-30,75;-5,4;-30,75;18,22;20,52;18,22;20,52;1;0;
15748;3,34;-44,05;3,34;-44,05;17,34;19,98;17,34;19,98;1;0;
15768;-23,1;-30,7;-23,1;-30,7;15,62;18,97;15,62;18,97;0;0;
15786;-13,87;-34,11;-13,87;-34,11;12,83;16,96;12,83;16,96;0;0;
15805;-16,16;-34,42;-16,16;-34,42;11,26;12,94;11,26;12,94;0;0;
15822;-0,19;-27,1;-0,19;-27,1;9,26;8,96;9,26;8,96;0;0;
15846;-1,5;-28,92;-1,5;-28,92;6,67;6,21;6,67;6,21;0;0;
15869;-6;-36,21;-6;-36,21;5,7;4,65;5,7;4,65;0;0;
15891;-14,77;-39,39;-14,77;-39,39;6,11;3,95;6,11;3,95;0;0;
15908;-21,27;-35,67;-21,27;-35,67;5,14;2,88;5,14;2,88;0;0;
15927;-18,97;-35,59;-18,97;-35,59;4,51;2,37;4,51;2,37;0;0;
15947;-7,67;-29,78;-7,67;-29,78;3,78;1,91;3,78;1,91;0;0;
15968;-16,78;-33,76;-16,78;-33,76;3,47;1,98;3,47;1,98;0;0;
15985;-14,64;-36,1;-14,64;-36,1;3,1;1,87;3,1;1,87;0;0;
16003;0,55;-32,38;0,55;-32,38;3,03;1,94;3,03;1,94;0;0;
16026;-10,76;-32,49;-10,76;-32,49;3,63;2,3;3,63;2,3;0;0;
16044;-5,45;-28,06;-5,45;-28,06;3,83;2,53;3,83;2,53;0;0;
16061;-15,07;-33,77;-15,07;-33,77;3,58;2,45;3,58;2,45;0;0;
16079;-16,03;-34,9;-16,03;-34,9;3,19;2,16;3,19;2,16;0;0;
16100;-10,97;-30,19;-10,97;-30,19;3,71;2,69;3,71;2,69;0;0;
16118;-10,86;-34,26;-10,86;-34,26;3,3;2,42;3,3;2,42;0;0;
16137;-20,44;-39,9;-20,44;-39,9;2,8;2,5;2,8;2,5;0;0;
16155;-20,44;-39,9;-20,44;-39,9;2,51;2,24;2,51;2,24;0;0;
16178;-17,38;-35,74;-17,38;-35,74;2,69;2,39;2,69;2,39;0;0;
16195;-17,38;-35,74;-17,38;-35,74;2,39;2,18;2,39;2,18;0;0;
16214;-21,29;-31,97;-21,29;-31,97;2,45;2,01;2,45;2,01;0;0;
16237;-16,29;-34,15;-16,29;-34,15;2,13;1,94;2,13;1,94;0;0;
16256;-15,91;-35,49;-15,91;-35,49;2,28;2,03;2,28;2,03;0;0;
16273;-14,63;-34,06;-14,63;-34,06;2,14;2,09;2,14;2,09;0;0;
16290;-18,06;-32,91;-18,06;-32,91;1,92;2,06;1,92;2,06;0;0;
16309;-16,68;-36,19;-16,68;-36,19;1,92;2,06;1,92;2,06;0;0;
16331;-12,58;-31,08;-12,58;-31,08;1,84;1,97;1,84;1,97;0;0;
16349;-20,65;-36,57;-20,65;-36,57;2,04;1,89;2,04;1,89;0;0;
16367;-17,27;-36,59;-17,27;-36,59;1,77;1,72;1,77;1,72;0;0;
16387;-15,67;-36,6;-15,67;-36,6;1,83;1,77;1,83;1,77;0;0;
16405;-16,39;-32,9;-16,39;-32,9;1,78;1,73;1,78;1,73;0;0;
16423;-15,8;-36,97;-15,8;-36,97;1,5;1,59;1,5;1,59;0;0;
16442;-17,18;-33,6;-17,18;-33,6;1,3;1,55;1,3;1,55;0;0;
16463;-13,95;-37,59;-13,95;-37,59;1,33;1,57;1,33;1,57;0;0;
16486;-12,48;-35,62;-12,48;-35,62;1,48;1,44;1,48;1,44;0;0;
16507;-16,03;-35,45;-16,03;-35,45;1,33;1,48;1,33;1,48;0;0;
16527;-14,08;-34,89;-14,08;-34,89;1,56;1,47;1,56;1,47;0;0;
16546;-14,88;-36,38;-14,88;-36,38;1,65;1,49;1,65;1,49;0;0;
16564;-14,6;-32,52;-14,6;-32,52;1,9;1,63;1,9;1,63;0;0;
16581;-16,93;-35,72;-16,93;-35,72;1,82;1,67;1,82;1,67;0;0;
16601;-14,4;-39,78;-14,4;-39,78;1,62;2,04;1,62;2,04;0;0;
16621;-16,52;-31,57;-16,52;-31,57;1,8;1,91;1,8;1,91;0;0;
16643;-15,43;-36,44;-15,43;-36,44;1,54;2,16;1,54;2,16;0;0;
16661;-17,83;-34,77;-17,83;-34,77;1,69;2,25;1,69;2,25;0;0;
16679;-18,81;-38,68;-18,81;-38,68;1,71;2,34;1,71;2,34;0;0;
16699;-14,12;-32,76;-14,12;-32,76;1,87;2,52;1,87;2,52;0;0;
16716;-14,12;-32,76;-14,12;-32,76;1,89;2,41;1,89;2,41;0;0;
16736;-21,18;-36,09;-21,18;-36,09;2,1;2,33;2,1;2,33;0;0;
16754;-15,3;-38,3;-15,3;-38,3;2,5;2,28;2,5;2,28;0;0;
16775;-17,83;-35,05;-17,83;-35,05;2,43;2,07;2,43;2,07;0;0;
16797;-16,26;-33,64;-16,26;-33,64;2,21;1,69;2,21;1,69;0;0;
16814;-14,23;-34,67;-14,23;-34,67;2,18;1,53;2,18;1,53;0;0;
16834;-18,85;-35,96;-18,85;-35,96;2,12;1,41;2,12;1,41;0;0;
16854;-14,43;-35,23;-14,43;-35,23;1,91;1,46;1,91;1,46;0;0;
16873;-18,46;-34,88;-18,46;-34,88;1,81;1,44;1,81;1,44;0;0;
16891;-16,3;-36,96;-16,3;-36,96;1,83;1,55;1,83;1,55;0;0;
16909;-17,74;-33,52;-17,74;-33,52;1,81;1,53;1,81;1,53;0;0;
16929;-13,59;-35,01;-13,59;-35,01;1,73;1,39;1,73;1,39;0;0;
16949;-16,1;-34,89;-16,1;-34,89;1,6;1,38;1,6;1,38;0;0;
16968;-15,09;-35,2;-15,09;-35,2;1,43;1,28;1,43;1,28;0;0;
16990;-15,17;-34,88;-15,17;-34,88;1,68;1,34;1,68;1,34;0;0;
17008;-14,21;-36,91;-14,21;-36,91;1,58;1,24;1,58;1,24;0;0;
17026;-17,35;-36,65;-17,35;-36,65;1,94;1,27;1,94;1,27;0;0;
17045;-16,29;-35,25;-16,29;-35,25;2,18;1,22;2,18;1,22;0;0;
17063;-19,3;-35,24;-19,3;-35,24;2,27;1,12;2,27;1,12;0;0;
17083;-15,8;-34,26;-15,8;-34,26;2,34;1,15;2,34;1,15;0;0;
17106;-17,45;-32,53;-17,45;-32,53;2,09;1,27;2,09;1,27;0;0;
17124;-14,58;-34,35;-14,58;-34,35;1,91;1,41;1,91;1,41;0;0;
17143;-17,35;-33,44;-17,35;-33,44;1,69;1,5;1,69;1,5;0;0;
17160;-19,69;-35,6;-19,69;-35,6;1,58;1,5;1,58;1,5;0;0;
17179;-14,77;-36,65;-14,77;-36,65;1,55;1,39;1,55;1,39;0;0;
17197;-14,77;-36,65;-14,77;-36,65;1,59;1,24;1,59;1,24;0;0;
17214;-17,98;-36,33;-17,98;-36,33;1,94;1,12;1,94;1,12;0;0;
17232;-18,81;-37,88;-18,81;-37,88;1,89;1,32;1,89;1,32;0;0;
17251;-16,73;-35,73;-16,73;-35,73;2,02;1,24;2,02;1,24;0;0;
17274;-15,74;-35,98;-15,74;-35,98;1,89;1,46;1,89;1,46;0;0;
17297;-16,21;-34,45;-16,21;-34,45;1,82;1,58;1,82;1,58;1;0;
17314;-17,88;-33,45;-17,88;-33,45;1,77;1,61;1,77;1,61;1;0;
17334;-13,6;-33,78;-13,6;-33,78;1,63;1,68;1,63;1,68;1;0;
17353;-13,52;-35,6;-13,52;-35,6;1,59;1,55;1,59;1,55;1;0;
17373;-15,53;-34,9;-15,53;-34,9;1,84;1,82;1,84;1,82;1;0;
17390;-15,76;-37,95;-15,76;-37,95;1,94;1,86;1,94;1,86;1;0;
17408;-12,06;-31,71;-12,06;-31,71;2,13;2,12;2,13;2,12;1;0;
17430;-26,26;-37,66;-26,26;-37,66;3,72;3,11;3,72;3,11;1;0;
17448;-23,76;-41,11;-23,76;-41,11;6,58;4,42;6,58;4,42;1;0;
17466;19,84;-32,12;19,84;-32,12;8,99;5,58;8,99;5,58;1;0;
17483;-16,56;-31,67;-16,56;-31,67;12,89;6,89;12,89;6,89;1;0;
17503;-15,64;-45,89;-15,64;-45,89;14,32;8,03;14,32;8,03;1;0;
17524;9,29;-11,73;9,29;-11,73;15,55;9,16;15,55;9,16;1;0;
17542;-16,06;-33,05;-16,06;-33,05;17,44;9,78;17,44;9,78;1;0;
17561;-47,91;-59,82;-47,91;-59,82;19,2;12,26;19,2;12,26;1;0;
17584;-27,71;-22,95;-27,71;-22,95;16,56;11,94;16,56;11,94;1;0;
17601;-15,96;-34,23;-15,96;-34,23;16,48;15,05;16,48;15,05;1;0;
17618;-12,75;-41,85;-12,75;-41,85;17,83;16,03;17,83;16,03;1;0;
17639;-5,39;-11,55;-5,39;-11,55;16,7;16,71;16,7;16,71;0;0;
17657;-5,39;-11,55;-5,39;-11,55;17,15;17,46;17,15;17,46;0;0;
17678;-45,63;-87,09;-45,63;-87,09;14,06;16,99;14,06;16,99;0;0;
17698;-19,53;-40,9;-19,53;-40,9;12,78;14,75;12,78;14,75;0;0;
17719;-11,08;-39,58;-11,08;-39,58;10,53;11,29;10,53;11,29;0;0;
17744;-14,73;-34,85;-14,73;-34,85;8,43;10,91;8,43;10,91;0;0;
17768;-18,84;-34,44;-18,84;-34,44;5,92;8,35;5,92;8,35;0;0;
17787;-20,9;-37,44;-20,9;-37,44;4,13;5,95;4,13;5,95;0;0;
17805;-4,85;-38,89;-4,85;-38,89;3,28;3,25;3,28;3,25;0;0;
17823;-17,93;-32,94;-17,93;-32,94;3,26;2,61;3,26;2,61;0;0;
17843;-16,26;-41,28;-16,26;-41,28;3,18;2,3;3,18;2,3;0;0;
17862;-16,75;-38,33;-16,75;-38,33;3,07;2,07;3,07;2,07;0;0;
17880;-17,26;-32,54;-17,26;-32,54;3,07;2,05;3,07;2,05;0;0;
17902;-17,63;-37,23;-17,63;-37,23;2,81;1,7;2,81;1,7;0;0;
17921;-17,31;-37,94;-17,31;-37,94;1,6;1,56;1,6;1,56;0;0;
17941;-16,95;-35,66;-16,95;-35,66;1,59;1,58;1,59;1,58;0;0;
17961;-14,52;-34,76;-14,52;-34,76;1,66;1,45;1,66;1,45;0;0;
17981;-18,01;-38,09;-18,01;-38,09;1,79;1,41;1,79;1,41;0;0;
17999;-18,6;-35,25;-18,6;-35,25;1,82;1,52;1,82;1,52;0;0;
18016;-18,6;-35,25;-18,6;-35,25;1,85;1,57;1,85;1,57;0;0;
18036;-11,7;-34,27;-11,7;-34,27;1,95;1,63;1,95;1,63;0;0;
18059;-15,79;-38,28;-15,79;-38,28;2,04;1,65;2,04;1,65;0;0;
18076;-15,79;-38,28;-15,79;-38,28;1,87;1,77;1,87;1,77;0;0;
18095;-19,11;-37,01;-19,11;-37,01;1,63;1,76;1,63;1,76;0;0;
18112;-16,06;-34,25;-16,06;-34,25;1,64;1,66;1,64;1,66;0;0;
18130;-12,23;-36,87;-12,23;-36,87;1,76;1,58;1,76;1,58;0;0;
18148;-16,72;-33,41;-16,72;-33,41;1,8;1,66;1,8;1,66;0;0;
18168;-15,59;-36,72;-15,59;-36,72;1,76;1,62;1,76;1,62;0;0;
18187;-20,56;-36,9;-20,56;-36,9;1,71;1,44;1,71;1,44;0;0;
18208;-16,55;-34,98;-16,55;-34,98;1,74;1,31;1,74;1,31;0;0;
18226;-16,7;-35,69;-16,7;-35,69;1,69;1,41;1,69;1,41;0;0;
18245;-18,29;-32,58;-18,29;-32,58;1,49;1,39;1,49;1,39;0;0;
18264;-15,39;-38,07;-15,39;-38,07;1,43;1,3;1,43;1,3;0;0;
18285;-16,25;-37,32;-16,25;-37,32;1,39;1,35;1,39;1,35;0;0;
18305;-14;-35,61;-14;-35,61;1,27;1,39;1,27;1,39;0;0;
18325;-16,82;-37,22;-16,82;-37,22;1,32;1,46;1,32;1,46;0;0;
18345;-17,54;-33,77;-17,54;-33,77;1,37;1,46;1,37;1,46;0;0;
18368;-16,3;-33,28;-16,3;-33,28;1,5;1,45;1,5;1,45;0;0;
18385;-12,44;-33,3;-12,44;-33,3;1,63;1,39;1,63;1,39;0;0;
18402;-15,62;-35,17;-15,62;-35,17;1,66;1,45;1,66;1,45;0;0;
18419;-15,78;-35,23;-15,78;-35,23;1,56;1,5;1,56;1,5;0;0;
18440;-14,02;-33,01;-14,02;-33,01;1,66;1,59;1,66;1,59;0;0;
18458;-17,16;-35,02;-17,16;-35,02;1,55;1,45;1,55;1,45;0;0;
18474;-17,16;-35,02;-17,16;-35,02;1,53;1,42;1,53;1,42;0;0;
18492;-12,16;-37,45;-12,16;-37,45;1,48;1,24;1,48;1,24;0;0;
18509;-15,81;-37,17;-15,81;-37,17;1,53;1,33;1,53;1,33;0;0;
18530;-13,74;-34,7;-13,74;-34,7;1,47;1,25;1,47;1,25;0;0;
18549;-16,63;-32,65;-16,63;-32,65;1,41;1,41;1,41;1,41;0;0;
18568;-18,62;-35,97;-18,62;-35,97;1,44;1,48;1,44;1,48;0;0;
18586;-15,32;-37,48;-15,32;-37,48;1,53;1,61;1,53;1,61;0;0;
18604;-17,13;-34,87;-17,13;-34,87;1,64;1,49;1,64;1,49;0;0;
18623;-19,14;-35,91;-19,14;-35,91;1,8;1,55;1,8;1,55;0;0;
18643;-11,69;-34,87;-11,69;-34,87;1,81;1,48;1,81;1,48;0;0;
18662;-18,93;-37,69;-18,93;-37,69;2,05;1,47;2,05;1,47;0;0;
18684;-13,22;-36,23;-13,22;-36,23;2,02;1,47;2,02;1,47;0;0;
18704;-14,56;-35,08;-14,56;-35,08;2,05;1,51;2,05;1,51;0;0;
18722;-14,93;-35,61;-14,93;-35,61;1,96;1,4;1,96;1,4;0;0;
18739;-16,19;-35,3;-16,19;-35,3;1,73;1,57;1,73;1,57;0;0;
18758;-18,11;-37,45;-18,11;-37,45;1,48;1,66;1,48;1,66;0;0;
18778;-14,92;-34,43;-14,92;-34,43;1,42;1,48;1,42;1,48;0;0;
18796;-14,92;-34,43;-14,92;-34,43;1,28;1,5;1,28;1,5;0;0;
18815;-17,94;-33,53;-17,94;-33,53;1,26;1,44;1,26;1,44;0;0;
18840;-14,75;-34;-14,75;-34;1,3;1,51;1,3;1,51;0;0;
18857;-16,96;-38,48;-16,96;-38,48;1,41;1,43;1,41;1,43;0;0;
18876;-16,96;-38,48;-16,96;-38,48;1,42;1,47;1,42;1,47;0;0;
18893;-16,32;-36,22;-16,32;-36,22;1,55;1,5;1,55;1,5;0;0;
18911;-13,37;-37,13;-13,37;-37,13;1,63;1,54;1,63;1,54;0;0;
18934;-18,9;-34,25;-18,9;-34,25;1,64;1,41;1,64;1,41;0;0;
18953;-14,77;-35,91;-14,77;-35,91;1,75;1,4;1,75;1,4;0;0;
18972;-13,34;-40,53;-13,34;-40,53;1,7;1,49;1,7;1,49;0;0;
18993;-17,1;-35,62;-17,1;-35,62;1,8;1,53;1,8;1,53;0;0;
19011;-15,54;-31,42;-15,54;-31,42;1,72;1,63;1,72;1,63;0;0;
19030;-16,16;-38,91;-16,16;-38,91;1,74;1,73;1,74;1,73;0;0;
19048;-16,76;-33,11;-16,76;-33,11;1,65;1,88;1,65;1,88;0;0;
19067;-13,61;-35,86;-13,61;-35,86;1,8;1,8;1,8;1,8;0;0;
19086;-13,61;-35,63;-13,61;-35,63;1,87;1,66;1,87;1,66;0;0;
19105;-15,66;-36,63;-15,66;-36,63;1,81;1,67;1,81;1,67;0;0;
19123;-17,37;-35,74;-17,37;-35,74;1,95;1,76;1,95;1,76;0;0;
19144;-18,69;-34,68;-18,69;-34,68;1,9;1,77;1,9;1,77;0;0;
19163;-15,42;-38,01;-15,42;-38,01;1,83;1,83;1,83;1,83;0;0;
19181;-14,75;-31,73;-14,75;-31,73;1,63;1,78;1,63;1,78;0;1;
19200;-17,12;-36,93;-17,12;-36,93;1,4;1,92;1,4;1,92;0;1;
19217;-16,32;-34,98;-16,32;-34,98;1,52;1,86;1,52;1,86;0;1;
19238;-18,74;-37,32;-18,74;-37,32;1,62;1,88;1,62;1,88;0;1;
19255;-18,74;-37,32;-18,74;-37,32;1,81;1,82;1,81;1,82;0;1;
19275;-15,69;-33,71;-15,69;-33,71;2,74;2,2;2,74;2,2;0;1;
19297;-15,69;-33,71;-15,69;-33,71;3,57;2,67;3,57;2,67;0;1;
19314;-14,36;-17,9;-14,36;-17,9;5,46;4,41;5,46;4,41;0;1;
19336;20,33;-3,07;20,33;-3,07;9,33;9,42;9,33;9,42;0;1;
19355;4,05;-20,54;4,05;-20,54;10,76;10,7;10,76;10,7;0;1;
19376;-21,47;-14,41;-21,47;-14,41;13,07;13,74;13,07;13,74;0;1;
19395;-0,9;-22,56;-0,9;-22,56;13,82;14,93;13,82;14,93;0;1;
19412;22,51;-9,67;22,51;-9,67;15,61;18,23;15,61;18,23;0;1;
19433;-20,74;-132,83;-20,74;-132,83;15,02;21,05;15,02;21,05;0;1;
19455;5,57;26,91;5,57;26,91;16,23;26,39;16,23;26,39;0;1;
19474;-39,4;-39,07;-39,4;-39,07;15,74;25,67;15,74;25,67;0;1;
19492;-18,68;-34,45;-18,68;-34,45;15,41;22,96;15,41;22,96;0;1;
19510;-15,98;-33,77;-15,98;-33,77;14,46;20,8;14,46;20,8;0;1;
19528;-15,17;-33,01;-15,17;-33,01;12,59;14,75;12,59;14,75;0;0;
19546;-15,89;-40,41;-15,89;-40,41;11,61;10,47;11,61;10,47;0;0;
19566;-13,19;-33,51;-13,19;-33,51;6,81;3,05;6,81;3,05;0;0;
19586;-11,55;-35,59;-11,55;-35,59;5,92;3;5,92;3;0;0;
19608;-31,51;-37,08;-31,51;-37,08;5,66;2,63;5,66;2,63;0;0;
19628;-14,39;-34,71;-14,39;-34,71;4,64;2,52;4,64;2,52;0;0;
19648;-18,84;-35,6;-18,84;-35,6;4,78;2,45;4,78;2,45;0;0;
19667;-15,38;-35,72;-15,38;-35,72;4,48;2,13;4,48;2,13;0;0;
19685;-14,97;-32,28;-14,97;-32,28;3,88;1,94;3,88;1,94;0;0;
19704;-19,69;-38,64;-19,69;-38,64;3,45;2,11;3,45;2,11;0;0;
19722;-18,15;-36,12;-18,15;-36,12;2,42;1,72;2,42;1,72;0;0;
19740;-15,05;-34,98;-15,05;-34,98;2,18;1,73;2,18;1,73;0;0;
19765;-17,38;-32,37;-17,38;-32,37;2,3;2,44;2,3;2,44;0;0;
19785;-19,63;-41,72;-19,63;-41,72;2,26;2,64;2,26;2,64;0;0;
19805;-15,74;-36,32;-15,74;-36,32;2,19;2,67;2,19;2,67;0;0;
19822;-16,6;-40,85;-16,6;-40,85;2,96;3,31;2,96;3,31;0;0;
19839;-14,74;-32,58;-14,74;-32,58;2,98;3,36;2,98;3,36;0;0;
19857;-21,37;-38,91;-21,37;-38,91;3,04;3,05;3,04;3,05;0;0;
19874;-21,37;-38,91;-21,37;-38,91;3,07;2,87;3,07;2,87;0;0;
19894;-13,14;-31,44;-13,14;-31,44;3,07;2,98;3,07;2,98;0;0;
19916;-19,72;-38,59;-19,72;-38,59;3,35;3,15;3,35;3,15;1;0;
19935;-51,18;-53,37;-51,18;-53,37;4,47;3,35;4,47;3,35;1;0;
19953;-4,15;-29,88;-4,15;-29,88;5,41;3,96;5,41;3,96;1;0;
19973;9,6;-7,79;9,6;-7,79;9,35;6,27;9,35;6,27;1;0;
19992;-39,04;-51,72;-39,04;-51,72;13,54;8,49;13,54;8,49;1;0;
20010;-64,25;-70,47;-64,25;-70,47;17,24;10,94;17,24;10,94;1;0;
20029;-23,36;-36,7;-23,36;-36,7;18,2;12,2;18,2;12,2;1;0;
20049;-27,24;-24,15;-27,24;-24,15;20,72;12,96;20,72;12,96;1;0;
20073;-1,64;-43,19;-1,64;-43,19;19,97;13,84;19,97;13,84;1;0;
20089;-5,35;-3,19;-5,35;-3,19;15,75;11,25;15,75;11,25;1;0;
20107;-2,12;-27,14;-2,12;-27,14;17,82;12,17;17,82;12,17;1;0;
20124;-47,4;-55,28;-47,4;-55,28;16,4;11,58;16,4;11,58;1;0;
20143;-47,34;-55,55;-47,34;-55,55;17,05;12,03;17,05;12,03;1;0;
20162;-26,43;-29,11;-26,43;-29,11;14,11;11,35;14,11;11,35;1;0;
20180;-16,21;-45,09;-16,21;-45,09;18,45;12,03;18,45;12,03;1;0;
20197;-22,43;-48,61;-22,43;-48,61;17,17;10,72;17,17;10,72;1;0;
20219;-15,53;-28,7;-15,53;-28,7;16,05;12,12;16,05;12,12;1;0;
20240;-8,74;-27,72;-8,74;-27,72;15,27;12,02;15,27;12,02;0;0;
20259;-25,22;-48,49;-25,22;-48,49;13,24;10,83;13,24;10,83;0;0;
20279;-10,94;-38,4;-10,94;-38,4;10,77;8,93;10,77;8,93;0;0;
20302;-17,08;-35,22;-17,08;-35,22;8,09;8,39;8,09;8,39;0;0;
20320;-12,58;-36,23;-12,58;-36,23;7,04;6,59;7,04;6,59;0;0;
20340;-19,42;-32,38;-19,42;-32,38;5,76;5,2;5,76;5,2;0;0;
20358;-12,94;-36,41;-12,94;-36,41;4,46;3,96;4,46;3,96;0;0;
20375;-12,94;-36,41;-12,94;-36,41;3,88;3,71;3,88;3,71;0;0;
20398;-13,35;-34,12;-13,35;-34,12;2,03;1,98;2,03;1,98;0;0;
20419;-15,51;-36,48;-15,51;-36,48;1,79;1,7;1,79;1,7;0;0;
20438;-15,15;-36,73;-15,15;-36,73;1,58;1,77;1,58;1,77;0;0;
20457;-18,01;-35,75;-18,01;-35,75;1,48;1,85;1,48;1,85;0;0;
20475;-18,01;-35,75;-18,01;-35,75;1,42;1,86;1,42;1,86;0;0;
20493;-17,65;-36,4;-17,65;-36,4;1,49;1,8;1,49;1,8;0;0;
20511;-18,06;-28;-18,06;-28;1,4;1,81;1,4;1,81;0;0;
20531;-15,22;-32,53;-15,22;-32,53;1,37;1,89;1,37;1,89;0;0;
20553;-18,74;-32,72;-18,74;-32,72;1,49;1,73;1,49;1,73;0;0;
20578;-16,82;-36,45;-16,82;-36,45;1,52;1,55;1,52;1,55;0;0;
20600;-19,57;-35,77;-19,57;-35,77;1,61;1,5;1,61;1,5;0;0;
20618;-18,48;-36,1;-18,48;-36,1;1,42;1,48;1,42;1,48;0;0;
20637;-18,48;-36,1;-18,48;-36,1;1,49;1,25;1,49;1,25;0;0;
20656;-14,56;-36,34;-14,56;-36,34;1,47;1,18;1,47;1,18;0;0;
20673;-16,13;-37,09;-16,13;-37,09;1,53;1,47;1,53;1,47;0;0;
20691;-16,38;-34,33;-16,38;-34,33;1,6;1,63;1,6;1,63;0;0;
20713;-17,72;-33,76;-17,72;-33,76;1,59;1,73;1,59;1,73;0;0;
20730;-15,93;-34,27;-15,93;-34,27;1,6;1,65;1,6;1,65;0;0;
20750;-17,79;-35,33;-17,79;-35,33;1,53;1,7;1,53;1,7;0;0;
20770;-13,57;-32,63;-13,57;-32,63;1,41;1,77;1,41;1,77;0;0;
20788;-15,66;-36,7;-15,66;-36,7;1,53;1,65;1,53;1,65;0;0;
20806;-19,78;-38,36;-19,78;-38,36;1,61;1,56;1,61;1,56;0;0;
20825;-16,75;-36,32;-16,75;-36,32;1,6;1,62;1,6;1,62;0;0;
20844;-14,04;-35,62;-14,04;-35,62;1,53;1,68;1,53;1,68;0;0;
20866;-14,1;-35,79;-14,1;-35,79;1,6;1,69;1,6;1,69;0;0;
20885;-14,5;-35,06;-14,5;-35,06;1,49;1,68;1,49;1,68;0;0;
20905;-16,04;-33,55;-16,04;-33,55;1,36;1,64;1,36;1,64;0;0;
20922;-17,11;-37,02;-17,11;-37,02;1,35;1,91;1,35;1,91;0;0;
20942;-20,54;-34,75;-20,54;-34,75;1,34;1,81;1,34;1,81;0;0;
20962;-15,16;-36,34;-15,16;-36,34;1,39;1,91;1,39;1,91;0;0;
20980;-18,71;-34,71;-18,71;-34,71;1,36;1,85;1,36;1,85;0;0;
20998;-17,36;-38,02;-17,36;-38,02;1,41;1,75;1,41;1,75;0;0;
21023;-17,86;-34,7;-17,86;-34,7;1,42;1,72;1,42;1,72;0;0;
21043;-13,24;-33,7;-13,24;-33,7;1,99;1,74;1,99;1,74;0;0;
21061;-38,64;-44,57;-38,64;-44,57;2,97;2,22;2,97;2,22;0;0;
21081;-18,34;-39,08;-18,34;-39,08;4,8;3,58;4,8;3,58;1;0;
21101;-13,11;-33,55;-13,11;-33,55;5,23;3,68;5,23;3,68;1;0;
21121;-17,72;-30,72;-17,72;-30,72;5,95;3,86;5,95;3,86;1;0;
21139;-18,7;-37,94;-18,7;-37,94;5,68;3,89;5,68;3,89;1;0;
21158;-17,1;-36,73;-17,1;-36,73;5,69;3,97;5,69;3,97;1;0;
21181;-23,66;-38,09;-23,66;-38,09;4,36;3,29;4,36;3,29;1;0;
21202;-7,98;-30,05;-7,98;-30,05;4,15;3,03;4,15;3,03;1;0;
21222;-18,49;-36,32;-18,49;-36,32;4,3;2,98;4,3;2,98;1;0;
21241;-9,49;-35,1;-9,49;-35,1;7,99;4,91;7,99;4,91;1;0;
21259;-16,11;-42,56;-16,11;-42,56;11,4;6,4;11,4;6,4;1;0;
21277;-13,27;-33,38;-13,27;-33,38;13,22;7,57;13,22;7,57;1;0;
21297;3,7;-31,5;3,7;-31,5;15,88;8,04;15,88;8,04;1;0;
21315;3,7;-31,5;3,7;-31,5;19,17;8,95;19,17;8,95;1;0;
21336;-23,06;-36,99;-23,06;-36,99;16,95;8,25;16,95;8,25;1;0;
21354;-3,52;-36,28;-3,52;-36,28;15,3;8,75;15,3;8,75;1;0;
21372;-43,45;-76,5;-43,45;-76,5;13,6;9,84;13,6;9,84;1;0;
21391;-25,88;-38,91;-25,88;-38,91;15,12;11,02;15,12;11,02;1;0;
21412;-8,3;-38,63;-8,3;-38,63;13,16;11,22;13,16;11,22;1;0;
21430;-12,11;-18,65;-12,11;-18,65;11,11;11,19;11,11;11,19;0;0;
21449;-9,3;-34,25;-9,3;-34,25;11,11;11,1;11,11;11,1;0;0;
21468;-28,03;-50,18;-28,03;-50,18;9,72;9,18;9,72;9,18;0;0;
21490;-9,84;-30,86;-9,84;-30,86;6,15;5,45;6,15;5,45;0;0;
21509;-14,68;-34,94;-14,68;-34,94;4,78;5,02;4,78;5,02;0;0;
21528;-14,91;-30,85;-14,91;-30,85;3,44;4,36;3,44;4,36;0;0;
21547;-15,67;-35,61;-15,67;-35,61;2,88;3,12;2,88;3,12;0;0;
21565;-17,25;-37,95;-17,25;-37,95;2,5;3,03;2,5;3,03;0;0;
21585;-14,26;-33,9;-14,26;-33,9;2,12;2,76;2,12;2,76;0;0;
21603;-16;-38,44;-16;-38,44;1,78;2,21;1,78;2,21;0;0;
21621;-21,14;-37,57;-21,14;-37,57;1,91;2,28;1,91;2,28;0;0;
21644;-13,1;-34,39;-13,1;-34,39;1,89;1,94;1,89;1,94;0;0;
21663;-16,45;-35,44;-16,45;-35,44;1,72;2,03;1,72;2,03;0;0;
21682;-17,49;-35,07;-17,49;-35,07;1,76;1,95;1,76;1,95;0;0;
21701;-15,98;-35,36;-15,98;-35,36;1,83;2,08;1,83;2,08;0;0;
21719;-13,71;-39,44;-13,71;-39,44;1,75;2;1,75;2;0;0;
21734;-13,71;-39,44;-13,71;-39,44;1,55;1,91;1,55;1,91;0;0;
21751;-14,75;-35,25;-14,75;-35,25;1,47;1,79;1,47;1,79;0;0;
21771;-14,37;-36,44;-14,37;-36,44;1,49;1,74;1,49;1,74;0;0;
21793;-19,17;-36,41;-19,17;-36,41;1,33;1,9;1,33;1,9;0;0;
21814;-14,75;-36,23;-14,75;-36,23;1,49;1,69;1,49;1,69;0;0;
21833;-16,96;-33,86;-16,96;-33,86;1,46;1,56;1,46;1,56;0;0;
21854;-18,1;-37,25;-18,1;-37,25;1,52;1,46;1,52;1,46;0;0;
21873;-15,27;-35,74;-15,27;-35,74;1,41;1,41;1,41;1,41;0;0;
21893;-15,69;-40,27;-15,69;-40,27;1,4;1,34;1,4;1,34;0;0;
21910;-15,18;-35,22;-15,18;-35,22;1,32;1,55;1,32;1,55;0;0;
21928;-17,27;-37,24;-17,27;-37,24;1,31;1,65;1,31;1,65;0;0;
21949;-17,89;-37,32;-17,89;-37,32;1,41;1,75;1,41;1,75;0;0;
21967;-15,72;-36,77;-15,72;-36,77;1,57;1,83;1,57;1,83;0;0;
21985;-15,34;-37,09;-15,34;-37,09;1,6;1,93;1,6;1,93;0;0;
22004;-15,42;-35,45;-15,42;-35,45;1,74;1,75;1,74;1,75;0;0;
22024;-15,09;-38,63;-15,09;-38,63;1,84;1,57;1,84;1,57;0;0;
22042;-13,68;-38,92;-13,68;-38,92;1,69;1,74;1,69;1,74;0;0;
22061;-18,86;-36,47;-18,86;-36,47;1,69;1,7;1,69;1,7;0;0;
22080;-14,19;-38,11;-14,19;-38,11;1,59;1,65;1,59;1,65;0;0;
22102;-15,73;-35,9;-15,73;-35,9;1,6;1,55;1,6;1,55;0;0;
22122;-17,62;-33,93;-17,62;-33,93;1,58;1,58;1,58;1,58;0;0;
22141;-11,15;-35,46;-11,15;-35,46;1,78;1,67;1,78;1,67;0;0;
22159;-20,2;-36,95;-20,2;-36,95;1,84;1,49;1,84;1,49;0;0;
22178;-13,76;-37,94;-13,76;-37,94;1,8;1,64;1,8;1,64;0;0;
22196;-13,76;-37,94;-13,76;-37,94;1,73;1,71;1,73;1,71;0;0;
22221;-19,66;-34,97;-19,66;-34,97;1,82;1,81;1,82;1,81;0;0;
22242;-16,48;-32,55;-16,48;-32,55;1,78;1,66;1,78;1,66;0;0;
22263;-15,36;-36,6;-15,36;-36,6;1,83;1,68;1,83;1,68;0;0;
22280;-14,2;-34;-14,2;-34;1,72;1,74;1,72;1,74;0;0;
22298;-15,78;-36,77;-15,78;-36,77;1,79;1,61;1,79;1,61;0;0;
22319;-16,03;-37,06;-16,03;-37,06;1,9;1,74;1,9;1,74;0;0;
22338;-16,86;-37,4;-16,86;-37,4;1,68;1,67;1,68;1,67;0;0;
22355;-16,86;-37,4;-16,86;-37,4;1,33;1,63;1,33;1,63;0;0;
22375;-14,86;-36,2;-14,86;-36,2;1,24;1,6;1,24;1,6;0;0;
22393;-15,07;-35,06;-15,07;-35,06;1,18;1,61;1,18;1,61;0;0;
22415;-15,52;-33,87;-15,52;-33,87;1,19;1,69;1,19;1,69;0;0;
22434;-14,66;-33,25;-14,66;-33,25;1,18;1,55;1,18;1,55;0;0;
22452;-18,73;-33,39;-18,73;-33,39;1,29;1,61;1,29;1,61;0;0;
22467;-16,51;-39,63;-16,51;-39,63;1,39;1,61;1,39;1,61;0;0;
22485;-18,52;-36,32;-18,52;-36,32;1,45;1,72;1,45;1,72;0;0;
22505;-14,81;-34,7;-14,81;-34,7;1,49;1,61;1,49;1,61;0;0;
22524;-13,39;-34,38;-13,39;-34,38;1,6;1,48;1,6;1,48;0;0;
22543;-18,4;-36,39;-18,4;-36,39;1,62;1,57;1,62;1,57;0;0;
22564;-16,99;-36,27;-16,99;-36,27;1,75;1,84;1,75;1,84;0;0;
22583;-15,65;-34,9;-15,65;-34,9;1,66;1,52;1,66;1,52;0;0;
22601;-17,21;-36,47;-17,21;-36,47;1,76;1,43;1,76;1,43;0;0;
22619;-16,81;-38,62;-16,81;-38,62;1,82;1,64;1,82;1,64;0;0;
22638;-18,09;-35,19;-18,09;-35,19;1,64;1,67;1,64;1,67;0;0;
22655;-18,09;-35,19;-18,09;-35,19;1,43;1,61;1,43;1,61;0;0;
22673;-17,43;-34,74;-17,43;-34,74;1,54;1,56;1,54;1,56;0;0;
22693;-13,73;-36,43;-13,73;-36,43;1,71;1,59;1,71;1,59;0;0;
22712;-14,66;-35,23;-14,66;-35,23;1,87;1,56;1,87;1,56;0;0;
22732;-16,45;-34,5;-16,45;-34,5;1,81;1,54;1,81;1,54;0;0;
22749;-15,28;-35,26;-15,28;-35,26;1,89;1,64;1,89;1,64;0;0;
22771;-14,48;-32,72;-14,48;-32,72;1,8;1,61;1,8;1,61;0;0;
22789;-16,77;-36,34;-16,77;-36,34;1,66;1,53;1,66;1,53;0;0;
22807;-13,13;-32,25;-13,13;-32,25;1,68;1,87;1,68;1,87;0;0;
22827;-15,52;-35,6;-15,52;-35,6;1,43;1,83;1,43;1,83;0;0;
22847;-16,72;-37,58;-16,72;-37,58;1,41;1,84;1,41;1,84;0;0;
22866;-16,83;-34,97;-16,83;-34,97;1,42;1,67;1,42;1,67;0;0;
22891;-15,45;-35,72;-15,45;-35,72;1,48;1,82;1,48;1,82;0;0;
22911;-20,18;-34,99;-20,18;-34,99;1,34;1,69;1,34;1,69;0;0;
22930;-17,46;-34,74;-17,46;-34,74;1,34;1,39;1,34;1,39;0;0;
22948;-13,87;-33,51;-13,87;-33,51;1,4;1,39;1,4;1,39;0;0;
22968;-21,38;-34,45;-21,38;-34,45;1,48;1,32;1,48;1,32;0;0;
22986;-19,19;-36,41;-19,19;-36,41;1,6;1,23;1,6;1,23;0;1;
23004;-18,21;-33,48;-18,21;-33,48;1,66;1,3;1,66;1,3;0;1;
23024;-19,15;-35,61;-19,15;-35,61;1,87;1,44;1,87;1,44;0;1;
23045;-15,66;-34,24;-15,66;-34,24;1,84;1,67;1,84;1,67;0;1;
23062;-16,32;-31,65;-16,32;-31,65;1,64;1,65;1,64;1,65;0;1;
23080;-21,69;-35,66;-21,69;-35,66;1,61;1,84;1,61;1,84;0;1;
23099;-18,23;-34,51;-18,23;-34,51;1,46;1,9;1,46;1,9;0;1;
23117;-4,92;-17,62;-4,92;-17,62;2,43;4,81;2,43;4,81;0;1;
23133;-4,92;-17,62;-4,92;-17,62;3,29;7,61;3,29;7,61;0;1;
23152;2,62;19,55;2,62;19,55;6,55;31,03;6,55;31,03;0;1;
23171;2,56;22,03;2,56;22,03;9,17;44,76;9,17;44,76;0;0;
23190;-10,9;-52,61;-10,9;-52,61;12,8;51,7;12,8;51,7;0;0;
23215;-21,54;-50,58;-21,54;-50,58;16,01;58,29;16,01;58,29;0;0;
23241;-25,86;-37,01;-25,86;-37,01;16,04;56,66;16,04;56,66;0;0;
23260;-17,11;-34,78;-17,11;-34,78;13,48;41,29;13,48;41,29;0;0;
23278;-11,58;-32,5;-11,58;-32,5;12,35;26,03;12,35;26,03;0;0;
23298;-29,7;-44,12;-29,7;-44,12;10,81;15,28;10,81;15,28;0;0;
23315;-29,7;-44,12;-29,7;-44,12;8,82;9,04;8,82;9,04;0;0;
23331;-9,95;-33,58;-9,95;-33,58;7,6;4,42;7,6;4,42;0;0;
23351;-24,26;-38,77;-24,26;-38,77;7,78;3,82;7,78;3,82;0;0;
23373;-27,07;-35,84;-27,07;-35,84;7,57;4,43;7,57;4,43;0;0;
23392;-11,8;-30,24;-11,8;-30,24;7,32;3,98;7,32;3,98;0;0;
23410;-13,22;-31,21;-13,22;-31,21;5,89;3,53;5,89;3,53;0;0;
23427;-16,87;-30,59;-16,87;-30,59;4,67;3,21;4,67;3,21;0;0;
23446;-16,47;-36,86;-16,47;-36,86;3,7;3,19;3,7;3,19;0;0;
23467;-14,99;-34,62;-14,99;-34,62;3,16;2,08;3,16;2,08;0;0;
23485;-17,59;-41,99;-17,59;-41,99;2,38;2,09;2,38;2,09;0;0;
23506;-12,78;-34,3;-12,78;-34,3;2,04;2;2,04;2;0;0;
23527;-14,85;-35,4;-14,85;-35,4;1,99;2,18;1,99;2,18;0;0;
23545;-18,36;-35,79;-18,36;-35,79;1,91;2,16;1,91;2,16;0;0;
23564;-18,94;-35,26;-18,94;-35,26;2;2;2;2;0;0;
23581;-14,42;-34,22;-14,42;-34,22;1,98;2,02;1,98;2,02;0;0;
23599;-16,63;-35,35;-16,63;-35,35;2,26;2,17;2,26;2,17;0;0;
23618;-16,65;-37,07;-16,65;-37,07;2,06;2,21;2,06;2,21;0;0;
23638;-14,33;-35,67;-14,33;-35,67;2,05;2,01;2,05;2,01;0;0;
23656;-14,33;-35,67;-14,33;-35,67;2,13;2,06;2,13;2,06;0;0;
23673;-16,28;-36,57;-16,28;-36,57;2,07;2,57;2,07;2,57;0;0;
23697;-11,97;-33,98;-11,97;-33,98;2,01;2,5;2,01;2,5;1;0;
23715;-11,97;-33,98;-11,97;-33,98;2,14;2,76;2,14;2,76;1;0;
23732;-15,98;-30,5;-15,98;-30,5;2,04;2,7;2,04;2,7;1;0;
23749;-19,42;-53,63;-19,42;-53,63;2,2;2,99;2,2;2,99;1;0;
23767;-22,04;-36,26;-22,04;-36,26;3,23;3,64;3,23;3,64;1;0;
23786;-8,81;-36,33;-8,81;-36,33;3,7;3,58;3,7;3,58;1;0;
23803;-28,22;-47,06;-28,22;-47,06;5,61;4,92;5,61;4,92;1;0;
23820;-30,17;-43,71;-30,17;-43,71;8,61;6,13;8,61;6,13;1;0;
23840;-77,08;-66,95;-77,08;-66,95;12,18;8,54;12,18;8,54;1;0;
23866;-4,18;-63,61;-4,18;-63,61;15,65;10,14;15,65;10,14;1;0;
23884;-34,88;-29,5;-34,88;-29,5;18,24;10,86;18,24;10,86;1;0;
23904;-34,88;-29,5;-34,88;-29,5;19,68;10,54;19,68;10,54;1;0;
23923;-35,56;-44,43;-35,56;-44,43;23,43;12,41;23,43;12,41;1;0;
23944;-26,97;-44,43;-26,97;-44,43;22,85;13,57;22,85;13,57;0;0;
23967;-27,4;-24,92;-27,4;-24,92;19,28;11,67;19,28;11,67;0;0;
23991;-42,3;-33,67;-42,3;-33,67;18,37;11,27;18,37;11,27;0;0;
24015;-56,22;-18,46;-56,22;-18,46;19,03;13,63;19,03;13,63;0;0;
24036;-38,59;-42,62;-38,59;-42,62;15,17;14,38;15,17;14,38;0;0;
24054;-14,28;-39,93;-14,28;-39,93;12,42;13,32;12,42;13,32;0;0;
24073;-21,55;-45,36;-21,55;-45,36;12,09;11,84;12,09;11,84;0;0;
24090;-22,6;-37,1;-22,6;-37,1;11,14;11,05;11,14;11,05;0;0;
24110;-22,31;-41,8;-22,31;-41,8;9,96;11,31;9,96;11,31;0;0;
24129;-22,31;-41,8;-22,31;-41,8;9,25;9,8;9,25;9,8;0;0;
24148;-10,85;-36,32;-10,85;-36,32;9,13;8,74;9,13;8,74;0;0;
24172;-13,46;-36,83;-13,46;-36,83;8,13;8,06;8,13;8,06;0;0;
24190;-17,7;-34,07;-17,7;-34,07;7,37;7,57;7,37;7,57;0;0;
24208;-22,6;-35,14;-22,6;-35,14;5,73;6,22;5,73;6,22;0;0;
24227;-19,08;-35,59;-19,08;-35,59;4,11;4,41;4,11;4,41;0;0;
24246;-14,27;-29,81;-14,27;-29,81;2,9;2,48;2,9;2,48;0;0;
24265;-18,78;-34,21;-18,78;-34,21;2,66;2,32;2,66;2,32;0;0;
24282;-16,38;-37,84;-16,38;-37,84;2,56;2,25;2,56;2,25;0;0;
24301;-14,03;-33,78;-14,03;-33,78;2,63;2,13;2,63;2,13;0;0;
24322;-19,14;-32,53;-19,14;-32,53;2,25;1,92;2,25;1,92;0;0;
24339;-16,4;-38,94;-16,4;-38,94;2,13;1,95;2,13;1,95;0;0;
24356;-16,4;-38,94;-16,4;-38,94;1,59;1,64;1,59;1,64;0;0;
24374;-20,16;-31,53;-20,16;-31,53;1,59;1,87;1,59;1,87;0;0;
24394;-14,75;-35;-14,75;-35;1,7;2,04;1,7;2,04;0;0;
24414;-17,37;-34,82;-17,37;-34,82;1,68;2,12;1,68;2,12;0;0;
24433;-14,09;-38,39;-14,09;-38,39;1,6;2,22;1,6;2,22;0;0;
24451;-18,75;-33,75;-18,75;-33,75;1,78;2,23;1,78;2,23;0;0;
24479;-15,68;-36,68;-15,68;-36,68;1,85;2,22;1,85;2,22;0;0;
24501;-15,03;-32,33;-15,03;-32,33;1,65;1,89;1,65;1,89;0;0;
24520;-18,72;-32,99;-18,72;-32,99;1,63;1,63;1,63;1,63;0;0;
24536;-18,72;-32,99;-18,72;-32,99;1,78;1,67;1,78;1,67;0;0;
24554;-16,64;-31,36;-16,64;-31,36;1,95;1,55;1,95;1,55;0;0;
24573;-15,17;-35,23;-15,17;-35,23;2,05;1,82;2,05;1,82;0;0;
24590;-16,28;-35,07;-16,28;-35,07;2,19;1,88;2,19;1,88;0;0;
24608;-15,08;-33,15;-15,08;-33,15;2,2;1,96;2,2;1,96;0;0;
24626;-15,06;-36,24;-15,06;-36,24;1,96;1,92;1,96;1,92;0;0;
24644;-16,44;-35,08;-16,44;-35,08;1,76;1,86;1,76;1,86;0;0;
24665;-14,16;-33,92;-14,16;-33,92;1,66;1,73;1,66;1,73;0;0;
24686;-18,6;-33,27;-18,6;-33,27;1,39;1,58;1,39;1,58;0;0;
24705;-18,1;-37,07;-18,1;-37,07;1,37;1,77;1,37;1,77;0;0;
24723;-15,29;-35,6;-15,29;-35,6;1,44;1,58;1,44;1,58;0;0;
24743;-20,17;-35,74;-20,17;-35,74;1,55;1,77;1,55;1,77;0;0;
24761;-15,66;-34,26;-15,66;-34,26;1,44;1,91;1,44;1,91;0;0;
24779;-20,56;-35,11;-20,56;-35,11;1,4;1,75;1,4;1,75;0;0;
24797;-16,91;-34,42;-16,91;-34,42;1,46;1,84;1,46;1,84;0;0;
24819;-19,5;-37,08;-19,5;-37,08;1,48;1,73;1,48;1,73;0;0;
24840;-21,04;-36,85;-21,04;-36,85;1,63;1,63;1,63;1,63;0;0;
24860;-12,21;-35,06;-12,21;-35,06;1,62;1,53;1,62;1,53;0;0;
24880;-17,57;-37,86;-17,57;-37,86;1,7;1,39;1,7;1,39;1;0;
24899;-24,33;-48,03;-24,33;-48,03;2,14;1,84;2,14;1,84;1;0;
24916;-24,33;-48,03;-24,33;-48,03;2,7;2,22;2,7;2,22;1;0;
24933;-36,64;-49,98;-36,64;-49,98;5,61;4,12;5,61;4,12;1;0;
24951;-91,93;-79,18;-91,93;-79,18;8,73;6,92;8,73;6,92;1;0;
24972;4,26;-18,66;4,26;-18,66;10,64;8,85;10,64;8,85;1;0;
24990;-25,38;-45,23;-25,38;-45,23;14,17;10,8;14,17;10,8;1;0;
25008;-15,95;-39,67;-15,95;-39,67;16,19;12,44;16,19;12,44;1;0;
25026;-22,96;-39,24;-22,96;-39,24;17,73;12,74;17,73;12,74;1;0;
25044;-23,6;-42,67;-23,6;-42,67;18,04;11,58;18,04;11,58;1;0;
25062;-19,38;-39,95;-19,38;-39,95;19,94;11,14;19,94;11,14;1;0;
25080;-29,05;-23,92;-29,05;-23,92;24,84;12,41;24,84;12,41;1;0;
25099;-0,56;-37,88;-0,56;-37,88;24,18;11,48;24,18;11,48;0;0;
25122;45,58;-12,04;45,58;-12,04;28;11,65;28;11,65;0;0;
25145;-28,1;-16,07;-28,1;-16,07;28,36;11,94;28,36;11,94;0;0;
25166;-11,31;-33,96;-11,31;-33,96;24,17;13,47;24,17;13,47;0;0;
25184;-12,47;-23,72;-12,47;-23,72;20,65;14,3;20,65;14,3;0;0;
25201;-7,85;-20,94;-7,85;-20,94;15,55;12,35;15,55;12,35;0;0;
25218;-36,97;-81,84;-36,97;-81,84;13,88;13,56;13,88;13,56;0;0;
25238;-7,14;-26,23;-7,14;-26,23;8,91;13,64;8,91;13,64;0;0;
25258;-24,47;-32,03;-24,47;-32,03;7,08;11,09;7,08;11,09;0;0;
25277;-21,14;-34,43;-21,14;-34,43;5,92;8,74;5,92;8,74;0;0;
25301;-13,39;-38,3;-13,39;-38,3;4,78;6,77;4,78;6,77;0;0;
25321;-16,17;-37,63;-16,17;-37,63;4,36;6,13;4,36;6,13;0;0;
25339;-18,7;-42,17;-18,7;-42,17;3,09;3,07;3,09;3,07;0;0;
25356;-16,46;-38,31;-16,46;-38,31;2,72;2,45;2,72;2,45;0;0;
25377;-16,42;-24,02;-16,42;-24,02;2,52;2,93;2,52;2,93;0;0;
25394;-16,42;-24,02;-16,42;-24,02;2,74;3,93;2,74;3,93;0;0;
25412;-19,46;-36,95;-19,46;-36,95;2,8;3,86;2,8;3,86;0;0;
25433;-17,37;-35,84;-17,37;-35,84;2,49;3,59;2,49;3,59;0;0;
25457;-9,3;-29,48;-9,3;-29,48;2,76;4,14;2,76;4,14;0;0;
25474;-9,3;-29,48;-9,3;-29,48;3,22;4,51;3,22;4,51;0;0;
25491;-21,42;-39,38;-21,42;-39,38;2,95;3,45;2,95;3,45;0;0;
25516;-15,98;-36,71;-15,98;-36,71;2,62;2,61;2,62;2,61;0;0;
25533;-19,02;-33,09;-19,02;-33,09;2,56;2,57;2,56;2,57;0;0;
25550;-15,53;-31,27;-15,53;-31,27;2,52;2,58;2,52;2,58;0;0;
25568;-15,78;-37,79;-15,78;-37,79;2,13;2;2,13;2;0;0;
25587;-15,41;-36,11;-15,41;-36,11;1,81;1,53;1,81;1,53;0;0;
25608;-13,75;-40,49;-13,75;-40,49;1,51;1,49;1,51;1,49;0;0;
25627;-17,13;-35,22;-17,13;-35,22;1,48;1,67;1,48;1,67;0;0;
25644;-21,7;-39,85;-21,7;-39,85;1,58;1,79;1,58;1,79;0;0;
25662;-16,65;-34,08;-16,65;-34,08;1,72;1,69;1,72;1,69;0;0;
25682;-14,74;-35,24;-14,74;-35,24;1,58;1,69;1,58;1,69;0;0;
25700;-14,46;-33,63;-14,46;-33,63;1,58;1,87;1,58;1,87;0;0;
25718;-17,28;-38,79;-17,28;-38,79;1,6;1,57;1,6;1,57;0;0;
25741;-18,64;-36,72;-18,64;-36,72;1,7;1,69;1,7;1,69;0;0;
25765;-14,53;-35,97;-14,53;-35,97;1,6;1,63;1,6;1,63;0;0;
25785;-17,38;-33,97;-17,38;-33,97;1,59;1,84;1,59;1,84;0;0;
25802;-17,51;-36;-17,51;-36;1,58;1,92;1,58;1,92;0;0;
25820;-21,49;-39,19;-21,49;-39,19;1,69;1,98;1,69;1,98;0;0;
25839;-17,68;-35,34;-17,68;-35,34;1,78;2,01;1,78;2,01;0;0;
25856;-17,68;-35,34;-17,68;-35,34;1,65;2,13;1,65;2,13;0;0;
25873;-21,16;-35,78;-21,16;-35,78;1,81;1,88;1,81;1,88;0;0;
25892;-15,28;-36,47;-15,28;-36,47;1,92;1,8;1,92;1,8;0;0;
25914;-16,1;-38,91;-16,1;-38,91;1,98;1,69;1,98;1,69;0;0;
25932;-19,28;-35,98;-19,28;-35,98;1,72;1,51;1,72;1,51;0;0;
25949;-11,69;-34,28;-11,69;-34,28;1,79;1,44;1,79;1,44;0;0;
25968;-15,44;-35,42;-15,44;-35,42;1,84;1,54;1,84;1,54;0;0;
25986;-17,08;-33,14;-17,08;-33,14;1,82;1,79;1,82;1,79;0;0;
26003;-17,62;-34,61;-17,62;-34,61;1,79;1,92;1,79;1,92;0;0;
26022;-14,63;-34,9;-14,63;-34,9;1,74;1,84;1,74;1,84;0;0;
26040;-16,35;-36,23;-16,35;-36,23;1,79;1,97;1,79;1,97;0;0;
26058;-14,25;-35,23;-14,25;-35,23;1,52;1,79;1,52;1,79;0;0;
26082;-17,08;-33,99;-17,08;-33,99;1,51;1,59;1,51;1,59;0;0;
26101;-15,91;-37,39;-15,91;-37,39;1,45;1,6;1,45;1,6;0;0;
26118;-17,26;-33,01;-17,26;-33,01;1,43;1,6;1,43;1,6;0;0;
26140;-15,64;-35,35;-15,64;-35,35;1,41;1,68;1,41;1,68;0;0;
26157;-13,07;-35,46;-13,07;-35,46;1,41;1,69;1,41;1,69;0;0;
26176;-13,07;-35,46;-13,07;-35,46;1,4;1,66;1,4;1,66;0;0;
26193;-15,99;-37,31;-15,99;-37,31;1,26;1,73;1,26;1,73;0;0;
26213;-14,49;-34,43;-14,49;-34,43;1,28;1,74;1,28;1,74;0;0;
26236;-17,73;-34,5;-17,73;-34,5;1,44;1,83;1,44;1,83;0;0;
26255;-14,39;-31,57;-14,39;-31,57;1,5;1,88;1,5;1,88;0;0;
26274;-17,46;-37,46;-17,46;-37,46;1,53;1,96;1,53;1,96;0;0;
26292;-15,66;-34,61;-15,66;-34,61;1,6;1,92;1,6;1,92;0;0;
26311;-15,08;-33,71;-15,08;-33,71;1,87;1,85;1,87;1,85;0;0;
26327;-18,58;-37,16;-18,58;-37,16;1,95;1,79;1,95;1,79;0;0;
26345;-16,51;-37,32;-16,51;-37,32;1,83;1,8;1,83;1,8;0;0;
26364;-13,58;-36,66;-13,58;-36,66;1,82;1,74;1,82;1,74;0;0;
26386;-15,92;-35,41;-15,92;-35,41;1,94;1,56;1,94;1,56;0;0;
26403;-17,44;-32,66;-17,44;-32,66;1,89;1,71;1,89;1,71;0;0;
26422;-18,68;-33,89;-18,68;-33,89;1,8;1,74;1,8;1,74;0;0;
26442;-15,9;-32,18;-15,9;-32,18;1,66;1,78;1,66;1,78;0;0;
26462;-17,25;-34,86;-17,25;-34,86;1,61;1,73;1,61;1,73;0;0;
26483;-19,55;-35,73;-19,55;-35,73;1,59;1,6;1,59;1,6;0;0;
26502;-14,6;-36,58;-14,6;-36,58;1,46;1,53;1,46;1,53;0;0;
26521;-13,08;-35,25;-13,08;-35,25;1,45;1,39;1,45;1,39;0;0;
26546;-19,73;-37,11;-19,73;-37,11;1,5;1,35;1,5;1,35;0;0;
26564;-16,65;-37,24;-16,65;-37,24;1,6;1,25;1,6;1,25;0;0;
26581;-17,63;-36,19;-17,63;-36,19;1,6;1,36;1,6;1,36;0;0;
26598;-17,26;-33,36;-17,26;-33,36;1,75;1,51;1,75;1,51;0;0;
26616;-14,44;-35,43;-14,44;-35,43;1,81;1,61;1,81;1,61;0;0;
26635;-14,44;-35,43;-14,44;-35,43;1,76;1,7;1,76;1,7;0;0;
26655;-20,68;-39,66;-20,68;-39,66;1,66;1,88;1,66;1,88;0;0;
26675;-15,11;-30,14;-15,11;-30,14;1,8;2,11;1,8;2,11;0;0;
26696;-20,63;-36,53;-20,63;-36,53;1,98;2,11;1,98;2,11;0;0;
26714;-15,89;-32,43;-15,89;-32,43;1,94;2,03;1,94;2,03;0;0;
26733;-17,44;-35,24;-17,44;-35,24;1,87;2,09;1,87;2,09;0;0;
26752;-18,79;-33,78;-18,79;-33,78;1,76;2,09;1,76;2,09;0;0;
26771;-17,09;-38,67;-17,09;-38,67;1,84;1,89;1,84;1,89;0;0;
26791;-17,01;-33,63;-17,01;-33,63;1,79;1,85;1,79;1,85;0;0;
26809;-16,29;-35,69;-16,29;-35,69;1,84;1,72;1,84;1,72;1;0;
26827;-16,65;-33,5;-16,65;-33,5;1,64;1,56;1,64;1,56;1;0;
26850;-32,53;-43,53;-32,53;-43,53;3,93;3,24;3,93;3,24;1;0;
26871;-6,84;-11,48;-6,84;-11,48;5,9;5,63;5,9;5,63;1;0;
26889;-5,6;-23,87;-5,6;-23,87;8,15;7,14;8,15;7,14;1;0;
26908;-56,27;-49,61;-56,27;-49,61;11,52;8,67;11,52;8,67;1;0;
26925;34,98;-24,32;34,98;-24,32;14,33;9,55;14,33;9,55;1;0;
26944;-11,53;-38,04;-11,53;-38,04;19,33;10,61;19,33;10,61;1;0;
26964;8,14;-30,54;8,14;-30,54;18,7;8,64;18,7;8,64;1;0;
26982;11,46;-24,68;11,46;-24,68;24,51;8,98;24,51;8,98;1;0;
27008;-24,61;-37,26;-24,61;-37,26;28,95;10,44;28,95;10,44;0;0;
27030;-15,22;-32,63;-15,22;-32,63;27,58;9,45;27,58;9,45;0;0;
27052;-14,39;-13,75;-14,39;-13,75;24,9;9,96;24,9;9,96;0;0;
27070;-17,93;-31,12;-17,93;-31,12;21,38;9,24;21,38;9,24;0;0;
27088;-15,49;-40,13;-15,49;-40,13;17,16;8,22;17,16;8,22;0;0;
27109;-25,51;-74,84;-25,51;-74,84;11,77;7,4;11,77;7,4;0;0;
27127;-14,7;-38,99;-14,7;-38,99;7,45;6,8;7,45;6,8;0;0;
27149;-11,5;-28,48;-11,5;-28,48;6,27;7,28;6,27;7,28;0;0;
27179;-14,79;-31,25;-14,79;-31,25;6,2;7,36;6,2;7,36;0;0;
27199;-9,72;-36,23;-9,72;-36,23;6,37;7,73;6,37;7,73;0;0;
27218;-15,18;-36,29;-15,18;-36,29;7,27;8,74;7,27;8,74;0;0;
27238;-1,76;-16,58;-1,76;-16,58;7,68;8,48;7,68;8,48;0;0;
27255;-1,76;-16,58;-1,76;-16,58;8,68;9,84;8,68;9,84;0;0;
27271;-14,61;-33,47;-14,61;-33,47;7,42;8,38;7,42;8,38;0;0;
27288;-12,05;-32,55;-12,05;-32,55;7,02;7,52;7,02;7,52;0;0;
27309;-23,38;-31,07;-23,38;-31,07;6,74;6,96;6,74;6,96;0;0;
27332;-14,84;-37,05;-14,84;-37,05;5,69;6,1;5,69;6,1;0;0;
27352;-15,13;-35,85;-15,13;-35,85;4,06;4,23;4,06;4,23;0;0;
27371;-12,06;-20,75;-12,06;-20,75;2,2;2,94;2,2;2,94;0;0;
27390;-19,12;-35,82;-19,12;-35,82;2,32;3,02;2,32;3,02;0;0;
27406;-14,55;-36,33;-14,55;-36,33;2,19;2,64;2,19;2,64;0;0;
27424;-15,99;-35,85;-15,99;-35,85;2,01;2,5;2,01;2,5;0;0;
27443;-9,95;-33,3;-9,95;-33,3;2,28;2,58;2,28;2,58;0;0;
27462;-9,95;-33,3;-9,95;-33,3;2,66;2,62;2,66;2,62;0;0;
27485;-21,04;-33,26;-21,04;-33,26;2,94;2,32;2,94;2,32;1;0;
27504;-5,19;-24,96;-5,19;-24,96;3,06;2,34;3,06;2,34;1;0;
27527;-19,37;-34,98;-19,37;-34,98;3,05;2,48;3,05;2,48;1;0;
27544;-13,73;-36,48;-13,73;-36,48;3,36;2,5;3,36;2,5;1;0;
27563;-13,98;-32,62;-13,98;-32,62;3,95;3,59;3,95;3,59;1;0;
27580;-22,71;-43,96;-22,71;-43,96;4,63;4,1;4,63;4,1;1;0;
27598;-24,98;-30,33;-24,98;-30,33;5,08;3,95;5,08;3,95;1;0;
27615;-24,98;-30,33;-24,98;-30,33;5,83;4,02;5,83;4,02;1;0;
27636;-17,19;-32,72;-17,19;-32,72;9,72;5,38;9,72;5,38;1;0;
27655;-11,76;-29,19;-11,76;-29,19;13,76;6,25;13,76;6,25;1;0;
27672;-27,28;-42,9;-27,28;-42,9;16,8;6,58;16,8;6,58;1;0;
27691;-8,28;-26,54;-8,28;-26,54;21,41;8,26;21,41;8,26;1;0;
27713;-50,62;-38,15;-50,62;-38,15;26,02;9,54;26,02;9,54;1;0;
27734;-15,08;-34,56;-15,08;-34,56;28,42;10,61;28,42;10,61;0;0;
27755;-3,75;-25,35;-3,75;-25,35;26,87;10,87;26,87;10,87;0;0;
27778;-16,43;-45,61;-16,43;-45,61;24,6;10,34;24,6;10,34;0;0;
27800;-19,09;-33,74;-19,09;-33,74;18,97;10,74;18,97;10,74;0;0;
27820;-16,56;-36,47;-16,56;-36,47;14,77;10,03;14,77;10,03;0;0;
27843;-0,06;-33,73;-0,06;-33,73;10,36;9,72;10,36;9,72;0;0;
27862;-21,09;-34,74;-21,09;-34,74;8,18;8,54;8,18;8,54;0;0;
27879;-12,48;-24,47;-12,48;-24,47;7,01;8,5;7,01;8,5;0;0;
27898;-13,9;-23,31;-13,9;-23,31;5,89;9,16;5,89;9,16;0;0;
27916;-13,9;-23,31;-13,9;-23,31;5,39;6,66;5,39;6,66;0;0;
27933;-15,57;-34,05;-15,57;-34,05;4,76;5,89;4,76;5,89;0;0;
27957;-15,01;-31,73;-15,01;-31,73;3,43;5,39;3,43;5,39;0;0;
27976;-15,01;-31,73;-15,01;-31,73;3,22;5,32;3,22;5,32;0;0;
27993;-18,22;-31,55;-18,22;-31,55;2,94;4,64;2,94;4,64;0;0;
28012;-9,91;-34,71;-9,91;-34,71;2,88;3,48;2,88;3,48;0;0;
28031;-16,92;-35,06;-16,92;-35,06;2,51;2,25;2,51;2,25;0;0;
28050;-13,25;-28,92;-13,25;-28,92;2,46;2,06;2,46;2,06;0;0;
28067;-12,94;-35,74;-12,94;-35,74;2,16;1,72;2,16;1,72;0;0;
28085;-15,38;-27,05;-15,38;-27,05;2,21;1,8;2,21;1,8;0;0;
28108;-10,81;-33,06;-10,81;-33,06;2,53;2,21;2,53;2,21;0;0;
28126;-15,36;-38,08;-15,36;-38,08;2,32;2,17;2,32;2,17;0;0;
28144;-18,17;-31,83;-18,17;-31,83;2,12;2,29;2,12;2,29;0;0;
28163;-16,45;-37,17;-16,45;-37,17;1,94;2,24;1,94;2,24;0;0;
28179;-15,14;-32,55;-15,14;-32,55;1,88;2,36;1,88;2,36;0;0;
28195;-15,14;-32,55;-15,14;-32,55;1,39;1,8;1,39;1,8;0;0;
28212;-15,66;-33,54;-15,66;-33,54;1,34;1,78;1,34;1,78;0;0;
28231;-20,46;-35,26;-20,46;-35,26;1,57;1,75;1,57;1,75;0;0;
28251;-16,94;-33,49;-16,94;-33,49;1,65;1,72;1,65;1,72;0;0;
28273;-15,8;-35,92;-15,8;-35,92;2,05;1,92;2,05;1,92;0;0;
28291;-14,65;-35,98;-14,65;-35,98;2,1;1,71;2,1;1,71;0;0;
28309;-9,62;-36,47;-9,62;-36,47;2,17;1,78;2,17;1,78;0;0;
28327;-15,52;-35,49;-15,52;-35,49;2,09;1,96;2,09;1,96;0;0;
28344;-18,67;-39,28;-18,67;-39,28;1,86;2,03;1,86;2,03;0;0;
28363;-14,48;-33,64;-14,48;-33,64;1,95;1,85;1,95;1,85;0;0;
28380;-21,48;-32,65;-21,48;-32,65;1,56;1,78;1,56;1,78;0;0;
28398;-19,34;-38,92;-19,34;-38,92;1,85;1,91;1,85;1,91;0;0;
28414;-19,34;-38,92;-19,34;-38,92;1,83;1,81;1,83;1,81;0;0;
28435;-17,8;-36,09;-17,8;-36,09;1,84;1,75;1,84;1,75;0;0;
28454;-14,76;-34,26;-14,76;-34,26;1,89;1,87;1,89;1,87;0;0;
28471;-16,26;-35,69;-16,26;-35,69;1,93;1,75;1,93;1,75;0;0;
28490;-17,43;-37,6;-17,43;-37,6;2;1,75;2;1,75;0;0;
28509;-15,26;-36,85;-15,26;-36,85;1,98;1,72;1,98;1,72;0;0;
28528;-19,17;-34,54;-19,17;-34,54;2,07;1,64;2,07;1,64;0;0;
28547;-19,4;-34,77;-19,4;-34,77;2,08;1,8;2,08;1,8;0;0;
28566;-16,91;-32,91;-16,91;-32,91;2,06;1,73;2,06;1,73;0;0;
28588;-18,37;-37,21;-18,37;-37,21;1,84;1,69;1,84;1,69;0;0;
28606;-17,4;-35,94;-17,4;-35,94;1,75;1,52;1,75;1,52;0;0;
28625;-21,1;-34,96;-21,1;-34,96;1,73;1,44;1,73;1,44;0;0;
28643;-20,01;-37,93;-20,01;-37,93;1,8;1,29;1,8;1,29;0;0;
28661;-18,5;-32,71;-18,5;-32,71;1,73;1,32;1,73;1,32;0;0;
28681;-19,82;-33,89;-19,82;-33,89;2;1,36;2;1,36;0;0;
28699;-16,09;-38,31;-16,09;-38,31;2,12;1,37;2,12;1,37;0;0;
28719;-16,83;-33,57;-16,83;-33,57;1,93;1,39;1,93;1,39;1;0;
28741;-17,26;-34,18;-17,26;-34,18;1,78;1,56;1,78;1,56;1;0;
28759;-13,95;-35,6;-13,95;-35,6;1,79;1,53;1,79;1,53;1;0;
28778;-20,56;-35;-20,56;-35;2,87;2,07;2,87;2,07;1;0;
28801;-11,32;-35,68;-11,32;-35,68;3,11;2,23;3,11;2,23;1;0;
28819;-13,94;-38,66;-13,94;-38,66;3,78;2,52;3,78;2,52;1;0;
28837;-16,32;-35,41;-16,32;-35,41;4,14;2,82;4,14;2,82;1;0;
28856;-16,32;-35,41;-16,32;-35,41;4,43;2,93;4,43;2,93;1;0;
28873;-14,75;-24,3;-14,75;-24,3;5,19;3,75;5,19;3,75;1;0;
28896;-24,17;-44,5;-24,17;-44,5;6,48;4,8;6,48;4,8;1;0;
28914;-35,51;-52,1;-35,51;-52,1;9,74;6,94;9,74;6,94;1;0;
28932;-33,85;-32,37;-33,85;-32,37;13,22;8,05;13,22;8,05;1;0;
28950;26,75;-30,76;26,75;-30,76;15,28;8,93;15,28;8,93;1;0;
28968;-5,6;-48,66;-5,6;-48,66;17,98;11,08;17,98;11,08;1;0;
28985;-14,94;-14,39;-14,94;-14,39;19,17;12,4;19,17;12,4;1;0;
29002;13,62;-50,84;13,62;-50,84;17,66;11,48;17,66;11,48;1;0;
29020;-71,43;-95,47;-71,43;-95,47;19,79;17,48;19,79;17,48;1;0;
29039;-24,79;12,29;-24,79;12,29;18,23;19,85;18,23;19,85;1;0;
29063;2,33;-34,91;2,33;-34,91;18,07;18,66;18,07;18,66;1;0;
29080;-7,05;-32,65;-7,05;-32,65;16,48;21,36;16,48;21,36;0;0;
29098;-12,67;-29,62;-12,67;-29,62;15,65;20,19;15,65;20,19;0;0;
29117;-47,92;-96,61;-47,92;-96,61;13,36;16,38;13,36;16,38;0;0;
29137;-16,08;-37,37;-16,08;-37,37;9,2;12,51;9,2;12,51;0;0;
29162;-17,42;-34,24;-17,42;-34,24;7,27;9,83;7,27;9,83;0;0;
29180;-26,19;-41,49;-26,19;-41,49;5,98;6,84;5,98;6,84;0;0;
29198;-8,79;-36,97;-8,79;-36,97;4,64;5,16;4,64;5,16;0;0;
29222;-14,44;-34,89;-14,44;-34,89;4,38;4,51;4,38;4,51;0;0;
29240;-13,95;-31,55;-13,95;-31,55;3,47;2,72;3,47;2,72;0;0;
29261;-12,53;-33,12;-12,53;-33,12;3,67;2,72;3,67;2,72;0;0;
29279;-17,62;-33,9;-17,62;-33,9;3,23;2,89;3,23;2,89;0;0;
29296;-17,62;-33,9;-17,62;-33,9;1,64;2,16;1,64;2,16;0;0;
29312;-15,66;-35,22;-15,66;-35,22;1,52;2,04;1,52;2,04;0;0;
29330;-14,23;-33,87;-14,23;-33,87;1,42;2,16;1,42;2,16;0;0;
29348;-17,27;-36,22;-17,27;-36,22;1,36;1,91;1,36;1,91;0;0;
29371;-18,56;-37,23;-18,56;-37,23;1,33;1,71;1,33;1,71;0;0;
29391;-15,18;-28,45;-15,18;-28,45;1,35;1,79;1,35;1,79;0;0;
29409;-16,65;-36,1;-16,65;-36,1;1,42;1,7;1,42;1,7;0;0;
29428;-16,37;-34,26;-16,37;-34,26;1,43;1,43;1,43;1,43;0;0;
29446;-17,25;-38,81;-17,25;-38,81;1,44;1,52;1,44;1,52;0;0;
29465;-15,29;-36,4;-15,29;-36,4;1,62;1,66;1,62;1,66;0;0;
29482;-15,77;-35,91;-15,77;-35,91;1,67;1,57;1,67;1,57;0;0;
29499;-17,71;-35,23;-17,71;-35,23;1,49;1,37;1,49;1,37;0;0;
29521;-12,86;-33,74;-12,86;-33,74;1,52;1,5;1,52;1,5;0;0;
29538;-15,76;-38,4;-15,76;-38,4;1,47;1,62;1,47;1,62;0;0;
29558;-18,22;-35,18;-18,22;-35,18;1,37;1,33;1,37;1,33;0;0;
29576;-14,48;-32,99;-14,48;-32,99;1,35;1,31;1,35;1,31;0;0;
29593;-14,48;-32,99;-14,48;-32,99;1,5;1,4;1,5;1,4;0;0;
29609;-16,41;-35,24;-16,41;-35,24;1,51;1,47;1,51;1,47;0;0;
29627;-18,76;-36,22;-18,76;-36,22;1,48;1,54;1,48;1,54;0;0;
29646;-17,26;-34,51;-17,26;-34,51;1,56;1,33;1,56;1,33;0;0;
29664;-18,29;-33,5;-18,29;-33,5;1,5;1,48;1,5;1,48;0;0;
29686;-16,74;-33,89;-16,74;-33,89;1,35;1,57;1,35;1,57;0;0;
29705;-17,25;-35,24;-17,25;-35,24;1,31;1,7;1,31;1,7;0;0;
29723;-18,55;-35,39;-18,55;-35,39;1,23;1,68;1,23;1,68;0;0;
29741;-15,96;-33,22;-15,96;-33,22;1,1;1,73;1,1;1,73;0;0;
29759;-18,64;-36,17;-18,64;-36,17;1,1;1,7;1,1;1,7;0;0;
29781;-12,65;-35,04;-12,65;-35,04;1,17;1,53;1,17;1,53;0;0;
29799;-18,97;-34,93;-18,97;-34,93;1,15;1,46;1,15;1,46;0;0;
29818;-15,09;-36,49;-15,09;-36,49;1,29;1,19;1,29;1,19;0;0;
29838;-17,61;-35,55;-17,61;-35,55;1,35;1,35;1,35;1,35;0;0;
29858;-18,27;-34,87;-18,27;-34,87;1,4;1,19;1,4;1,19;0;0;
29875;-18,27;-34,87;-18,27;-34,87;1,39;1,16;1,39;1,16;0;0;
29894;-16,71;-33,76;-16,71;-33,76;1,39;1,17;1,39;1,17;0;0;
29911;-16,3;-36,9;-16,3;-36,9;1,42;1,31;1,42;1,31;0;0;
29928;-17,75;-32,04;-17,75;-32,04;1,37;1,35;1,37;1,35;0;0;
29947;-11,72;-33,9;-11,72;-33,9;1,74;1,43;1,74;1,43;0;0;
29966;-21,69;-48,14;-21,69;-48,14;1,82;1,66;1,82;1,66;0;0;
29984;-14,39;-36,95;-14,39;-36,95;1,83;1,64;1,83;1,64;0;0;
30005;-14,13;-35,98;-14,13;-35,98;1,98;1,65;1,98;1,65;0;0;
30022;-14,55;-35,22;-14,55;-35,22;2,1;1,74;2,1;1,74;0;0;
30042;-15,11;-33,91;-15,11;-33,91;2,1;1,65;2,1;1,65;0;0;
30061;-19,14;-35,4;-19,14;-35,4;1,82;1,57;1,82;1,57;0;0;
30079;-13,71;-34,63;-13,71;-34,63;1,67;1,34;1,67;1,34;0;0;
30097;-14,68;-37,04;-14,68;-37,04;1,69;1,27;1,69;1,27;0;0;
30114;-14,68;-37,04;-14,68;-37,04;1,79;1,17;1,79;1,17;0;0;
30133;-17,97;-33,88;-17,97;-33,88;1,78;1,06;1,78;1,06;0;0;
30153;-17,62;-34,7;-17,62;-34,7;1,8;1,15;1,8;1,15;0;0;
30179;-19,41;-33,68;-19,41;-33,68;1,84;1,36;1,84;1,36;0;0;
30200;-15,4;-34,95;-15,4;-34,95;1,79;1,42;1,79;1,42;0;0;
30220;-16,11;-39,78;-16,11;-39,78;1,76;1,64;1,76;1,64;0;0;
30239;-13,95;-35,24;-13,95;-35,24;1,7;1,83;1,7;1,83;0;0;
30262;-12,91;-35,9;-12,91;-35,9;1,57;1,78;1,57;1,78;0;0;
30284;-15,31;-32,24;-15,31;-32,24;1,74;1,69;1,74;1,69;0;0;
30301;-15,31;-32,24;-15,31;-32,24;1,79;1,54;1,79;1,54;0;0;
30321;-16,78;-34,16;-16,78;-34,16;1,97;1,54;1,97;1,54;0;0;
30345;-13,77;-34,99;-13,77;-34,99;1,97;1,27;1,97;1,27;0;0;
30362;-17,06;-39,29;-17,06;-39,29;2,09;1,3;2,09;1,3;0;0;
30381;-17,5;-33,27;-17,5;-33,27;2,09;1,49;2,09;1,49;0;0;
30399;-22,56;-37,97;-22,56;-37,97;2,42;1,62;2,42;1,62;0;0;
30417;-22,56;-37,97;-22,56;-37,97;2,75;1,7;2,75;1,7;0;0;
30440;-14,24;-34,46;-14,24;-34,46;2,6;1,63;2,6;1,63;0;0;
30458;-16,03;-33,8;-16,03;-33,8;2,58;1,62;2,58;1,62;0;0;
30479;-16,96;-32,37;-16,96;-32,37;2,35;1,6;2,35;1,6;0;0;
30502;-17,54;-33,78;-17,54;-33,78;2,22;1,45;2,22;1,45;0;0;
30520;-17,23;-35,68;-17,23;-35,68;1,83;1,38;1,83;1,38;0;0;
30537;-16,16;-37,51;-16,16;-37,51;1,81;1,35;1,81;1,35;0;0;
30555;-16,16;-37,51;-16,16;-37,51;2,09;1,4;2,09;1,4;0;0;
30574;-19,77;-36,12;-19,77;-36,12;2,17;1,28;2,17;1,28;0;0;
30592;-15,01;-34,44;-15,01;-34,44;2,18;1,3;2,18;1,3;0;0;
30610;-18,78;-34,26;-18,78;-34,26;2,29;1,41;2,29;1,41;0;1;
30628;-15,21;-39,65;-15,21;-39,65;2,21;1,43;2,21;1,43;0;1;
30646;-20,97;-34,72;-20,97;-34,72;2,25;1,35;2,25;1,35;0;1;
30667;-18,34;-37,38;-18,34;-37,38;2,48;1,43;2,48;1,43;0;1;
30685;-14,75;-34,27;-14,75;-34,27;2,64;2,15;2,64;2,15;0;1;
30705;-14,03;-34,29;-14,03;-34,29;3,35;3,08;3,35;3,08;0;1;
30725;-9,46;-41,96;-9,46;-41,96;3,66;4,36;3,66;4,36;0;1;
30743;-18,59;-17,02;-18,59;-17,02;4,75;5,98;4,75;5,98;0;1;
30762;-17,12;-34,94;-17,12;-34,94;5,15;6,87;5,15;6,87;0;1;
30781;-4,91;-5,74;-4,91;-5,74;7,7;10,46;7,7;10,46;0;1;
30801;15,23;1,9;15,23;1,9;9,77;18,31;9,77;18,31;0;1;
30823;-34,37;-37,89;-34,37;-37,89;11,84;24,11;11,84;24,11;0;1;
30841;-36,37;-27,99;-36,37;-27,99;12,85;25,13;12,85;25,13;0;1;
30859;-18,28;-31,88;-18,28;-31,88;13,03;24,27;13,03;24,27;0;1;
30877;2,39;-48,95;2,39;-48,95;13,63;23,16;13,63;23,16;0;1;
30894;2,39;-48,95;2,39;-48,95;14,36;21,13;14,36;21,13;0;1;
30912;-16,7;-30,22;-16,7;-30,22;12;12,16;12;12,16;0;1;
30929;-16,33;-32,06;-16,33;-32,06;10,31;7,55;10,31;7,55;0;1;
30945;-10,92;-36,93;-10,92;-36,93;8,64;5,63;8,64;5,63;0;0;
30965;-18,97;-34,93;-18,97;-34,93;6,79;4,75;6,79;4,75;0;0;
30987;-10,72;-33,37;-10,72;-33,37;5,09;3,43;5,09;3,43;0;0;
31005;-14,71;-35,12;-14,71;-35,12;3,73;2,59;3,73;2,59;0;0;
31026;-15,85;-36,49;-15,85;-36,49;3,49;2,25;3,49;2,25;0;0;
31047;-17,64;-35,44;-17,64;-35,44;3,35;2,14;3,35;2,14;0;0;
31065;-16,76;-35,94;-16,76;-35,94;2,88;2,01;2,88;2,01;0;0;
31083;-14,18;-33,27;-14,18;-33,27;2,6;1,82;2,6;1,82;0;0;
31103;-17,95;-33,84;-17,95;-33,84;1,68;1,68;1,68;1,68;0;0;
31122;-17,95;-33,84;-17,95;-33,84;1,33;1,47;1,33;1,47;0;0;
31147;-15,31;-32,33;-15,31;-32,33;1,43;1,5;1,43;1,5;0;0;
31170;-14,85;-35,34;-14,85;-35,34;1,42;1,46;1,42;1,46;0;0;
31189;-16,69;-33,54;-16,69;-33,54;1,27;1,63;1,27;1,63;0;0;
31222;-16,97;-33,6;-16,97;-33,6;1,16;1,61;1,16;1,61;0;0;
31241;-17,86;-35,08;-17,86;-35,08;1,49;1,62;1,49;1,62;0;0;
31258;-15,86;-36,96;-15,86;-36,96;1,47;1,69;1,47;1,69;0;0;
31275;-15,86;-36,96;-15,86;-36,96;1,48;1,66;1,48;1,66;0;0;
31297;-17,05;-35,78;-17,05;-35,78;1,51;1,5;1,51;1,5;0;0;
31315;-17,05;-35,78;-17,05;-35,78;1,49;1,46;1,49;1,46;0;0;
31333;-15,76;-34,06;-15,76;-34,06;1,4;1,42;1,4;1,42;0;0;
31351;-15,69;-34,44;-15,69;-34,44;1,24;1,41;1,24;1,41;0;0;
31371;-18,24;-32,5;-18,24;-32,5;1,33;1,38;1,33;1,38;0;0;
31389;-16,1;-34,7;-16,1;-34,7;1,25;1,33;1,25;1,33;0;0;
31406;-14,84;-33,4;-14,84;-33,4;1,17;1,25;1,17;1,25;0;0;
31426;-17,86;-37,75;-17,86;-37,75;1,19;1,29;1,19;1,29;0;0;
31447;-18,59;-34,27;-18,59;-34,27;1,24;1,23;1,24;1,23;0;0;
31464;-16,4;-35,63;-16,4;-35,63;1,24;1,26;1,24;1,26;0;0;
31482;-20,13;-37,94;-20,13;-37,94;1,28;1,29;1,28;1,29;0;0;
31500;-14,98;-31,37;-14,98;-31,37;1,47;1,33;1,47;1,33;0;0;
31518;-15,64;-37,91;-15,64;-37,91;1,61;1,42;1,61;1,42;0;0;
31535;-15,64;-37,91;-15,64;-37,91;1,63;1,4;1,63;1,4;0;0;
31552;-18,96;-36,1;-18,96;-36,1;1,63;1,35;1,63;1,35;0;0;
31573;-18,42;-32,08;-18,42;-32,08;1,6;1,35;1,6;1,35;0;0;
31591;-16,93;-36,06;-16,93;-36,06;1,54;1,36;1,54;1,36;0;0;
31612;-18,43;-37,42;-18,43;-37,42;1,64;1,47;1,64;1,47;0;0;
31632;-17,3;-35,32;-17,3;-35,32;1,6;1,51;1,6;1,51;0;0;
31649;-15,57;-32,85;-15,57;-32,85;1,64;1,47;1,64;1,47;0;0;
31668;-17,69;-37,95;-17,69;-37,95;1,65;1,5;1,65;1,5;0;0;
31687;-16,78;-35,38;-16,78;-35,38;1,58;1,41;1,58;1,41;0;0;
31706;-17,18;-36,89;-17,18;-36,89;1,72;1,38;1,72;1,38;0;0;
31727;-14,66;-35,5;-14,66;-35,5;1,51;1,44;1,51;1,44;0;0;
31744;-17,1;-32,9;-17,1;-32,9;1,48;1,37;1,48;1,37;0;0;
31767;-19,34;-36,71;-19,34;-36,71;1,49;1,46;1,49;1,46;0;0;
31786;-19,17;-38,68;-19,17;-38,68;1,66;1,54;1,66;1,54;0;0;
31803;-15,46;-38,3;-15,46;-38,3;1,9;1,89;1,9;1,89;0;0;
31820;-20,65;-33,02;-20,65;-33,02;1,91;1,88;1,91;1,88;0;0;
31838;-16,95;-34,75;-16,95;-34,75;1,78;1,98;1,78;1,98;0;0;
31855;-16,95;-34,75;-16,95;-34,75;1,7;2,06;1,7;2,06;0;0;
31872;-17,9;-37,92;-17,9;-37,92;1,55;2,01;1,55;2,01;0;0;
31893;-17,12;-35,43;-17,12;-35,43;1,43;1,67;1,43;1,67;0;0;
31912;-16,72;-36,1;-16,72;-36,1;1,41;1,43;1,41;1,43;0;0;
31933;-18,01;-37,43;-18,01;-37,43;1,36;1,55;1,36;1,55;0;0;
31951;-17,13;-36,04;-17,13;-36,04;1,33;1,33;1,33;1,33;0;0;
31970;-19,95;-34,61;-19,95;-34,61;1,39;1,37;1,39;1,37;0;0;
31990;-17,93;-35,7;-17,93;-35,7;1,33;1,27;1,33;1,27;0;0;
32008;-14,47;-32,74;-14,47;-32,74;1,36;1,39;1,36;1,39;0;0;
32027;-17,65;-34,96;-17,65;-34,96;1,43;1,37;1,43;1,37;0;0;
32044;-14,59;-39,1;-14,59;-39,1;1,54;1,54;1,54;1,54;0;0;
32063;-16,7;-39,28;-16,7;-39,28;1,47;1,67;1,47;1,67;0;0;
32094;-13,91;-33,95;-13,91;-33,95;1,67;1,55;1,67;1,55;0;0;
32112;-18,47;-35,24;-18,47;-35,24;1,72;1,59;1,72;1,59;0;0;
32131;-13,3;-38,31;-13,3;-38,31;1,58;1,63;1,58;1,63;0;0;
32147;-15,65;-33,55;-15,65;-33,55;1,46;1,56;1,46;1,56;0;0;
32165;-15,91;-35,98;-15,91;-35,98;1,38;1,59;1,38;1,59;0;0;
32184;-14,42;-35,26;-14,42;-35,26;1,47;1,55;1,47;1,55;0;0;
32202;-16,15;-34,1;-16,15;-34,1;1,15;1,49;1,15;1,49;0;0;
32218;-16,43;-35,41;-16,43;-35,41;1,16;1,44;1,16;1,44;0;0;
32242;-17,02;-35,96;-17,02;-35,96;1,06;1,38;1,06;1,38;0;0;
32259;-16,84;-35,41;-16,84;-35,41;1,07;1,33;1,07;1,33;0;0;
32277;-20,76;-37,55;-20,76;-37,55;1,18;1,21;1,18;1,21;0;0;
32297;-15,65;-39,81;-15,65;-39,81;1,19;1,37;1,19;1,37;0;0;
32312;-15,65;-39,81;-15,65;-39,81;1,3;1,53;1,3;1,53;0;0;
32330;-13,98;-37,94;-13,98;-37,94;1,47;1,6;1,47;1,6;0;0;
32347;-19,4;-30,74;-19,4;-30,74;1,65;1,78;1,65;1,78;0;0;
32366;-13,62;-33,76;-13,62;-33,76;2,15;2,13;2,15;2,13;0;0;
32384;-13,47;-29,96;-13,47;-29,96;2,31;2,54;2,31;2,54;0;0;
32409;-14,96;-30,01;-14,96;-30,01;2,5;3,12;2,5;3,12;0;0;
32429;-23,15;-38,27;-23,15;-38,27;2,81;3,42;2,81;3,42;0;0;
32446;-14,92;-31,16;-14,92;-31,16;2,57;3,38;2,57;3,38;0;0;
32465;-16,96;-37,22;-16,96;-37,22;2,2;3,28;2,2;3,28;0;0;
32484;-19,66;-45,02;-19,66;-45,02;2,57;4,25;2,57;4,25;1;0;
32504;-16,37;-36,54;-16,37;-36,54;2,88;3,8;2,88;3,8;1;0;
32522;-13,51;-35,82;-13,51;-35,82;3,02;3,67;3,02;3,67;1;0;
32539;-19,06;-36,61;-19,06;-36,61;3,42;3,67;3,42;3,67;1;0;
32561;-21,62;-33,67;-21,62;-33,67;3,67;3,81;3,67;3,81;1;0;
32580;17,25;9,87;17,25;9,87;4,33;4,32;4,33;4,32;1;0;
32598;3,84;-18,83;3,84;-18,83;8,45;6,72;8,45;6,72;1;0;
32614;3,84;-18,83;3,84;-18,83;12,45;9,42;12,45;9,42;1;0;
32633;-44,09;-46,79;-44,09;-46,79;14,32;10,88;14,32;10,88;1;0;
32652;-29,24;-44,25;-29,24;-44,25;17,1;12,63;17,1;12,63;1;0;
32669;6,92;-20,59;6,92;-20,59;19,69;15,27;19,69;15,27;1;0;
32688;-21,44;-38,11;-21,44;-38,11;19,67;15,11;19,67;15,11;1;0;
32706;-2,9;-25,35;-2,9;-25,35;16,75;13,9;16,75;13,9;1;0;
32727;-40,1;-25,12;-40,1;-25,12;14,85;12,95;14,85;12,95;1;0;
32744;-33,79;-27,22;-33,79;-27,22;15,17;12,06;15,17;12,06;1;0;
32765;-17,64;-42,67;-17,64;-42,67;11,9;11,15;11,9;11,15;1;0;
32784;-12,82;-33,24;-12,82;-33,24;11,51;10,24;11,51;10,24;1;0;
32803;-11,4;-35,19;-11,4;-35,19;8,1;9,05;8,1;9,05;1;0;
32821;-16,23;-26,02;-16,23;-26,02;6,73;8,28;6,73;8,28;0;0;
32840;-13,07;-34,21;-13,07;-34,21;5,7;10,3;5,7;10,3;0;0;
32859;-22,93;-31,41;-22,93;-31,41;4,81;10,33;4,81;10,33;0;0;
32880;-19,25;-35,24;-19,25;-35,24;4,57;7,75;4,57;7,75;0;0;
32901;-20,18;-41,18;-20,18;-41,18;4,33;7,08;4,33;7,08;0;0;
32922;-15,27;-35,6;-15,27;-35,6;4,16;6,84;4,16;6,84;0;0;
32939;-11,62;-34,52;-11,62;-34,52;3,26;4,32;3,26;4,32;0;0;
32957;-18,48;-37,06;-18,48;-37,06;2,46;2,94;2,46;2,94;0;0;
32976;-18,48;-37,06;-18,48;-37,06;1,9;2,34;1,9;2,34;0;0;
32994;-12,08;-35,47;-12,08;-35,47;2,25;3,28;2,25;3,28;0;0;
33013;-17,61;-35,92;-17,61;-35,92;2,05;2,76;2,05;2,76;0;0;
33037;-17;-35,97;-17;-35,97;2,01;2,52;2,01;2,52;0;0;
33056;-17;-35,97;-17;-35,97;1,93;2,34;1,93;2,34;0;0;
33073;-19,11;-35,7;-19,11;-35,7;2,1;2,29;2,1;2,29;0;0;
33092;-15,29;-35,03;-15,29;-35,03;1,94;1,83;1,94;1,83;0;0;
33113;-17,26;-34,37;-17,26;-34,37;1,86;1,39;1,86;1,39;0;0;
33130;-16,1;-35,7;-16,1;-35,7;1,72;1,4;1,72;1,4;0;0;
33149;-16,23;-35,95;-16,23;-35,95;1,64;1,46;1,64;1,46;0;0;
33168;-16,72;-37,31;-16,72;-37,31;1,55;1,62;1,55;1,62;0;0;
33188;-17,93;-36,56;-17,93;-36,56;1,62;1,69;1,62;1,69;0;0;
33206;-15,66;-37,23;-15,66;-37,23;1,57;1,51;1,57;1,51;0;0;
33224;-15,21;-35,09;-15,21;-35,09;1,39;1,58;1,39;1,58;0;0;
33242;-16,2;-37,73;-16,2;-37,73;1,41;1,74;1,41;1,74;0;0;
33259;-15,84;-36,22;-15,84;-36,22;1,38;1,75;1,38;1,75;0;0;
33278;-15,5;-37,29;-15,5;-37,29;1,21;1,66;1,21;1,66;0;0;
33295;-15,5;-37,29;-15,5;-37,29;1,29;1,66;1,29;1,66;0;0;
33314;-14,86;-32,32;-14,86;-32,32;1,32;1,68;1,32;1,68;0;0;
33331;-15,62;-37,94;-15,62;-37,94;1,29;1,88;1,29;1,88;0;0;
33354;-19,29;-35,11;-19,29;-35,11;1,43;1,67;1,43;1,67;0;0;
33371;-12,06;-36,59;-12,06;-36,59;1,45;1,72;1,45;1,72;0;0;
33390;-14,45;-36,04;-14,45;-36,04;1,5;1,69;1,5;1,69;0;0;
33410;-15,5;-34,92;-15,5;-34,92;1,62;1,64;1,62;1,64;0;0;
33431;-15,53;-35,05;-15,53;-35,05;1,76;1,42;1,76;1,42;0;0;
33447;-14,89;-35,28;-14,89;-35,28;1,87;1,31;1,87;1,31;0;0;
33465;-14,02;-31,31;-14,02;-31,31;1,7;1,46;1,7;1,46;0;0;
33483;-17,96;-33,16;-17,96;-33,16;1,69;1,34;1,69;1,34;0;0;
33505;-13,21;-33,06;-13,21;-33,06;1,57;1,52;1,57;1,52;0;0;
33522;-16,37;-34,25;-16,37;-34,25;1,53;1,64;1,53;1,64;0;0;
33540;-18,36;-32,54;-18,36;-32,54;1,48;1,7;1,48;1,7;0;0;
33557;-15,27;-35,25;-15,27;-35,25;1,5;1,93;1,5;1,93;0;0;
33576;-15,27;-35,25;-15,27;-35,25;1,67;2,01;1,67;2,01;0;0;
33594;-12,27;-36,32;-12,27;-36,32;1,79;1,86;1,79;1,86;0;0;
33611;-16,94;-36,62;-16,94;-36,62;1,78;1,88;1,78;1,88;0;0;
33631;-16,99;-36,96;-16,99;-36,96;1,83;1,76;1,83;1,76;0;0;
33647;-14,7;-36,2;-14,7;-36,2;1,76;1,8;1,76;1,8;0;0;
33669;-16,55;-34,25;-16,55;-34,25;1,68;1,58;1,68;1,58;0;0;
33687;-17,18;-36,65;-17,18;-36,65;1,58;1,48;1,58;1,48;0;0;
33714;-18,21;-32,78;-18,21;-32,78;1,48;1,5;1,48;1,5;0;0;
33733;-15,86;-35,97;-15,86;-35,97;1,25;1,6;1,25;1,6;0;0;
33749;-19,77;-36,52;-19,77;-36,52;1,32;1,45;1,32;1,45;0;0;
33769;-13,98;-35,79;-13,98;-35,79;1,32;1,52;1,32;1,52;0;0;
33788;-16,28;-34,88;-16,28;-34,88;1,4;1,51;1,4;1,51;0;0;
33806;-15,6;-32,29;-15,6;-32,29;1,49;1,62;1,49;1,62;0;0;
33829;-12,96;-35,07;-12,96;-35,07;1,63;1,77;1,63;1,77;0;0;
33846;-17,51;-35,25;-17,51;-35,25;1,84;1,72;1,84;1,72;0;0;
33864;-19,47;-33,29;-19,47;-33,29;1,86;1,7;1,86;1,7;0;0;
33881;-18,96;-35,72;-18,96;-35,72;1,84;1,68;1,84;1,68;0;0;
33901;-17,92;-36,77;-17,92;-36,77;1,83;1,64;1,83;1,64;0;0;
33920;-14,48;-36,96;-14,48;-36,96;1,78;1,64;1,78;1,64;0;0;
33937;-17,1;-36,49;-17,1;-36,49;1,58;1,78;1,58;1,78;0;0;
33953;-17,1;-36,49;-17,1;-36,49;1,43;2,11;1,43;2,11;0;0;
33972;-19,94;-37,38;-19,94;-37,38;1,59;2,12;1,59;2,12;0;0;
33993;-14,9;-38,66;-14,9;-38,66;1,42;2,4;1,42;2,4;0;0;
34010;-14,9;-38,66;-14,9;-38,66;1,49;2,46;1,49;2,46;0;0;
34029;-17,26;-35,96;-17,26;-35,96;1,57;2,28;1,57;2,28;0;0;
34046;-15,53;-37,95;-15,53;-37,95;1,71;2,1;1,71;2,1;0;0;
34064;-14,13;-35,23;-14,13;-35,23;1,69;2,08;1,69;2,08;0;0;
34082;-16,27;-34,21;-16,27;-34,21;1,61;1,82;1,61;1,82;0;0;
34100;-18,28;-35,93;-18,28;-35,93;1,58;1,56;1,58;1,56;0;0;
34119;-16,38;-33,37;-16,38;-33,37;1,93;1,66;1,93;1,66;0;0;
34136;-16,38;-33,37;-16,38;-33,37;2,19;1,88;2,19;1,88;0;0;
34157;-12,39;-31,82;-12,39;-31,82;2,34;1,81;2,34;1,81;0;0;
34173;-12,11;-32,36;-12,11;-32,36;2,63;1,98;2,63;1,98;0;0;
34191;-19,08;-35,92;-19,08;-35,92;2,72;2,09;2,72;2,09;0;0;
34209;-9,48;-37,2;-9,48;-37,2;2,97;2,41;2,97;2,41;0;0;
34229;-18,08;-35,08;-18,08;-35,08;2,78;2,15;2,78;2,15;0;0;
34247;-15,63;-37,23;-15,63;-37,23;2,54;2,03;2,54;2,03;0;0;
34265;-20,79;-37,45;-20,79;-37,45;2,35;2;2,35;2;0;0;
34282;-12,03;-34,61;-12,03;-34,61;2,21;2,1;2,21;2,1;0;0;
34303;-19,08;-35,45;-19,08;-35,45;2,09;2,08;2,09;2,08;0;0;
34324;-16,86;-34,28;-16,86;-34,28;1,74;1,64;1,74;1,64;0;0;
34341;-16,36;-36,09;-16,36;-36,09;1,66;1,81;1,66;1,81;0;0;
34359;-17,45;-37,93;-17,45;-37,93;1,47;1,89;1,47;1,89;0;0;
34378;-18,42;-37,31;-18,42;-37,31;1,29;1,77;1,29;1,77;0;0;
34395;-18,42;-37,31;-18,42;-37,31;1,24;1,71;1,24;1,71;0;0;
34411;-15,53;-34,26;-15,53;-34,26;1,28;1,7;1,28;1,7;0;1;
34429;-14,94;-34,53;-14,94;-34,53;1,33;1,6;1,33;1,6;0;1;
34448;-16,05;-36,19;-16,05;-36,19;1,5;1,63;1,5;1,63;0;1;
34468;-12,49;-33,73;-12,49;-33,73;1,91;1,56;1,91;1,56;0;1;
34489;-12,35;-34,81;-12,35;-34,81;2,23;1,49;2,23;1,49;0;1;
34507;-18,3;-37,63;-18,3;-37,63;2,57;1,74;2,57;1,74;0;1;
34524;-10,14;-32,18;-10,14;-32,18;3,16;2,1;3,16;2,1;0;1;
34544;-20,37;-9,09;-20,37;-9,09;5,53;5,82;5,53;5,82;0;1;
34562;-9,01;41,57;-9,01;41,57;7,13;11,16;7,13;11,16;0;1;
34581;-79,03;-172,77;-79,03;-172,77;9,6;20,23;9,6;20,23;0;1;
34600;-26,99;-70,8;-26,99;-70,8;13,32;37,69;13,32;37,69;0;0;
34620;-62,59;141,51;-62,59;141,51;17,74;47,96;17,74;47,96;0;0;
34647;-36,15;-32,68;-36,15;-32,68;20,44;50,3;20,44;50,3;0;0;
34667;-18,23;-29,79;-18,23;-29,79;19,6;48,71;19,6;48,71;0;0;
34685;-8,9;-36;-8,9;-36;19,38;42,65;19,38;42,65;0;0;
34703;-13,08;-32,46;-13,08;-32,46;16,53;29,84;16,53;29,84;0;0;
34722;-12,59;-35,37;-12,59;-35,37;14,95;16,71;14,95;16,71;0;0;
34740;-16,09;-26,21;-16,09;-26,21;10,01;7,21;10,01;7,21;0;0;
34758;-15,43;-20,23;-15,43;-20,23;8,59;4,84;8,59;4,84;0;0;
34779;-16,16;-34,89;-16,16;-34,89;6,3;3,36;6,3;3,36;0;0;
34801;-12,49;-34,15;-12,49;-34,15;5,51;2,87;5,51;2,87;0;0;
34818;-18,51;-38,53;-18,51;-38,53;4,46;2,75;4,46;2,75;0;0;
34838;-12,67;-33,33;-12,67;-33,33;3,56;2,41;3,56;2,41;0;0;
34855;-12,67;-33,33;-12,67;-33,33;2,97;2,04;2,97;2,04;0;0;
34872;-15,75;-36,5;-15,75;-36,5;2,32;1,55;2,32;1,55;0;0;
34891;-13,15;-34,27;-13,15;-34,27;2,47;1,74;2,47;1,74;0;0;
34909;-19,97;-35,91;-19,97;-35,91;2,44;1,93;2,44;1,93;0;0;
34927;-18,72;-35,75;-18,72;-35,75;2,49;2,12;2,49;2,12;0;0;
34946;-22,92;-32,62;-22,92;-32,62;2,62;2,44;2,62;2,44;0;0;
34968;-11,21;-34,6;-11,21;-34,6;2,97;2,57;2,97;2,57;0;0;
34984;-13,79;-36,41;-13,79;-36,41;2,89;2,59;2,89;2,59;0;0;
35004;-14,67;-38,91;-14,67;-38,91;2,85;2,53;2,85;2,53;0;0;
35022;-16,55;-32,9;-16,55;-32,9;2,85;2,35;2,85;2,35;0;0;
35040;-17,75;-34,25;-17,75;-34,25;2,69;2,31;2,69;2,31;0;0;
35058;-13,23;-34,88;-13,23;-34,88;2,22;1,95;2,22;1,95;0;0;
35075;-13,23;-34,88;-13,23;-34,88;1,6;1,55;1,6;1,55;0;0;
35093;-16,37;-33,28;-16,37;-33,28;1,49;1,66;1,49;1,66;0;0;
35112;-17,69;-38,18;-17,69;-38,18;1,43;1,65;1,43;1,65;0;0;
35133;-18,56;-37,67;-18,56;-37,67;1,49;1,59;1,49;1,59;1;0;
35151;-13,44;-31,65;-13,44;-31,65;1,43;1,72;1,43;1,72;1;0;
35170;-18,03;-39,04;-18,03;-39,04;2,14;2,17;2,14;2,17;1;0;
35189;-33,63;-55,18;-33,63;-55,18;4,96;3,81;4,96;3,81;1;0;
35207;-6,64;-29,23;-6,64;-29,23;9,87;6,55;9,87;6,55;1;0;
35226;-33,27;-49,73;-33,27;-49,73;13,68;8,43;13,68;8,43;1;0;
35246;-14,5;-41;-14,5;-41;17,38;9,77;17,38;9,77;1;0;
35264;28,24;-2,29;28,24;-2,29;23,67;15,7;23,67;15,7;1;0;
35287;36,81;-5,25;36,81;-5,25;28,51;17,65;28,51;17,65;0;0;
35311;-23,03;-8,8;-23,03;-8,8;28,72;18,71;28,72;18,71;0;0;
35336;-8,8;-36,44;-8,8;-36,44;31,79;20,55;31,79;20,55;0;0;
35354;-18,9;-36,22;-18,9;-36,22;28,62;20,13;28,62;20,13;0;0;
35373;-60,6;-109,28;-60,6;-109,28;24,9;20,75;24,9;20,75;0;0;
35391;-18,05;-35,66;-18,05;-35,66;21,49;18,14;21,49;18,14;0;0;
35409;-14,89;-35,44;-14,89;-35,44;17,19;16,05;17,19;16,05;0;0;
35431;-4,12;-25,79;-4,12;-25,79;10,09;13,54;10,09;13,54;0;0;
35456;4,12;-18,18;4,12;-18,18;10,13;13,45;10,13;13,45;0;0;
35476;-20,11;-38,48;-20,11;-38,48;9,21;11,26;9,21;11,26;0;0;
35493;-10,72;-28,33;-10,72;-28,33;5,88;7,84;5,88;7,84;0;0;
35511;-18,66;-40,22;-18,66;-40,22;5,71;7,35;5,71;7,35;0;0;
35530;-17,18;-34,5;-17,18;-34,5;5,02;6,69;5,02;6,69;0;0;
35548;-15,12;-32,85;-15,12;-32,85;4,17;5,5;4,17;5,5;0;0;
35567;-17,27;-35,26;-17,27;-35,26;4,63;4,12;4,63;4,12;0;0;
35586;-14,23;-34,69;-14,23;-34,69;4,69;4,32;4,69;4,32;0;0;
35607;-14,48;-34,72;-14,48;-34,72;4,66;3,93;4,66;3,93;0;0;
35624;-19,27;-38,39;-19,27;-38,39;4,17;3,57;4,17;3,57;0;0;
35643;-11,1;-38,92;-11,1;-38,92;4,13;3,61;4,13;3,61;0;0;
35664;-19,34;-33,75;-19,34;-33,75;2,76;2,98;2,76;2,98;0;0;
35681;-17,12;-35,72;-17,12;-35,72;2,36;2,62;2,36;2,62;0;0;
35698;-14,24;-36,6;-14,24;-36,6;2,47;2,26;2,47;2,26;0;0;
35716;-14,24;-36,6;-14,24;-36,6;2,7;2,16;2,7;2,16;0;0;
35734;-13,77;-33,9;-13,77;-33,9;2,73;1,66;2,73;1,66;0;0;
35752;-15,45;-34,25;-15,45;-34,25;2,67;1,55;2,67;1,55;0;0;
35776;-15,75;-34,64;-15,75;-34,64;2,59;1,53;2,59;1,53;0;0;
35794;-15,98;-34,88;-15,98;-34,88;2,16;1,31;2,16;1,31;0;0;
35812;-9,92;-36,42;-9,92;-36,42;1,92;1,13;1,92;1,13;0;0;
35833;-21,49;-36,93;-21,49;-36,93;1,99;1,25;1,99;1,25;0;0;
35850;-11,79;-38,03;-11,79;-38,03;2;1,52;2;1,52;0;0;
35868;-16,7;-36,83;-16,7;-36,83;2,08;1,58;2,08;1,58;0;0;
35887;-16,49;-36,21;-16,49;-36,21;2,03;1,59;2,03;1,59;0;0;
35904;-14,66;-35,73;-14,66;-35,73;2,15;1,73;2,15;1,73;0;0;
35927;-17,13;-35,78;-17,13;-35,78;1,95;1,74;1,95;1,74;0;0;
35945;-19,34;-38,79;-19,34;-38,79;1,95;1,82;1,95;1,82;0;0;
35964;-13,94;-33,76;-13,94;-33,76;1,94;1,94;1,94;1,94;0;0;
35982;-18,15;-36,05;-18,15;-36,05;1,86;1,98;1,86;1,98;0;0;
36002;-16,24;-33,28;-16,24;-33,28;1,9;1,92;1,9;1,92;0;0;
36020;-16,09;-35,24;-16,09;-35,24;1,87;1,91;1,87;1,91;0;0;
36041;-13,42;-38,82;-13,42;-38,82;2;1,83;2;1,83;0;0;
36060;-17,07;-35,85;-17,07;-35,85;1,84;1,58;1,84;1,58;0;0;
36083;-17,99;-36,6;-17,99;-36,6;1,85;1,49;1,85;1,49;0;0;
36101;-13,94;-34,08;-13,94;-34,08;1,78;1,39;1,78;1,39;0;0;
36118;-14,56;-35,6;-14,56;-35,6;1,69;1,49;1,69;1,49;0;0;
36135;-14,56;-35,6;-14,56;-35,6;1,53;1,61;1,53;1,61;0;0;
36151;-19,26;-31,94;-19,26;-31,94;1,42;1,47;1,42;1,47;0;0;
36171;-19,45;-36,23;-19,45;-36,23;1,48;1,55;1,48;1,55;0;0;
36189;-16,34;-31,74;-16,34;-31,74;1,65;1,8;1,65;1,8;0;0;
36207;-15,9;-28,96;-15,9;-28,96;1,81;2;1,81;2;0;0;
36225;-15,54;-38,79;-15,54;-38,79;2;2,11;2;2,11;0;0;
36250;-16,02;-37,19;-16,02;-37,19;2,1;2,3;2,1;2,3;0;0;
36271;-16,78;-33,43;-16,78;-33,43;2,11;2,47;2,11;2,47;0;0;
36288;-13,07;-30,18;-13,07;-30,18;1,88;2,42;1,88;2,42;0;0;
36307;-18,39;-35,68;-18,39;-35,68;1,84;2,22;1,84;2,22;0;1;
36325;-20,24;-37,88;-20,24;-37,88;3,4;2,95;3,4;2,95;0;1;
36342;-27,81;-165,12;-27,81;-165,12;4,94;8,67;4,94;8,67;0;1;
36361;-26,48;-19,89;-26,48;-19,89;8,82;19,8;8,82;19,8;0;1;
36381;-84,04;81,02;-84,04;81,02;12,82;31,13;12,82;31,13;0;1;
36403;27,94;-48,85;27,94;-48,85;21,33;45,36;21,33;45,36;0;0;
36421;-38,48;32,23;-38,48;32,23;24,99;51,54;24,99;51,54;0;0;
36444;-18,22;-120,78;-18,22;-120,78;26,59;60,05;26,59;60,05;0;0;
36464;-40,77;-4,79;-40,77;-4,79;27,54;54,25;27,54;54,25;0;0;
36481;-3,8;72,11;-3,8;72,11;32,31;53,62;32,31;53,62;0;0;
36499;-2,72;-50,05;-2,72;-50,05;32,76;50,16;32,76;50,16;0;0;
36515;-2,72;-50,05;-2,72;-50,05;29,63;44,97;29,63;44,97;0;0;
36535;-47,84;-6,94;-47,84;-6,94;29,81;37,58;29,81;37,58;0;0;
36559;-17,35;-39,86;-17,35;-39,86;28,67;36,66;28,67;36,66;0;0;
36579;-43,48;-47,1;-43,48;-47,1;26,09;32,81;26,09;32,81;0;0;
36598;44,6;-11;44,6;-11;20,73;23,07;20,73;23,07;0;0;
36614;44,6;-11;44,6;-11;16,61;15,5;16,61;15,5;0;0;
36634;-13,64;-37,16;-13,64;-37,16;12,47;12,66;12,47;12,66;0;0;
36654;-16,07;-33,98;-16,07;-33,98;9,12;5,13;9,12;5,13;0;0;
36671;-3,7;-34,39;-3,7;-34,39;6,39;4,35;6,39;4,35;0;0;
36688;-16,01;-34,87;-16,01;-34,87;5,3;3,84;5,3;3,84;0;0;
36710;-15,57;-34,63;-15,57;-34,63;4,3;2,83;4,3;2,83;0;0;
36728;-12,9;-36,06;-12,9;-36,06;3,63;2,32;3,63;2,32;0;0;
36746;-14,72;-37,57;-14,72;-37,57;3,46;2,14;3,46;2,14;0;0;
36768;-15,02;-41,03;-15,02;-41,03;3,58;2,22;3,58;2,22;0;0;
36788;-15,57;-38,16;-15,57;-38,16;1,91;1,89;1,91;1,89;0;0;
36806;-14,56;-36,64;-14,56;-36,64;1,95;1,79;1,95;1,79;0;0;
36826;-16,97;-33,9;-16,97;-33,9;1,88;1,8;1,88;1,8;0;0;
36847;-19,05;-35,97;-19,05;-35,97;1,91;2,06;1,91;2,06;0;0;
36869;-20,55;-33,89;-20,55;-33,89;1,79;2,16;1,79;2,16;0;0;
36889;-17,93;-36,21;-17,93;-36,21;1,92;1,98;1,92;1,98;0;0;
36909;-14,95;-33,18;-14,95;-33,18;1,82;2,15;1,82;2,15;0;0;
36927;-14,84;-33,6;-14,84;-33,6;1,84;2;1,84;2;0;0;
36946;-17,52;-35,61;-17,52;-35,61;1,83;1,99;1,83;1,99;0;0;
36970;-15,49;-37,78;-15,49;-37,78;1,85;1,74;1,85;1,74;0;0;
36987;-16,24;-35,07;-16,24;-35,07;1,71;1,74;1,71;1,74;0;0;
37003;-16,73;-35,98;-16,73;-35,98;1,71;1,38;1,71;1,38;0;0;
37024;-16,59;-34,14;-16,59;-34,14;1,62;1,36;1,62;1,36;0;0;
37043;-11,78;-41,9;-11,78;-41,9;1,58;1,63;1,58;1,63;0;0;
37063;-16,46;-34,02;-16,46;-34,02;1,67;1,72;1,67;1,72;0;0;
37081;-13,81;-36,23;-13,81;-36,23;1,65;1,59;1,65;1,59;0;0;
37099;-14,98;-32,85;-14,98;-32,85;1,53;1,61;1,53;1,61;0;0;
37115;-14,98;-32,85;-14,98;-32,85;1,44;1,54;1,44;1,54;0;0;
37133;-18,14;-36,6;-18,14;-36,6;1,53;1,47;1,53;1,47;0;0;
37151;-18,45;-32,17;-18,45;-32,17;1,47;1,45;1,47;1,45;0;0;
37170;-12,84;-36,41;-12,84;-36,41;1,35;1,49;1,35;1,49;0;0;
37190;-17,48;-34,75;-17,48;-34,75;1,31;1,82;1,31;1,82;0;0;
37206;-13,48;-35,4;-13,48;-35,4;1,38;1,87;1,38;1,87;0;0;
37224;-15,97;-35,96;-15,97;-35,96;1,41;1,87;1,41;1,87;0;0;
37244;-17,48;-35,14;-17,48;-35,14;1,4;1,72;1,4;1,72;0;0;
37263;-18,88;-39,9;-18,88;-39,9;1,39;1,64;1,39;1,64;0;0;
37280;-16,37;-34,53;-16,37;-34,53;1,38;1,54;1,38;1,54;0;0;
37301;-16,7;-39,21;-16,7;-39,21;1,58;1,53;1,58;1,53;0;0;
37320;-18,67;-34,82;-18,67;-34,82;1,75;1,65;1,75;1,65;0;0;
37342;-14,4;-33,71;-14,4;-33,71;1,79;1,82;1,79;1,82;0;0;
37360;-15,16;-37,94;-15,16;-37,94;1,7;1,98;1,7;1,98;0;0;
37378;-17,82;-35,73;-17,82;-35,73;1,68;1,86;1,68;1,86;0;0;
37396;-17,82;-35,73;-17,82;-35,73;1,64;1,85;1,64;1,85;0;0;
37413;-16,77;-35,73;-16,77;-35,73;1,71;1,74;1,71;1,74;0;0;
37431;-15,18;-34,59;-15,18;-34,59;1,53;1,69;1,53;1,69;0;0;
37449;-17,14;-33,37;-17,14;-33,37;1,44;1,57;1,44;1,57;0;0;
37467;-13,38;-36,56;-13,38;-36,56;1,65;1,4;1,65;1,4;0;0;
37486;-14,81;-33,26;-14,81;-33,26;1,64;1,52;1,64;1,52;0;0;
37508;-15,84;-35,23;-15,84;-35,23;1,48;1,57;1,48;1,57;0;0;
37526;-14,98;-35,96;-14,98;-35,96;1,54;1,53;1,54;1,53;0;0;
37545;-14,39;-35,26;-14,39;-35,26;1,73;1,71;1,73;1,71;0;0;
37564;-14,6;-35,25;-14,6;-35,25;1,85;1,65;1,85;1,65;0;0;
37579;-15,95;-37,68;-15,95;-37,68;1,79;1,61;1,79;1,61;0;0;
37600;-17,06;-34,7;-17,06;-34,7;1,8;1,51;1,8;1,51;0;0;
37618;-14,97;-37,94;-14,97;-37,94;1,82;1,4;1,82;1,4;0;0;
37637;-17,5;-34,18;-17,5;-34,18;1,58;1,15;1,58;1,15;0;0;
37658;-15,11;-37,36;-15,11;-37,36;1,46;1,34;1,46;1,34;0;0;
37674;-15,11;-37,36;-15,11;-37,36;1,42;1,52;1,42;1,52;0;0;
37693;-18,12;-34,27;-18,12;-34,27;1,3;1,44;1,3;1,44;0;0;
37713;-18,6;-32,91;-18,6;-32,91;1,46;1,68;1,46;1,68;0;0;
37731;-13,65;-36,56;-13,65;-36,56;1,51;1,62;1,51;1,62;0;0;
37748;-14,2;-34,26;-14,2;-34,26;1,52;1,65;1,52;1,65;0;0;
37768;-19,04;-36,59;-19,04;-36,59;1,59;1,6;1,59;1,6;0;0;
37785;-17,35;-36,98;-17,35;-36,98;1,61;1,54;1,61;1,54;0;0;
37803;-15,09;-36,76;-15,09;-36,76;1,8;1,51;1,8;1,51;0;0;
37823;-15,65;-36,23;-15,65;-36,23;1,63;1,51;1,63;1,51;0;0;
37840;-14,81;-37,18;-14,81;-37,18;1,62;1,53;1,62;1,53;0;0;
37858;-18,34;-31,79;-18,34;-31,79;1,64;1,52;1,64;1,52;0;0;
37877;-15,63;-36,45;-15,63;-36,45;1,6;1,81;1,6;1,81;0;0;
37893;-15,63;-36,45;-15,63;-36,45;1,67;2,01;1,67;2,01;0;0;
37910;-13,24;-35,62;-13,24;-35,62;1,75;1,84;1,75;1,84;0;0;
37928;-18,02;-36,6;-18,02;-36,6;1,77;1,83;1,77;1,83;0;0;
37947;-17,73;-37,15;-17,73;-37,15;1,82;1,69;1,82;1,69;0;0;
37968;-17,8;-35,58;-17,8;-35,58;1,92;1,71;1,92;1,71;0;0;
37989;-16,63;-34,52;-16,63;-34,52;1,81;1,73;1,81;1,73;0;0;
38008;-17,55;-34,96;-17,55;-34,96;1,51;1,73;1,51;1,73;0;0;
38026;-13,17;-35,71;-13,17;-35,71;1,64;1,88;1,64;1,88;0;0;
38044;-15,27;-35,39;-15,27;-35,39;1,69;1,96;1,69;1,96;0;0;
38064;-16,32;-37,94;-16,32;-37,94;1,52;1,79;1,52;1,79;0;0;
38082;-20,3;-33,53;-20,3;-33,53;1,69;1,79;1,69;1,79;0;0;
38102;-14,02;-34,75;-14,02;-34,75;1,78;1,54;1,78;1,54;0;0;
38119;-15,44;-33,28;-15,44;-33,28;1,97;1,66;1,97;1,66;1;0;
38140;-14,57;-30,12;-14,57;-30,12;1,99;2;1,99;2;1;0;
38159;-16,21;-36,08;-16,21;-36,08;2,45;2,7;2,45;2,7;1;0;
38179;-16,55;-37,85;-16,55;-37,85;2,54;2,98;2,54;2,98;1;0;
38195;-16,55;-37,85;-16,55;-37,85;2,57;3,31;2,57;3,31;1;0;
38213;-18,07;-35,72;-18,07;-35,72;2,72;3,87;2,72;3,87;1;0;
38235;-19,76;-38,95;-19,76;-38,95;2,83;3,74;2,83;3,74;1;0;
38252;-27,82;-43,07;-27,82;-43,07;6,76;5,3;6,76;5,3;1;0;
38271;-65,02;-46,68;-65,02;-46,68;10,02;6,62;10,02;6,62;1;0;
38291;-16,59;-43,27;-16,59;-43,27;16,83;9,2;16,83;9,2;1;0;
38310;-28,52;-21,16;-28,52;-21,16;23,44;10,67;23,44;10,67;1;0;
38328;-9,82;5,17;-9,82;5,17;29,21;14,23;29,21;14,23;0;0;
38352;3,37;-37,68;3,37;-37,68;31,92;16,68;31,92;16,68;0;0;
38373;-48,85;-9,07;-48,85;-9,07;34,73;18,53;34,73;18,53;0;0;
38391;-16,29;-41,24;-16,29;-41,24;25,35;16,06;25,35;16,06;0;0;
38408;-12,81;-22,61;-12,81;-22,61;20,05;17,74;20,05;17,74;0;0;
38427;-6,23;-32,45;-6,23;-32,45;18,79;18,74;18,79;18,74;0;0;
38450;-26,25;-82,82;-26,25;-82,82;16,56;18,51;16,56;18,51;0;0;
38469;-33,38;-35,85;-33,38;-35,85;13,65;17,1;13,65;17,1;0;0;
38488;0,41;10,49;0,41;10,49;13,11;17,3;13,11;17,3;0;0;
38507;-20,93;-38,48;-20,93;-38,48;13,03;15,64;13,03;15,64;0;0;
38526;-15,65;-27,41;-15,65;-27,41;11,16;12,24;11,16;12,24;0;0;
38544;-16,5;-34,83;-16,5;-34,83;8,7;8,61;8,7;8,61;0;0;
38564;-17,68;-25,96;-17,68;-25,96;6,85;6,48;6,85;6,48;0;0;
38588;-16,17;-36,83;-16,17;-36,83;4,93;5,79;4,93;5,79;0;0;
38609;-17,97;-32,92;-17,97;-32,92;3,96;3,66;3,96;3,66;0;0;
38628;-17,07;-43;-17,07;-43;3,46;3,44;3,46;3,44;0;0;
38646;-14,71;-37,21;-14,71;-37,21;3,75;3,64;3,75;3,64;0;0;
38665;-9,17;-30,72;-9,17;-30,72;4,25;4,69;4,25;4,69;0;0;
38683;-19,25;-37,21;-19,25;-37,21;4,11;3,9;4,11;3,9;0;0;
38704;-17,89;-35,96;-17,89;-35,96;3,8;3,69;3,8;3,69;0;0;
38721;-16,57;-35,25;-16,57;-35,25;3,56;3,69;3,56;3,69;0;0;
38739;-27,22;-37,92;-27,22;-37,92;3,21;3,41;3,21;3,41;0;0;
38763;-21,38;-41,05;-21,38;-41,05;3,2;3,49;3,2;3,49;0;0;
38782;-15,97;-32,49;-15,97;-32,49;2,8;2,72;2,8;2,72;0;0;
38799;-15,03;-35,77;-15,03;-35,77;2,53;2,66;2,53;2,66;0;0;
38817;-20,92;-38,15;-20,92;-38,15;2,72;2,76;2,72;2,76;0;0;
38836;-20,92;-38,15;-20,92;-38,15;2,95;3,06;2,95;3,06;0;0;
38852;-11,45;-33,65;-11,45;-33,65;2,21;2,64;2,21;2,64;0;0;
38871;-14,99;-35,27;-14,99;-35,27;2,27;2,34;2,27;2,34;0;0;
38890;-12,27;-33,18;-12,27;-33,18;2,52;2,45;2,52;2,45;0;0;
38913;-18,61;-35,26;-18,61;-35,26;2,3;2,36;2,3;2,36;1;0;
38931;-14,13;-33,16;-14,13;-33,16;1,9;2,14;1,9;2,14;1;0;
38949;-17,38;-35,75;-17,38;-35,75;1,72;2,1;1,72;2,1;1;0;
38970;-21,14;-37,92;-21,14;-37,92;1,81;1,97;1,81;1,97;1;0;
38987;-12,84;-34,35;-12,84;-34,35;1,85;2,06;1,85;2,06;1;0;
39004;9,8;-4,44;9,8;-4,44;2,41;2,67;2,41;2,67;1;0;
39021;-1,49;-30,62;-1,49;-30,62;5,58;5,13;5,58;5,13;1;0;
39041;-72,6;-62,45;-72,6;-62,45;9,05;6,5;9,05;6,5;1;0;
39061;-40,57;-42,05;-40,57;-42,05;11,4;7,69;11,4;7,69;1;0;
39080;-35,1;-46,91;-35,1;-46,91;14,7;9,12;14,7;9,12;1;0;
39098;-30,14;-45,47;-30,14;-45,47;20,19;11,19;20,19;11,19;1;0;
39115;-30,14;-45,47;-30,14;-45,47;23,5;11,29;23,5;11,29;1;0;
39134;-9,71;-31,93;-9,71;-31,93;21,91;10,69;21,91;10,69;0;0;
39155;-42,19;-54,81;-42,19;-54,81;21,41;11,35;21,41;11,35;0;0;
39176;-12,65;-8,12;-12,65;-8,12;20,33;13,82;20,33;13,82;0;0;
39196;-25,79;11,24;-25,79;11,24;18,65;16,73;18,65;16,73;0;0;
39218;-38,18;-43,51;-38,18;-43,51;14,85;16,85;14,85;16,85;0;0;
39237;11,3;-22,92;11,3;-22,92;14;16,47;14;16,47;0;0;
39254;11,3;-22,92;11,3;-22,92;15,13;16,87;15,13;16,87;0;0;
39273;-14,96;-30,58;-14,96;-30,58;14,77;17,62;14,77;17,62;0;0;
39291;-36,7;-52,23;-36,7;-52,23;13,76;13,95;13,76;13,95;0;0;
39311;-8,5;-34,77;-8,5;-34,77;12,25;9,69;12,25;9,69;0;0;
39329;-9,92;-32,74;-9,92;-32,74;10,47;8,92;10,47;8,92;0;0;
39347;-13,87;-35,89;-13,87;-35,89;8,77;8,23;8,77;8,23;0;0;
39369;-17,8;-36,23;-17,8;-36,23;5,5;4,95;5,5;4,95;0;0;
39388;-16,41;-35,21;-16,41;-35,21;5,41;4,21;5,41;4,21;0;0;
39406;-15,19;-34,41;-15,19;-34,41;4,46;3,31;4,46;3,31;0;0;
39424;-17,48;-38,92;-17,48;-38,92;4,29;3,26;4,29;3,26;0;0;
39441;-19,37;-33,02;-19,37;-33,02;3,07;2,93;3,07;2,93;0;0;
39459;-14,8;-38,13;-14,8;-38,13;2,72;2,62;2,72;2,62;0;0;
39477;-16,02;-34,62;-16,02;-34,62;2,47;2,42;2,47;2,42;0;0;
39495;-16,02;-34,62;-16,02;-34,62;1,95;1,86;1,95;1,86;0;0;
39514;-15,22;-37,03;-15,22;-37,03;1,7;1,68;1,7;1,68;0;0;
39535;-16,34;-35,99;-16,34;-35,99;1,93;2,24;1,93;2,24;0;0;
39554;-16,1;-35,56;-16,1;-35,56;1,67;1,88;1,67;1,88;0;0;
39573;-20,15;-31,68;-20,15;-31,68;1,94;2,11;1,94;2,11;0;0;
39591;-16,27;-35,24;-16,27;-35,24;2,08;2,25;2,08;2,25;0;0;
39609;-16,12;-34,3;-16,12;-34,3;2,11;2,32;2,11;2,32;0;0;
39627;-19,82;-31,7;-19,82;-31,7;2,12;2,2;2,12;2,2;0;0;
39644;-15,46;-38,29;-15,46;-38,29;1,87;1,86;1,87;1,86;0;0;
39662;-15,46;-43,11;-15,46;-43,11;1,77;2,13;1,77;2,13;0;0;
39682;-18,21;-35,23;-18,21;-35,23;1,75;2,05;1,75;2,05;0;0;
39704;-20,65;-37,68;-20,65;-37,68;1,75;1,97;1,75;1,97;0;0;
39722;-14,29;-36,59;-14,29;-36,59;1,73;2,06;1,73;2,06;0;0;
39740;-15,97;-36,77;-15,97;-36,77;1,6;1,82;1,6;1,82;0;0;
39758;-15,76;-35,32;-15,76;-35,32;1,68;2;1,68;2;0;0;
39778;-16,29;-34,2;-16,29;-34,2;1,6;1,8;1,6;1,8;0;0;
