Time;EMG1;EMG2;EMG3;EMG4;EMG1_F;EMG2_F;EMG3_F;EMG4_F;Note_R;Note_V;;Level 3;Joueur;Score;Notes hit;% Reussite R;Offset EMG1;Onset EMG1;% Reussite V;Offset EMG2;Onset EMG2
12;-23,44;-30,39;-14,07;-33,9;2,01;1,44;1,3;1,19;0;0;;;1;30500;166;78,78788;-16,36309;22,03668;88,88889;-26,59928;34,75784
37;-16,54;-27,67;-18,74;-33,16;1,87;1,36;1,34;1,31;0;0;;;2;16800;128;65,65656;-17,77725;50,83266;63,63636;-26,59928;53,55935
59;-17,81;-26,81;-15,78;-36,11;1,85;1,31;1,32;1,39;0;0;
78;-19,76;-25,2;-13,99;-35,25;2,06;1,32;1,27;1,42;0;0;
97;-20,61;-23,53;-17,84;-35,97;2,24;1,29;1,4;1,42;0;0;
120;-17,79;-29,53;-14,89;-35,05;2,18;1,33;1,54;1,42;0;0;
142;-16,18;-26,83;-16,15;-35,41;2,12;1,39;1,5;1,23;0;0;
162;-13,71;-28,18;-16,91;-35,98;2,24;1,46;1,45;1,14;0;0;
179;-13,71;-28,18;-16,91;-35,98;2,12;1,48;1,51;1,09;0;0;
195;-15,46;-25,42;-14,2;-36,26;2,09;1,68;1,57;1,08;0;0;
214;-15,98;-27,62;-19,2;-36,95;2,03;1,66;1,53;1,06;0;0;
231;-19,11;-23,14;-16,86;-33,93;2,17;1,67;1,47;1,28;0;0;
250;-15,81;-24,25;-18,59;-35,44;2,14;1,75;1,55;1,36;0;0;
268;-18,59;-27,49;-14,98;-36,58;1,95;1,79;1,73;1,32;0;0;
288;-16,79;-24,08;-17,01;-34,49;1,88;1,88;1,69;1,3;0;0;
305;-18,08;-26,69;-16,71;-38,13;1,64;1,79;1,6;1,3;0;0;
322;-14,55;-23,87;-14,92;-35,25;1,67;1,81;1,51;1,4;0;0;
340;-14,55;-23,87;-14,92;-35,25;1,64;1,73;1,5;1,41;0;0;
360;-17,41;-29,83;-15,3;-37,44;1,88;1,68;1,36;1,55;0;0;
379;-13,92;-25,1;-15,69;-33,41;1,72;1,62;1,4;1,61;0;0;
397;-17,9;-24,6;-16,57;-37,29;1,8;1,61;1,33;1,7;0;0;
416;-18,34;-25,14;-20,1;-35,36;2,03;1,53;1,36;1,51;0;0;
436;-14,48;-25,97;-14,22;-36,04;2,13;1,4;1,35;1,31;0;0;
453;-21,08;-29,19;-16,28;-33,15;2,12;1,38;1,17;1,23;0;0;
472;-14,49;-24,37;-15,23;-37,22;2,21;1,36;1,19;1,15;0;0;
493;-14,31;-28;-17,38;-37,69;2,46;1,3;1,24;1,22;0;0;
511;-18,02;-26,09;-11,78;-39,09;2,46;1,25;1,53;1,22;0;0;
529;-15,15;-27,57;-18,59;-36,6;2,3;1,24;1,65;1,36;0;0;
545;-21,22;-23,45;-11,83;-35,97;2,37;1,57;1,75;1,4;0;0;
565;-14,1;-25,3;-17,98;-38,56;2,55;1,6;1,86;1,36;0;0;
583;-14,48;-27,21;-16,25;-38,68;2,32;1,68;1,76;1,59;0;0;
600;-14,48;-27,21;-16,25;-38,68;2,2;1,71;1,63;1,5;0;0;
620;-15,64;-29,14;-14,56;-35,86;2,2;1,79;1,39;1,44;0;0;
637;-15,77;-20,84;-11,69;-36,81;2,43;1,79;1,32;1,3;0;0;
656;-15,88;-26;-18,77;-37,95;2,21;1,78;1,37;1,38;0;0;
675;-19,84;-25,6;-14,08;-32,65;2,24;1,85;1,56;1,46;0;0;
695;-18,21;-28,4;-18,11;-35,02;2,12;1,77;1,61;1,38;0;0;
713;-15,93;-24,54;-15,24;-34,1;2,4;1,78;1,63;1,45;0;0;
733;-19,49;-27,19;-15,98;-40,46;2,17;1,61;1,65;1,55;0;0;
752;-11,95;-25,91;-14,53;-36,09;1,97;1,29;1,54;1,79;0;0;
771;-18,86;-27,25;-15,15;-35,5;1,99;1,28;1,3;1,75;0;0;
789;-14,45;-25,95;-16,39;-37,92;2,17;1,32;1,35;1,79;0;0;
806;-20,65;-31,06;-19,63;-33,77;2,27;1,27;1,23;1,64;0;0;
825;-15,82;-28,05;-17,64;-36,46;2,25;1,28;1,23;1,49;0;0;
846;-14,47;-24;-16,09;-32,98;2,34;1,45;1,23;1,37;0;0;
864;-16,82;-23,16;-15,37;-37,94;2,35;1,73;1,36;1,33;0;0;
883;-20,67;-27,19;-19,02;-34,05;2,47;1,55;1,26;1,34;0;0;
901;-20,67;-27,19;-19,02;-34,05;2,18;1,46;1,19;1,23;0;0;
918;-21,11;-26,95;-13,45;-35,85;2,36;1,62;1,18;1,24;0;0;
937;-17,55;-27,41;-18,16;-36,69;2,43;1,68;1,13;1,32;0;0;
957;-18,34;-27,06;-15,43;-35,62;2,23;1,75;1,12;1,26;0;0;
976;-10,92;-28,21;-16,46;-35,41;2,25;1,58;1,12;1,22;0;0;
993;-16,97;-24,6;-15,44;-35,73;2,19;1,75;1,19;1,15;0;0;
1013;-16,87;-28,87;-15,26;-35,13;2,35;1,92;1,25;1,09;0;0;
1032;-17,99;-29,35;-14,74;-34,88;2,12;1,82;1,39;1,14;0;0;
1053;-23,9;-28,18;-16,76;-32,91;2,16;1,84;1,45;1,27;0;0;
1077;-19,49;-27,18;-14,92;-36,1;2,43;1,84;1,48;1,25;0;0;
1096;-20,36;-24,99;-15,84;-33,77;2,19;1,78;1,42;1,3;0;0;
1115;-19,49;-28,81;-16,23;-36,42;2,11;1,68;1,4;1,27;0;0;
1133;-14,45;-24,74;-17,69;-34,7;2,12;1,57;1,33;1,35;0;0;
1153;-15,44;-27,89;-14,28;-33,86;2,18;1,36;1,26;1,35;0;0;
1172;-16,35;-23,4;-16,24;-33,54;1,98;1,3;1,35;1,33;0;0;
1192;-20,34;-22,5;-19,53;-33,19;1,97;1,4;1,51;1,36;0;0;
1212;-16,88;-23,69;-17,14;-35,78;1,96;1,54;1,51;1,41;0;0;
1232;-20,23;-23,15;-16,03;-37,95;1,92;1,57;1,57;1,44;0;0;
1252;-19,1;-27,36;-14,76;-37,39;2,06;1,64;1,52;1,4;0;0;
1271;-20,45;-26,29;-14,92;-36,97;2,01;1,6;1,49;1,29;0;0;
1290;-15,06;-26,99;-20,17;-35,44;2,03;1,52;1,62;1,18;0;0;
1308;-14,22;-22,73;-12,1;-39,76;1,9;1,64;1,47;1,14;0;0;
1326;-21,41;-26,48;-14,27;-35,43;2,14;1,56;1,68;1,17;0;0;
1343;-15,17;-29,53;-16,48;-34,76;2,07;1,41;1,72;1,13;0;0;
1362;-19,15;-25,48;-17,06;-38,01;2,07;1,39;1,62;1,07;0;0;
1381;-19,99;-27,01;-15,6;-35,72;2,3;1,37;1,77;0,99;0;0;
1399;-19,99;-27,01;-15,6;-35,72;2,48;1,34;1,77;1,09;0;0;
1418;-11,54;-23,28;-19,41;-36,1;2,54;1,16;1,58;0,97;0;0;
1436;-15,56;-25,91;-14,74;-35,23;2,37;1,19;1,42;1,05;0;0;
1455;-16,92;-25,4;-17,72;-35,66;2,61;1,2;1,41;1,03;0;0;
1475;-19,49;-25,48;-15,15;-35,41;2,61;1,28;1,37;1,08;0;0;
1494;-19,63;-26,17;-16,59;-33,28;2,48;1,41;1,3;1,13;0;0;
1512;-18,79;-23,35;-17,4;-36,47;2,4;1,5;1,28;1,06;0;0;
1531;-18,04;-27,35;-16,7;-35,61;2,39;1,45;1,35;1,05;0;0;
1550;-18,28;-28,19;-17,06;-37,32;2,09;1,76;1,35;1,07;0;0;
1572;-16,16;-23,35;-18,78;-34,92;1,99;1,71;1,35;1,24;0;0;
1590;-15,55;-28,19;-15,12;-36,59;1,96;1,72;1,38;1,28;0;0;
1612;-21,66;-27,38;-14,38;-33,39;2,16;1,64;1,4;1,19;0;0;
1632;-21,82;-25,07;-19,23;-36,7;2,23;1,71;1,32;1,39;0;0;
1654;-18,21;-28,04;-13,77;-34,76;2,18;1,78;1,35;1,42;0;0;
1675;-14,04;-24,48;-18,37;-37,07;2,51;1,74;1,37;1,38;0;0;
1694;-18,32;-27,19;-15,61;-37,09;2,5;1,63;1,29;1,37;0;0;
1714;-17,92;-25,49;-17,79;-38,17;2,34;1,58;1,2;1,46;0;0;
1731;-17,55;-24,16;-15,21;-33,06;2,35;1,74;1,19;1,37;0;0;
1751;-19,88;-29,44;-15,74;-33,51;2,28;1,53;1,14;1,31;0;0;
1770;-16,74;-28,18;-16,11;-37,94;2,24;1,53;1,11;1,35;0;0;
1791;-18,36;-27,85;-14,81;-38,31;2,19;1,53;1,12;1,46;0;0;
1810;-21,55;-26,81;-14,73;-37,04;2,23;1,62;1,28;1,49;0;0;
1828;-14,72;-27,57;-14,74;-41,12;2,17;1,69;1,35;1,54;0;0;
1846;-16,99;-24,93;-16,55;-35,75;2,04;1,52;1,33;1,75;0;0;
1865;-17,33;-32,06;-15,78;-35,25;2,03;1,72;1,3;1,59;0;0;
1885;-17,66;-24,03;-15,88;-35,74;1,9;1,81;1,23;1,65;0;0;
1903;-16,01;-27,9;-15,68;-33,54;2,07;1,95;1,38;1,67;0;0;
1921;-19,35;-25,71;-15,29;-36,18;1,83;1,84;1,33;1,57;0;0;
1939;-19,35;-25,71;-15,29;-36,18;1,67;1,66;1,41;1,39;0;0;
1958;-18,73;-28,04;-18,57;-37,95;1,7;1,6;1,5;1,34;0;0;
1977;-18,4;-23,94;-18,33;-35,41;1,78;1,58;1,49;1,49;0;0;
1995;-15,7;-28,37;-16,54;-35,12;1,7;1,37;1,39;1,22;0;0;
2015;-16,4;-25,42;-17,81;-37,56;1,93;1,52;1,32;1,29;0;0;
2032;-17,19;-27,45;-18,11;-38,6;2,04;1,55;1,23;1,3;0;0;
2052;-19,84;-27,2;-15,66;-35,61;2,04;1,68;1,21;1,19;0;0;
2070;-16,67;-22,8;-17,43;-36,94;1,92;1,78;1,2;1,23;0;0;
2090;-17,11;-26,06;-13,82;-32,89;1,88;1,71;1,32;1,16;0;0;
2108;-16,44;-22,3;-15,96;-34,73;1,86;1,71;1,46;1,23;0;0;
2126;-21,12;-24,93;-16,47;-36,09;1,78;1,77;1,47;1,18;0;0;
2144;-24,1;-24,95;-16,82;-36,95;1,93;1,66;1,52;1,26;0;0;
2161;-15,81;-24,14;-15,04;-32,35;2,02;1,81;1,54;1,3;0;0;
2179;-15,81;-24,14;-15,04;-32,35;2,22;1,88;1,57;1,28;0;0;
2199;-20,98;-26,38;-16,41;-37,61;2,57;2,02;1,54;1,38;0;0;
2218;-15,91;-27,29;-16,99;-38,04;2,61;2,13;1,48;1,28;0;0;
2235;-19,49;-25,53;-15,73;-34,74;2,62;2,04;1,56;1,38;0;0;
2254;-14,86;-27,18;-14,57;-37,91;2,33;1,97;1,44;1,32;0;0;
2275;-17,97;-23,88;-16,87;-34,88;2,22;1,85;1,32;1,23;0;0;
2294;-17,66;-25,23;-15,92;-40;2,27;1,78;1,23;1,33;0;0;
2314;-17,36;-22,54;-14,59;-38,22;2,16;1,85;1,12;1,36;0;0;
2330;-17,59;-26,91;-13,28;-36,4;2,06;1,94;1,16;1,45;0;0;
2350;-13,67;-22,52;-18,5;-35,26;2,08;1,99;1,16;1,47;0;0;
2368;-15,88;-25,87;-17,19;-38,43;2,11;2,06;1,23;1,46;0;0;
2387;-17,96;-23,03;-16,82;-32,92;2,09;2,07;1,18;1,61;0;0;
2404;-16,94;-26,03;-17,24;-39,17;2,04;2;1,19;1,54;0;0;
2424;-20,21;-22,89;-17,08;-33,91;2,05;1,77;1,21;1,55;0;0;
2443;-15,19;-24,5;-14,08;-34,43;1,99;1,74;1,22;1,46;0;0;
2460;-15,19;-24,5;-14,08;-34,43;1,94;1,68;1,27;1,54;0;0;
2479;-17,51;-20,64;-12,29;-37,33;1,99;1,88;1,32;1,48;0;0;
2499;-19,15;-27,81;-14,92;-37,07;2,09;1,7;1,32;1,43;0;0;
2516;-12,83;-26,96;-16,83;-35,43;2,16;1,63;1,39;1,34;0;0;
2533;-15,7;-28,17;-16,95;-32,55;2,06;1,61;1,3;1,35;0;0;
2551;-17,17;-25,71;-15,13;-37,39;2,36;1,63;1,17;1,3;0;0;
2568;-19,71;-26,04;-17,25;-36,95;2,17;1,49;0,99;1,25;0;0;
2586;-18,53;-26,46;-20,3;-37,56;2,1;1,5;0,97;1,2;0;0;
2604;-12,75;-27,18;-18,05;-35,12;2,19;1,58;0,99;1,23;0;0;
2621;-18,01;-26,89;-16,69;-35,96;2,34;1,59;1,01;1,07;0;0;
2641;-18,5;-29,53;-15,35;-34,53;2,05;1,66;1,11;0,99;0;0;
2659;-18,5;-29,53;-15,35;-34,53;2,1;1,69;1,13;0,97;0;0;
2677;-19,41;-25,71;-16,85;-34,89;2,46;1,76;1,36;1,03;0;0;
2697;-20,89;-28,19;-18,15;-35,59;2,61;1,82;1,43;1,01;0;0;
2716;-19,18;-25,35;-14,25;-36,59;2,52;1,76;1,6;1,02;0;0;
2734;-17,07;-26,61;-17,86;-37,67;2,65;1,99;1,61;1,05;0;0;
2753;-14,46;-28,36;-15,23;-37,21;2,6;1,91;1,63;1,15;0;0;
2776;-19,31;-25,64;-17,48;-37,56;2,64;1,8;1,67;1,21;0;0;
2794;-17,17;-25,73;-18,22;-38,28;2,46;1,88;1,5;1,33;0;0;
2811;-16,81;-27,56;-20,79;-38,08;2,76;1,69;1,46;1,4;0;0;
2831;-21,94;-25,02;-17,09;-35,41;2,47;1,49;1,47;1,49;0;0;
2848;-11,35;-26,65;-17,06;-36,15;2,58;1,52;1,39;1,5;0;0;
2866;-16,95;-24,49;-15,83;-36,57;2,52;1,55;1,57;1,57;0;0;
2885;-18,86;-26,05;-16,33;-36,78;2,6;1,62;1,48;1,53;0;0;
2904;-13,49;-25,53;-17,08;-34,08;2,49;1,56;1,47;1,87;0;0;
2921;-13,12;-29,18;-16,41;-41,93;2,45;1,66;1,3;2,03;0;0;
2939;-13,12;-29,18;-16,41;-41,93;2,4;1,7;1,28;2,31;0;0;
2959;-18,78;-26,19;-12,63;-34,26;2,42;1,61;1,36;2,45;0;0;
2980;-20,17;-28,64;-18,07;-37,74;2,49;1,51;1,46;2,57;0;0;
3000;-21,82;-25,7;-15,82;-34,61;2,29;1,49;1,58;2,42;0;0;
3019;-15,46;-27,37;-14,38;-34,8;2,29;1,47;1,54;2,21;0;0;
3036;-18,6;-21,41;-17,99;-38,79;2,26;1,48;1,58;2,06;0;0;
3055;-15,94;-23,14;-15,6;-35,46;2,02;1,42;1,63;1,72;0;0;
3075;-15,64;-24,89;-16,64;-35,09;1,73;1,56;1,46;1,6;0;0;
3095;-23,07;-24,87;-14,87;-37,71;1,85;1,63;1,48;1,47;0;0;
3114;-17,58;-26,21;-18,69;-35,74;1,82;1,67;1,36;1,41;0;0;
3132;-12,14;-24,98;-16,89;-35,92;1,8;1,69;1,35;1,43;0;0;
3153;-18,91;-27,4;-15,78;-35,26;2,08;1,61;1,41;1,44;0;0;
3170;-15,63;-23,8;-17,52;-37,68;2,2;1,54;1,4;1,3;0;0;
3189;-17,72;-24,13;-17,63;-35,96;2,05;1,57;1,47;1,3;0;0;
3208;-17,42;-22,54;-15,79;-35,3;2,03;1,54;1,58;1,25;0;0;
3227;-11,76;-26,69;-14,03;-35,24;2,1;1,46;1,56;1,19;0;0;
3245;-15,53;-25,36;-17,01;-37,92;1,82;1,37;1,56;1,1;0;0;
3263;-15,63;-22,15;-14,61;-38,04;1,88;1,48;1,5;1,28;0;0;
3283;-17,68;-26,57;-14,57;-37,2;1,88;1,36;1,46;1,28;0;0;
3301;-19,54;-24,53;-15,02;-36,03;1,91;1,43;1,35;1,31;0;0;
3318;-19,54;-24,53;-15,02;-36,03;1,8;1,56;1,3;1,33;0;0;
3335;-16,51;-24,36;-16,15;-34,4;1,78;1,7;1,26;1,35;0;0;
3357;-20,94;-23,62;-16,39;-35,48;1,83;1,92;1,12;1,4;0;0;
3376;-16,52;-27,65;-11,8;-35,92;1,9;1,76;1,27;1,41;0;0;
3393;-23,07;-25,85;-18,7;-35,6;2,01;1,97;1,48;1,41;0;0;
3412;-16,32;-26,43;-15,99;-31,55;2,19;1,82;1,64;1,62;0;0;
3432;-18,78;-26,42;-10,34;-32,44;2,12;1,63;1,95;1,8;0;0;
3453;-18,59;-26,46;-18,6;-37,95;2,11;1,55;2,08;1,94;0;0;
3471;-19,1;-28,35;-17,15;-36,47;2,11;1,65;2,03;1,87;0;0;
3491;-15,34;-26,47;-12,85;-37,21;2,16;1,67;2,19;1,92;0;0;
3509;-15,43;-28,72;-12,19;-39,4;1,98;1,46;2,09;2,09;0;0;
3526;-18,64;-27,7;-20,57;-36,72;1,88;1,45;2,04;1,98;0;0;
3545;-15,47;-27,64;-18,15;-35,89;1,89;1,5;1,88;1,58;0;0;
3563;-19,44;-23,51;-19,05;-34,23;1,87;1,5;2;1,54;0;0;
3581;-15,76;-23,34;-13,22;-36,41;1,79;1,44;2;1,63;0;0;
3600;-15,76;-23,34;-13,22;-36,41;1,68;1,45;2;1,69;0;0;
3619;-17,96;-28,19;-16,46;-35,87;1,62;1,56;1,92;1,63;0;0;
3637;-19,18;-24,96;-17,9;-35,95;1,74;1,78;1,86;1,51;0;0;
3655;-15,4;-25,64;-14,74;-35,62;1,63;1,88;1,82;1,48;0;0;
3675;-20,49;-24,11;-15,34;-38,85;1,62;1,7;1,91;1,51;0;0;
3695;-18,94;-25,72;-15,21;-33,71;1,74;1,86;1,77;1,35;0;0;
3713;-18,94;-25,72;-15,21;-33,71;1,84;2,03;1,5;1,25;0;0;
3733;-15,68;-26,22;-16,72;-36,26;1,89;1,96;1,4;1,17;0;0;
3754;-21,08;-23,55;-14,44;-34,57;2;1,69;1,39;1,15;0;0;
3774;-17,43;-23,88;-17,01;-33,4;2,03;1,78;1,28;1,19;0;0;
3795;-18,88;-24,84;-14,07;-38,93;2,03;1,58;1,15;1,25;0;0;
3813;-17,45;-25,6;-19,8;-35,8;1,91;1,39;1,13;1,33;0;0;
3830;-19,25;-28,35;-16,64;-35,54;1,9;1,39;1,21;1,31;0;0;
3850;-17,43;-26,34;-17,82;-37,59;1,78;1,45;1,28;1,31;0;0;
3870;-17,46;-24,88;-15,71;-35,28;1,94;1,44;1,3;1,32;0;0;
3889;-20,35;-27,19;-16,94;-31,58;1,85;1,29;1,32;1,53;0;0;
3907;-19,07;-25,52;-15,28;-33,26;1,86;1,23;1,35;1,54;0;0;
3926;-18,76;-29,02;-16,46;-35,62;2,05;1,23;1,33;1,49;0;0;
3945;-17,9;-26,69;-15,43;-31,92;2,6;1,31;1,33;1,57;0;0;
3966;-8,52;-27,7;-16,76;-36,94;2,66;1,25;1,38;1,58;0;0;
3985;-14,73;-26,65;-17,36;-35,42;2,77;1,41;1,55;1,62;0;0;
4003;-16,46;-26,85;-15,3;-35,97;2,84;1,44;1,73;1,64;0;0;
4021;-17,65;-28,15;-17,49;-36,77;2,78;1,48;1,73;1,68;0;0;
4039;-17,65;-28,15;-17,49;-36,77;2,75;1,3;1,67;1,78;0;0;
4059;-17,96;-26,82;-18,98;-36,93;2,24;1,21;1,66;1,71;0;0;
4078;-18,93;-26,09;-16,64;-39,17;2,29;1,16;1,67;1,7;0;0;
4097;-17,49;-27,77;-17,25;-34,41;2,53;1,18;1,64;1,74;0;0;
4115;-16,8;-24,19;-13,77;-36,25;2,8;1,19;1,5;1,64;0;0;
4133;-17,85;-23,42;-15,31;-34,12;2,62;1,31;1,42;1,62;0;0;
4152;-20,59;-23,79;-19,16;-35,22;2,4;1,56;1,51;1,6;0;0;
4169;-17,82;-26,08;-17,19;-35,26;2,49;1,58;1,56;1,48;0;0;
4187;-12,5;-28,25;-18,19;-36,23;2,41;1,53;1,49;1,43;0;0;
4208;-20,71;-26,67;-20,41;-38,1;2;1,55;1,44;1,33;0;0;
4228;-11,9;-25,82;-13,44;-36,95;2,23;1,62;1,43;1,31;0;0;
4245;-12,37;-26,83;-13,58;-38,45;2,38;1,42;1,52;1,31;0;0;
4263;-16,97;-27,38;-16,16;-33,63;2,3;1,41;1,37;1,29;0;0;
4285;-21,06;-26,91;-15,68;-35,44;2,18;1,48;1,47;1,33;0;0;
4304;-14,84;-28,41;-18,22;-37,21;2,18;1,36;1,47;1,45;0;0;
4324;-17,45;-25,36;-13,27;-35,25;2,36;1,52;1,47;1,37;0;0;
4343;-17,84;-24,68;-17,39;-35,23;2,08;1,47;1,47;1,3;0;0;
4362;-18,16;-28,98;-15,83;-35,24;2,16;1,44;1,4;1,26;0;0;
4381;-18,65;-24,01;-16,59;-37,56;2,33;1,42;1,38;1,29;0;0;
4399;-18,65;-24,01;-16,59;-37,56;2,32;1,39;1,47;1,38;0;0;
4418;-19,83;-27,7;-16,28;-34,64;2,36;1,32;1,36;1,39;0;0;
4436;-12,77;-27,47;-18,53;-37,57;2,36;1,38;1,35;1,3;0;0;
4454;-15,44;-27,22;-17,45;-35,35;2,49;1,47;1,44;1,39;0;0;
4474;-20,64;-27,19;-15,24;-36,56;2,27;1,51;1,38;1,44;0;0;
4494;-20,35;-32,54;-16,83;-35,34;2,33;1,62;1,36;1,39;0;0;
4517;-18,37;-29,58;-18,51;-34,51;2,21;1,91;1,33;1,44;0;0;
4535;-15,39;-23,76;-15,45;-37,93;2,04;2,04;1,38;1,47;0;0;
4554;-14,41;-24,3;-16,34;-35,6;2,14;1,99;1,27;1,51;0;0;
4575;-15,05;-27,55;-14,29;-37,13;2,35;1,9;1,23;1,38;0;0;
4596;-13,99;-22,65;-17,89;-33,59;2,2;2,15;1,17;1,35;0;0;
4616;-20,03;-27,69;-15,26;-37,2;2,28;2,09;1,08;1,35;0;0;
4634;-18,56;-24,49;-15,24;-36,09;2,51;1,77;1,06;1,32;0;0;
4652;-12,28;-25,83;-20,77;-34,74;2,52;1,59;1,31;1,14;0;0;
4671;-21,57;-27,35;-17,08;-40,46;2,51;1,58;1,61;1,17;0;0;
4692;-14,33;-24;-15,91;-36,46;2,72;1,46;1,67;1,12;0;0;
4712;-13,24;-25,83;-16,52;-37,26;2,79;1,21;1,87;1,04;0;0;
4730;-12,44;-26,88;-17,26;-35,07;3,09;1,31;2;0,87;0;0;
4750;-17,82;-24,5;-16,8;-36,63;3,04;1,33;1,94;1;0;0;
4768;-17,47;-28,53;-16,38;-38,31;2,83;1,42;1,75;1,08;0;0;
4787;-21,18;-26,48;-16,02;-35,74;2,75;1,38;1,83;1,14;0;0;
4806;-19,57;-27,2;-17,63;-35,26;2,63;1,37;1,63;1,26;0;0;
4826;-13,38;-32,95;-15,34;-36,24;2,36;1,65;1,62;1,28;0;0;
4848;-22,81;-25,6;-16,02;-35,59;2,8;1,8;1,6;1,28;0;0;
4865;-17,07;-26,42;-16,7;-33,12;2,82;1,74;1,61;1,23;0;0;
4885;-19,5;-26,63;-17,78;-36,47;3,02;1,82;1,48;1,11;0;0;
4903;-14,24;-29,38;-16,03;-36,21;3,01;1,91;1,38;1,18;0;0;
4920;-14,24;-29,38;-16,03;-36,21;2,73;1,8;1,29;1,27;0;0;
4938;-15,2;-28,16;-13,75;-38,92;2,49;1,59;1,28;1,34;0;0;
4957;-19,42;-25,11;-19,22;-33,21;1,89;1,56;1,33;1,55;0;0;
4976;-12,25;-29,84;-17,77;-33,87;1,86;1,74;1,24;1,66;0;0;
4996;-15,15;-28,66;-17,71;-38,55;1,95;1,65;1,31;1,73;0;0;
5018;-15,78;-28,26;-15,81;-36,78;2,12;1,68;1,29;1,67;0;0;
5036;-15,91;-28,33;-13,76;-33,41;2,11;1,62;1,25;1,61;0;0;
5055;-15,56;-25,64;-17,88;-34,76;2,44;1,69;1,17;1,55;0;0;
5074;-11,79;-23,16;-17,49;-34,88;2,56;1,63;1,06;1,42;0;0;
5093;-19,24;-25,37;-16,5;-36,42;2,55;1,43;1,07;1,38;0;0;
5111;-18,92;-25,23;-15,2;-36,33;2,66;1,64;1,16;1,34;0;0;
5129;-18,12;-27,29;-16,16;-39,08;2,67;1,71;1,1;1,4;0;0;
5146;-17,07;-24,5;-17,44;-35,98;2,78;1,9;1,02;1,33;0;0;
5165;-16,18;-26,43;-15,65;-35,49;2,67;1,93;1,07;1,21;0;0;
5183;-18,04;-27,32;-16,5;-36,11;2,46;1,92;1,11;1,14;0;0;
5200;-18,04;-27,32;-16,5;-36,11;2,33;1,8;1,07;1,16;0;0;
5219;-10,59;-22,78;-17,69;-36,09;2,2;1,63;1,14;1,1;0;0;
5237;-10,12;-23,51;-13,47;-35,97;2,67;1,92;1,31;1,09;0;0;
5255;-22,58;-28,64;-17,07;-36,19;2,94;1,8;1,38;1,13;0;0;
5273;-17,13;-26,94;-18,26;-38,43;3,44;1,81;1,36;1,31;0;0;
5292;-15,81;-27,91;-17,73;-34,43;3,36;1,88;1,52;1,43;0;0;
5311;-14,69;-25,17;-16,32;-35,86;3,81;2,09;1,53;1,52;0;0;
5328;-13,73;-22,54;-14,74;-36,56;3,62;1,93;1,48;1,53;0;0;
5346;-28;-27,66;-18,97;-33,55;3,33;1,75;1,54;1,48;0;0;
5365;-13,45;-26,44;-17,92;-35,24;3,24;1,62;1,47;1,46;0;1;
5385;-12,53;-23,03;-16,29;-34,33;3,57;1,75;1,46;1,43;0;1;
5403;-24,75;-9,57;-17,85;-38,44;4,71;2,26;1,27;1,44;0;1;
5422;-24,26;-28,85;-19,3;-38,65;5,01;4,78;1,95;1,86;0;1;
5441;-22,8;-31,56;-15,52;-29,31;7,87;9,49;3,05;2,44;0;1;
5459;-22,8;-31,56;-15,52;-29,31;10,37;14,06;4,29;3,07;0;1;
5478;-16,5;82,66;-50,57;-65,34;15,86;32,43;6,68;4,8;0;1;
5500;-17,14;-46,12;-21,08;-54,71;19,83;45,09;8,88;6,25;0;1;
5520;-7,57;-82,94;-17,46;-30,84;20,62;61,37;8,95;8,86;0;1;
5540;15,99;-199,95;-39,07;-33,18;24,39;72,98;13,21;22,12;0;1;
5564;9,61;-149,18;-58,11;-220,96;25,71;96,15;16,74;39,24;0;0;
5585;-109,71;84,21;-36,6;-4,95;26,34;104,02;22,19;52,83;0;0;
5606;-29,3;-24,45;10,31;-154,67;22,43;89,63;25,08;63,03;0;0;
5625;6,56;-32,15;-44,89;-60,84;19,66;92,81;25,62;68,61;0;0;
5645;-17,84;21,97;-15,06;-50,34;18,69;85,48;26,88;66,76;0;0;
5666;-11,01;55,62;-62,16;-55,33;20,22;76,77;24,96;53,43;0;0;
5689;-2,93;-23,51;7,66;-28,9;17,96;56,93;22,15;41,37;0;0;
5711;-4,91;-45,93;8,53;-21,77;15,63;43,32;16,98;26,11;0;0;
5730;-26,61;-17,59;-11,75;-35,75;14,53;39,43;14,28;14,15;0;0;
5749;-21,4;-34,52;-4,9;-41,51;12,56;27,93;13,43;9,56;0;0;
5767;-18,86;-22,79;-32,64;-40,3;11,62;19,26;10,89;5,66;0;0;
5786;-18,19;-25,72;-13,6;-35,61;7,67;11,74;10,25;4,16;0;0;
5804;-22,13;-25,58;-18,4;-34,29;7,68;11,2;8,52;3,55;0;0;
5824;-10,54;-25,21;-16,35;-39,04;6,43;8,95;6,45;2,85;0;0;
5841;-10,54;-25,21;-16,35;-39,04;6,05;3,11;5,25;2,57;0;0;
5860;-18,83;-24,13;5,01;-29,87;7,32;1,88;5,02;2,29;0;0;
5879;-22,89;-25,47;-20,68;-46,01;7,29;1,82;4,13;2,25;0;0;
5899;-19,16;-23,63;-13,24;-40,6;6,78;1,8;2,95;2,32;0;0;
5918;-27,66;-25,34;-12,59;-31,63;6,47;1,76;3,83;2,8;0;0;
5937;-4,76;-26,49;-9,73;-33,36;7,66;1,76;4,76;3,62;0;0;
5957;14,31;-21,9;-21,18;-40,84;8,32;1,85;4,85;3,79;0;0;
5978;-46,88;-32,17;-14,94;-32,9;13,72;2,08;4,29;3,79;0;0;
5997;-22,37;-28,17;-17,09;-36,61;17,14;2,38;3,9;3,22;0;0;
6018;-11,03;-24,24;-19,18;-34,27;18,07;2,42;3,37;2,86;0;0;
6037;-29,5;-28,59;-18,92;-40,12;18,63;2,34;2,62;2,77;0;0;
6057;-33,35;-26,57;-15,27;-36,44;18,83;2,2;1,77;2,04;0;0;
6077;-15,78;-27,78;-12,29;-35,45;15,5;1,93;1,68;1,62;0;0;
6094;-29,68;-24,87;-15,88;-35,6;9,52;1,8;1,86;1,48;0;0;
6115;-27,11;-29,59;-16,86;-38,3;8,3;1,71;1,83;1,55;0;0;
6136;-17,93;-28,46;-13,59;-36,92;8,46;1,78;1,91;1,36;0;0;
6154;-19,59;-26,16;-20,99;-35,05;6,45;1,98;1,82;1,18;0;0;
6172;-11,89;-26,82;-17,9;-37,57;7;2,19;1,74;1,23;0;0;
6190;-18,61;-28,15;-20,45;-34,87;7,21;2,27;1,57;1,29;0;0;
6209;-7,29;-27,08;-15,84;-36,75;7,91;2,22;1,53;1,39;0;0;
6227;-16,17;-25,19;-19,33;-33,56;6,37;2,17;1,53;1,58;0;0;
6251;-19,75;-25,35;-20,8;-37,93;6,41;2,08;1,41;1,63;0;0;
6269;-10,02;-23,99;-16,87;-34,56;7,24;1,94;1,32;1,52;0;0;
6288;-15,64;-25,96;-16;-35,73;6,88;1,79;1,4;1,5;0;0;
6307;-27,36;-23,75;-14,8;-36,6;6,21;1,69;1,26;1,57;0;0;
6324;-22,33;-28,55;-15,38;-33,81;6,89;1,69;1,43;1,54;0;0;
6345;-10,95;-24,88;-19,82;-34,25;7;1,65;1,5;1,39;0;0;
6363;-1,98;-24,86;-18,29;-34,64;6,47;1,57;1,55;1,46;0;0;
6383;-30,67;-26,66;-17,38;-37,94;6,45;1,64;1,48;1,55;0;0;
6400;-30,67;-26,66;-17,38;-37,94;7,03;1,72;1,47;1,54;0;0;
6419;-14,92;-26,19;-13,41;-36,92;6,48;1,64;1,54;1,6;0;0;
6439;-15,79;-24,24;-17,02;-35,97;6,17;1,62;1,48;1,6;0;0;
6457;-15,79;-24,24;-17,02;-35,97;5,91;1,52;1,36;1,53;0;0;
6476;-22,06;-26,21;-14,4;-38,19;5,45;1,39;1,39;1,51;0;0;
6493;-11,09;-30,74;-17,37;-35,61;3,87;1,23;1,61;1,43;0;0;
6511;-12,71;-25,47;-14,04;-37,77;3,84;1,35;1,58;1,32;0;0;
6530;-16,34;-24,49;-15,86;-38,78;3,97;1,44;1,53;1,35;0;0;
6548;-13,23;-28,55;-15,59;-33,78;3,78;1,55;1,44;1,57;0;0;
6568;-37,7;-26,08;-17,93;-35,1;6,22;1,66;1,34;1,42;0;0;
6590;-11,19;-24,74;-17,86;-33,43;6,15;1,76;1,27;1,57;0;0;
6608;-6,37;-25,4;-15,02;-35,99;6,75;1,81;1,19;1,61;0;0;
6627;-16,52;-27,66;-15,54;-38,06;5,93;1,79;1,16;1,51;0;0;
6646;-15,24;-27,92;-18,64;-34,52;6,35;1,79;1,27;1,37;0;0;
6665;-17,18;-25,35;-14,92;-36,44;6,29;1,67;1,25;1,42;0;0;
6686;-11,47;-23,68;-17,17;-34,76;3,97;1,52;1,25;1,35;0;0;
6706;-10,14;-26,2;-13,94;-36,24;3,75;1,47;1,22;1,32;0;0;
6726;-14,9;-23,89;-12,49;-35,96;2,86;1,44;1,29;1,32;0;0;
6746;-15,16;-28,89;-18,38;-36,33;3,12;1,44;1,33;1,3;0;0;
6765;-18,12;-28,79;-17,86;-35,37;3,52;1,65;1,34;1,25;0;0;
6789;-15,21;-23,51;-14,36;-37,07;3,73;1,75;1,36;1,14;0;0;
6808;-18,8;-26,2;-18,98;-36,97;3,56;1,77;1,44;1,22;0;0;
6829;-16,37;-24,51;-14,73;-32,94;3,68;1,77;1,4;1,33;0;0;
6849;-17,73;-25,03;-13,22;-37,69;3,8;1,85;1,44;1,48;0;0;
6867;-20,13;-26,29;-19,02;-34,97;2,92;3,15;1,39;1,53;0;0;
6886;-16,61;-32,61;-16,45;-33,61;2,75;4,69;1,35;1,56;0;0;
6906;-17,16;-24,88;-14,65;-34,02;2,45;4,9;1,46;1,56;0;0;
6925;-12,92;-25,6;-17,08;-38,27;2,42;4,97;1,41;1,38;0;0;
6944;-16,25;-24,68;-19,29;-36,85;2,45;4,64;1,34;1,34;0;0;
6964;-13,73;-28,84;-17,83;-37,14;2,71;2,5;1,6;1,24;0;0;
6982;-13,73;-28,84;-17,83;-37,14;2,76;2,03;1,8;1,18;0;0;
7001;-19,09;-31,45;-14,65;-37,58;2,67;2,11;1,57;1,17;0;0;
7022;-16,64;-30,02;-15,52;-37,74;2,76;1,98;1,64;1,29;0;0;
7041;-14,89;-25,43;-20,57;-35,41;2,9;1,91;1,68;1,18;0;0;
7059;-14,89;-25,43;-20,57;-35,41;3,06;1,77;1,6;1,18;0;0;
7079;-13,88;-27,53;-18,46;-35,61;3,04;1,71;1,47;1,28;0;0;
7097;-20,45;-25,65;-14,45;-35,86;3,02;1,67;1,62;1,23;0;0;
7116;-16,82;-25,11;-15,98;-37,55;2,95;1,75;1,64;1,17;0;0;
7138;-19,33;-23,16;-18,82;-34,26;2,68;1,89;1,7;1,25;0;0;
7158;-22,79;-28,92;-17,24;-35,62;2,58;1,9;1,65;1,3;0;0;
7176;-14,96;-25,73;-18,63;-36,42;2,4;1,88;1,54;1,24;0;0;
7193;-18,58;-24,76;-17,97;-36,16;2,45;1,97;1,48;1,28;0;0;
7211;-18,26;-28,67;-16,75;-35,97;2,43;1,95;1,36;1,25;0;0;
7230;-17,13;-28;-18,23;-36,85;2,44;2,05;1,23;1,15;0;0;
7249;-25,46;-25,07;-17,08;-36,46;2,8;1,74;1,34;0,99;0;0;
7268;-23,71;-29,13;-13,18;-35,97;2,82;1,89;1,46;1,03;0;0;
7288;-20,56;-29,12;-20,13;-33,28;2,7;2,33;1,48;0,89;0;0;
7307;-18,15;-32,84;-15,66;-33,72;2,69;2,35;1,36;1,05;0;0;
7326;-17,8;-27,21;-14,32;-39,15;2,73;2,26;1,57;1,23;0;0;
7346;-16,36;-26,98;-17,92;-37,58;2,69;2,28;1,66;1,21;0;0;
7366;-13,87;-24,51;-19,39;-36,59;2,28;2,13;1,64;1,17;0;0;
7386;-19,56;-29,16;-15,98;-37,38;2,22;1,67;1,6;1,32;0;0;
7405;-16,06;-25,84;-14,92;-35,59;2,25;1,56;1,65;1,19;0;0;
7425;-17,08;-29,05;-13,51;-33,68;1,88;1,42;1,71;1,26;0;0;
7446;-11,94;-27,18;-14,72;-40,68;1,88;1,44;2,01;1,24;0;0;
7463;-17,26;-24,48;-18,04;-37,56;1,96;1,42;1,99;1,31;0;0;
7483;-13,95;-26,4;-14,62;-35,6;2,03;1,46;2,1;1,3;0;0;
7501;-17,77;-28,92;-15,92;-36,14;2,01;1,4;2,17;1,28;0;0;
7522;-19,39;-27,33;-16,4;-36,95;2,04;1,35;2,16;1,4;0;0;
7541;-21,95;-26,01;-14,69;-35,37;2,33;1,31;2,03;1,41;0;0;
7561;-15,19;-28,6;-16,58;-38,03;2,36;1,42;2,07;1,45;0;0;
7579;-15,19;-28,6;-16,58;-38,03;2,27;1,57;2,08;1,36;0;0;
7599;-19,08;-26,44;-15,92;-34,89;2,15;1,46;2,07;1,42;0;0;
7619;-15,12;-26,45;-16,34;-33,76;2,46;1,39;1,92;1,46;0;0;
7641;-12,76;-24,86;-14,4;-36,95;2,36;1,46;1,86;1,46;0;0;
7659;-12,76;-24,86;-14,4;-36,95;2,17;1,59;1,71;1,46;0;0;
7680;-18,76;-27,31;-16,64;-35,91;2,44;1,39;1,55;1,46;0;0;
7699;-17,31;-22,61;-15,22;-36,94;2,31;1,38;1,37;1,46;0;0;
7718;-22,93;-26,93;-15,59;-35,8;2,18;1,4;1,21;1,52;0;0;
7738;-17,89;-25,12;-14,74;-38,19;2,37;1,63;1,35;1,54;0;0;
7758;-21,94;-28,39;-14,12;-34,26;2,58;1,69;1,57;1,51;0;0;
7778;-8,36;-27,71;-16,26;-31,66;2,69;1,77;1,64;1,65;0;0;
7797;-16,23;-25,24;-18,69;-39,51;4,61;1,89;1,91;1,76;0;1;
7816;-17,59;-27,92;-20,25;-32,59;4,81;1,76;1,99;1,82;0;1;
7836;-15,67;-23,14;-18,97;-36,04;4,44;1,82;1,92;1,66;0;1;
7855;-8,22;-27,34;-18,69;-37,94;5,04;1,62;2,09;1,65;0;1;
7874;-13,97;-27,1;-10,75;-38,13;5,11;1,65;2,39;1,76;0;1;
7894;-18,38;-23,86;-24,26;-38,3;3,47;1,62;2,47;1,63;0;1;
7912;-2,37;-23,63;-11,86;-29,26;3,37;1,58;3,42;2,75;0;1;
7932;-25,88;-31,41;-8,49;-95,12;4,23;1,74;5,31;4,76;0;1;
7950;-13,22;-22,02;0,66;35,62;5,47;1,98;8,69;14,78;0;1;
7969;-9,04;-22,68;-66,63;-108,45;5,44;2,12;13,9;23,94;0;1;
7992;-15,34;3,99;-36,43;37,12;6,34;4,77;18,91;31,75;0;1;
8012;21,92;-59,07;-67,37;-6,04;7,98;21,54;23,58;36,92;0;0;
8032;29,64;-146,45;-22,83;-14,95;12,19;35,32;26,59;42,43;0;0;
8054;10,17;-242,77;-56,57;-31,85;18,11;70,45;27,35;42,49;0;0;
8075;49,67;-2,39;-13,39;-37,7;24,2;96,61;24,22;32,1;0;0;
8096;-25,98;-210,89;-2,58;-35,34;28,97;110,01;20,06;26,51;0;0;
8115;-43,72;72,6;-17,31;-28,81;30,1;122,78;16,82;21,36;0;0;
8135;-22,32;91,67;-12,27;-37,71;28,49;133,8;13,31;16,88;0;0;
8156;25,95;-125,8;-23,1;-37,44;26,93;124,75;9,72;10,94;0;0;
8179;-40,55;-34,83;-25,21;-38,72;22,19;99,14;7,06;7,19;0;0;
8199;-26,56;-64,5;-17,54;-38,11;16,45;98,41;5,33;4,63;0;0;
8218;-37,53;-44,08;-16,23;-38,89;16,01;76,13;4,8;4,14;0;0;
8236;-7,79;-20,86;-15,41;-36,61;13,47;54,5;4,57;3,68;0;0;
8253;-27,26;-92,59;-15,14;-35,61;12,6;39;3,05;2,32;0;0;
8271;-8,62;-37,05;-14,57;-35,89;11,1;31,62;2,16;1,87;0;0;
8291;-5,06;-22,56;-20,48;-39;8,8;22,26;1,92;1,81;0;0;
8310;0,56;-25,29;-16,33;-35,07;9,06;15,38;2,01;1,82;0;0;
8328;26,31;-17,18;-21,11;-39,98;13,03;15,34;1,77;1,9;0;0;
8348;-12;-26,5;-17,27;-33,95;13,19;15,35;1,74;1,9;0;0;
8367;-18,38;-31,07;-18;-33,95;11,07;10,47;1,76;1,92;0;0;
8386;-19,51;-27,8;-17,86;-38,04;11,34;5,53;1,69;1,86;0;0;
8405;-20,36;-25,17;-15,93;-31,65;10,9;5,15;1,77;2,01;0;0;
8425;-7,36;-50,47;-14,33;-38,93;8,59;12,39;1,57;2,02;0;0;
8446;-7,65;-6,53;-21,84;-35,62;5,03;13,54;1,54;2,14;0;0;
8465;-21,81;-14,65;-15,35;-36,9;4,59;16,51;1,78;2,14;0;0;
8483;-16,93;-65,81;-16,26;-35,33;5,14;18,8;1,78;2,19;0;0;
8500;-16,93;-65,81;-16,26;-35,33;5,53;21,23;1,78;2,17;0;0;
8520;-14,61;-61,09;-18,09;-37,07;5,45;21,21;1,63;2,02;0;0;
8542;-13,26;-24,66;-17,74;-39,28;5,03;17,45;2,01;1,75;1;0;
8562;-13,69;-27,75;-19,16;-18,15;5,16;16,24;3,4;2,99;1;0;
8580;-13,69;-27,75;-19,16;-18,15;5,17;15,11;5,01;4,32;1;0;
8599;-16,94;-51,33;-23,58;-58,08;5,15;16,13;9,21;6,9;1;0;
8617;-18,16;-12,28;-15,77;-39,8;4,89;14,85;12,08;9,68;1;0;
8638;-19,2;-17,35;-15,74;-23,95;4,45;13,43;13,55;11,67;1;0;
8658;-13,06;-75,46;-65,41;-67,23;4,28;15,45;17,53;14,22;1;0;
8675;-14,89;-15,16;-1,94;-17,27;4,2;16,32;20,34;18,24;1;0;
8693;-19,85;-31,4;-61,56;-34,15;3,95;14,9;23,77;20,39;1;0;
8714;-16,45;-7,27;8,49;-16,97;3,5;13,61;24,31;19,97;0;0;
8734;-13,97;-39,28;-19,01;-40,07;3,87;17,72;27,1;19,82;0;0;
8755;6,77;-9,68;-10,61;-27,81;4,49;16;27,38;20,34;0;0;
8774;9,44;-11,98;-39,22;-23,46;9,27;13,48;27,08;19,09;0;0;
8793;64,28;-35,73;-28,48;-39,2;27,6;13,71;24,86;15,94;0;0;
8815;-32,43;-27,45;-26,19;-39,36;37,02;13,66;18,9;15,45;0;0;
8833;-94,61;-25,24;-12,06;-34;43,78;10,18;16,63;16,62;0;0;
8851;119,58;-1,82;-19,24;-7,36;67,98;10,93;13,36;15,47;0;0;
8871;-17,56;-18,21;-10,49;-32,08;86,59;10,74;12,48;14,02;0;0;
8893;11,95;-1,72;-21,31;-36,95;89,87;10,14;10,59;12,82;0;0;
8911;-8,12;-30,86;-21,32;-38,05;91,73;10,51;10,01;11,67;0;0;
8931;-31,17;-21,32;-10,91;-24,37;101,15;10,33;8,97;9,03;0;0;
8954;-22,15;-37,19;-10,35;-31,55;92,61;7,65;7,29;6,99;0;0;
8975;-15,1;-26,8;-9,6;-37,2;70,52;6,56;6,61;5,94;0;0;
8992;-21,7;-28,24;-14,57;-34,78;60,25;5,8;5,46;4,62;0;0;
9010;-7,14;-20,47;-14,29;-31,56;48,76;4,5;3,02;3,34;0;0;
9029;-29,2;-31,87;-14,51;-34,52;33,85;3,03;2,28;2,88;0;0;
9047;-51,62;-22,81;-17,15;-35,5;25,62;2,99;2,29;2,62;0;0;
9066;-19;-28,18;-12,63;-40,89;16,91;2,37;2,06;2,67;0;0;
9086;-17,79;-25,23;-17,88;-36,21;13,28;2,45;2,02;2,49;0;0;
9104;-17,55;-26,38;-18,23;-40,74;10,14;2,23;2,19;2,27;0;0;
9122;-19,4;-23,39;-17,74;-35,96;6,27;2,02;2,01;1,86;0;0;
9141;-20,84;-29,64;-18,42;-38,73;3,19;1,77;2,28;2,2;0;0;
9161;-21,11;-26,65;-16,4;-34,45;1,81;1,63;2,1;1,88;0;0;
9181;-10,88;-30,42;-16,38;-32,91;2,16;1,4;2,02;1,59;0;0;
9198;-10,88;-30,42;-16,38;-32,91;2,61;1,39;1,91;1,63;0;0;
9217;-21,45;-30,24;-19,92;-35,99;2,86;1,51;1,79;1,63;0;0;
9235;-7,65;-30,97;-21,6;-35,37;3,22;1,9;1,76;1,39;0;0;
9253;-18,5;-33,56;-16,62;-33,99;3,32;2,15;1,62;1,24;0;0;
9272;-18,46;-28,12;-16,27;-34,08;3,21;2,61;1,52;1,35;0;0;
9290;-16,79;-37,08;-15,78;-38,07;2,94;2,89;1,43;1,43;0;0;
9309;-10,17;-21,92;-17,11;-39,08;2,92;3,68;1,24;1,51;0;0;
9326;-14,57;-27,77;-12,91;-38,57;2,91;3,64;1,42;1,43;0;0;
9345;-17,64;-23,77;-16,5;-35,7;2,7;3,36;1,33;1,3;0;0;
9366;-12,15;-22,5;-17,72;-36,94;2,61;2,65;1,38;1,29;0;0;
9382;-17,39;-31,32;-13,45;-37,38;2,8;3,23;1,47;1,17;0;0;
9402;-18,94;-26,46;-13,96;-32,65;2,83;3,06;1,57;1,27;0;0;
9420;-18,94;-26,46;-13,96;-32,65;2,56;2,7;1,57;1,22;0;0;
9442;-15,82;-31,57;-13,66;-38,3;2,57;3,08;1,63;1,25;0;0;
9458;-15,82;-31,57;-13,66;-38,3;2,8;3,4;1,67;1,32;0;0;
9478;-21,61;-33,22;-16,06;-35,69;2,6;4,29;1,66;1,53;0;0;
9497;-14,62;-26,23;-19,45;-35,34;2,31;4,35;1,67;1,47;0;0;
9515;-15,1;-28,91;-18,96;-37,89;2,33;4,23;1,73;1,44;0;0;
9533;-13,03;-28,77;-17,72;-36,22;2,56;4,44;1,55;1,32;0;0;
9554;-16,14;-32,58;-17,02;-38,5;2,64;4,6;1,47;1,37;0;0;
9573;-31,67;-22,58;-15,89;-41,24;2,84;4,23;1,43;1,29;0;0;
9593;-13,75;-27,28;-17,84;-38,13;3,22;3,43;1,41;1,43;0;0;
9612;-16,06;-23,03;-14,33;-29,82;3,14;3,39;1,71;1,97;0;0;
9632;-16,97;-25,62;-17,43;-32,99;3,11;3,28;1,98;2,28;0;0;
9651;-22,19;-13,63;-17,11;-36,7;3,29;3,54;2,15;2,33;0;0;
9668;-14,87;-27,62;-13,97;-38,2;3,54;3,83;2,35;2,52;0;0;
9688;-13,79;-18,55;-17,99;-40,72;2,99;3,85;2,4;2,45;0;0;
9707;-12,25;-17,62;-16,3;-39,72;2,9;4,22;3,05;3,01;1;0;
9730;-20,59;-27,88;-15,87;-34,39;2,9;4,42;2,54;2,48;1;0;
9752;-26,45;-30,37;-23,63;-33,79;3,02;4,66;3,95;3,05;1;0;
9772;-17,41;-27,32;27,78;-6,38;2,82;3,41;6,4;4,66;1;0;
9790;-25,99;-30,43;-40,76;-72,99;3,09;4,08;9,93;7,19;1;0;
9811;-23,45;-29,87;-47,16;-48,7;3,23;3,53;14,58;10,13;1;0;
9829;-15,88;-27,9;-12,28;-32,28;3,19;3,08;18,83;13,13;1;0;
9851;-18,63;-29,89;-132,21;-92,32;3,09;3,42;26,17;16,95;1;0;
9872;-15,39;-26,36;-23,01;-46,64;2,69;3,28;27,26;20,29;0;0;
9891;-18,96;-36,18;12,63;-25,15;2,59;4,23;28,65;22,27;0;0;
9912;-14,35;-25,58;-49,6;-41,73;2,35;3,72;30,67;22;0;0;
9933;-13,83;-40,16;-14,24;-28,12;2,6;4,27;30,11;21,59;0;0;
9954;-16,92;-24,23;-22,38;-40,81;2,99;3,65;24;18,62;0;0;
9974;-13,72;-26,66;-10,73;-6,09;3,23;3,48;18,04;14,4;0;0;
9993;32,7;-26,19;-33,03;-68,52;9,69;3,35;15,83;13,7;0;0;
10011;-147,49;-37,77;-18,46;-48,74;21,25;3,81;12,82;13,24;0;0;
10032;-37,97;-115,85;-16,68;-39,26;24,56;8,04;7,55;10,56;0;0;
10052;39,17;-163,67;-6,59;-25,41;29,39;30,49;6,84;9,67;0;0;
10070;6,56;-119,93;-20,48;-37,01;31,82;41,37;7;10,03;0;0;
10088;-19,12;-128;-18,97;-36,4;31,25;68,34;6,55;8,24;0;0;
10109;-21,66;-45,09;-20,38;-41,18;27,46;92,98;4,86;4,86;0;0;
10127;-7,48;-167,59;-21,13;-38,56;23,82;107,56;4,37;4,28;0;0;
10149;-9,53;-23,79;-15,97;-37,44;21,43;110,13;4,18;4,18;0;0;
10168;-20,57;-88,39;-19,03;-37,9;19,38;107,01;3,27;2,81;0;0;
10188;-10,12;-16,83;2,68;-25,06;18,08;97,41;3,76;3,09;0;0;
10208;-18,62;18,93;-2,51;-18,47;14,28;76,57;4;4,19;0;0;
10231;-19,23;-95,69;-17,41;-36,06;11,04;63,76;3,89;4,09;0;0;
10251;-62,45;-27,87;-15,96;-36,69;10,19;47,19;3,68;3,88;0;0;
10268;-17,32;-76,78;-16,53;-34,88;9,75;35,04;3,59;3,84;0;0;
10287;-30,74;-37,74;-16,4;-32,54;8,7;22,28;3,58;3,73;0;0;
10307;-17,17;16,1;-18,32;-36,79;8,34;23,68;2,25;2,68;0;0;
10326;-18,76;-40,59;-15,07;-33,26;9,14;17,43;1,42;1,41;0;0;
10345;-13,11;-25,84;-16,23;-40,99;8,76;14,34;1,37;1,61;0;0;
10365;-10,07;115,84;-15,99;-32,88;6,84;18,21;1,63;1,69;0;0;
10385;-17,08;-43,98;-18,14;-37,09;8,87;22,19;1,48;1,57;0;0;
10403;-16,39;-32,56;-16,57;-38,9;8,41;22,58;1,52;1,65;0;0;
10422;-14,29;-27,2;-18,56;-37,27;7,82;17,42;1,6;1,64;0;0;
10442;-20,39;-36,19;-14,14;-38,94;6,57;16,88;1,57;1,46;0;0;
10463;-22,3;-39,62;-18,88;-34,93;6,62;20,54;1,47;1,48;0;0;
10482;-24,15;-32,52;-15,24;-43,03;5,35;13,16;1,52;1,53;0;0;
10498;-24,15;-32,52;-15,24;-43,03;3,88;11,69;1,64;1,75;0;0;
10516;-17,18;-26,38;-12,68;-35,19;4,69;11,2;1,72;1,64;0;0;
10535;-7,91;-25,48;-14,65;-37,6;5,33;10,91;1,9;1,73;0;0;
10556;-13,08;-28,39;-14,63;-34,87;4,78;9,32;1,85;1,63;0;0;
10574;-21,35;-22,36;-16,5;-37,19;4,72;5,51;1,82;1,66;0;0;
10592;-12,21;-18,98;-13,66;-39,54;4,61;3,74;1,72;1,62;0;0;
10611;-32,66;-63,01;-18,34;-39,62;4,47;4,68;1,75;2,03;0;0;
10628;-14,49;-42,2;-18,03;-34,88;4,85;9,76;1,52;2,08;0;0;
10647;-19,31;-24,68;-19,76;-36,04;4,58;10,44;1,55;1,98;0;0;
10669;-21,12;-27,12;-16,77;-35,48;4,45;11,13;1,84;2,03;0;0;
10688;-16,69;-14,19;-15,13;-37,56;4,94;11,61;1,76;1,9;0;0;
10705;-25,02;-27,75;-14,11;-37,47;4,82;10,33;1,67;1,65;0;0;
10723;-17,19;-33,27;-19,01;-39,15;4,05;7,51;1,58;1,69;0;0;
10740;-17,19;-33,27;-19,01;-39,15;4,28;5,35;1,6;1,92;0;0;
10760;-17,64;-29,75;-16,23;-37,14;4,37;5,15;1,39;1,94;0;0;
10779;-17,64;-27,31;-16,95;-37,08;4,21;4,79;1,17;2,05;0;0;
10797;-15,17;-27,17;-16,26;-38,29;3,69;4,06;1,09;2,12;0;0;
10816;-19,31;-24,88;-15,3;-35,72;3,12;3,41;1,07;1,98;0;0;
10834;-22,84;-23,23;-16,07;-35,33;2,62;2,6;1,23;2,01;0;0;
10853;-17,16;-28,17;-16,45;-34,76;2,6;1,89;1,21;1,78;0;0;
10871;-14,72;-27,18;-21,28;-35,86;2,74;1,97;1,37;1,5;0;0;
10889;-17,51;-26,1;-14,6;-37,02;2,58;2,11;1,66;1,43;0;0;
10909;-19,86;-23,15;-17,93;-32,79;2,55;2,19;1,69;1,29;0;0;
10927;-22,69;-28,18;-19,21;-37,7;2,77;2,15;1,57;1,24;0;0;
10945;-18,35;-26,19;-14,01;-33,53;2,93;1,88;1,69;1,1;0;0;
10967;-17,53;-32,16;-13,39;-38,51;2,93;2,79;1,88;1,43;0;0;
10985;-16,93;-20,93;-15,73;-36,41;2,67;3,24;1,61;1,73;0;0;
11004;-40,43;-11,7;-14,25;-36,24;3,3;4,37;1,6;1,78;0;0;
11022;-16,39;-19,55;-19,12;-30,33;3,26;6,35;1,67;1,8;0;0;
11040;-16,39;-19,55;-19,12;-30,33;3,07;8,38;1,76;2,03;0;0;
11058;-15,97;-20,85;-17,86;-35;2,94;8,74;1,47;1,74;0;0;
11077;-17,17;-28,58;-18,02;-35,25;3,1;9,74;1,45;1,56;0;0;
11097;-15,86;-24,68;-15,71;-36,96;3,71;9,27;1,53;1,55;0;0;
11115;-17,74;-18,02;-16,19;-37,63;3,12;7,99;1,51;1,53;0;0;
11133;-9,92;-21,61;-14,18;-39,27;3,32;6,87;1,43;1,37;0;0;
11155;-15,34;-24,33;-16,64;-36,4;3,11;7,74;1,38;1,36;0;0;
11176;-19,53;-35,95;-13,3;-35,91;3,17;5,72;1,62;1,28;0;0;
11192;-13,35;-28,5;-15,34;-34,64;3,03;6,27;1,58;1,29;0;0;
11211;-14,78;-10,53;-18,45;-34,39;2,81;6,61;1,54;1,35;0;0;
11230;-22,27;-46,55;-17;-35,12;2,96;7,05;1,57;1,41;0;0;
11249;-16,17;-33,45;-14,03;-36,22;2,58;6,27;1,68;1,31;0;0;
11267;-21,19;-23,76;-13,79;-35,6;2,48;5,76;1,87;1,4;0;0;
11287;-19,62;-22,06;-14,08;-37,59;2,41;4,76;1,62;1,42;0;0;
11304;-19,83;-29,16;-15,26;-36,41;2,46;4,89;1,82;1,42;0;0;
11325;-12,2;-10,66;-17,5;-34,45;2,56;4,9;1,95;1,27;0;0;
11346;-16,91;-29,61;-15,42;-39,1;2,47;3,89;1,81;1,27;0;0;
11366;-11,82;-28,29;-18,03;-33,9;2,69;3,49;1,68;1,43;0;0;
11384;-11,24;-24,24;-16,8;-33,06;2,94;3,44;1,7;1,49;0;0;
11403;-20,32;-29,88;-17,32;-38,75;3,59;3,04;1,64;1,42;0;0;
11420;0,97;-23,88;-14,53;-35,25;5,17;3,08;1,62;1,5;0;0;
11439;0,97;-23,88;-14,53;-35,25;6,68;2,42;1,64;1,62;0;0;
11462;-14,97;-25,47;-17,65;-33,57;7,64;2,04;1,71;1,52;0;0;
11481;5,9;-31,66;-16,08;-36,27;12,84;2,62;1,84;1,56;0;0;
11498;5,9;-31,66;-16,08;-36,27;18,24;3,24;1,99;1,5;0;0;
11518;-69,29;-14,54;-15,13;-35,25;23,95;4,02;2,18;1,4;0;0;
11536;53,15;-45,05;-23,9;-39,47;31,72;5,04;2,63;1,65;0;0;
11556;-265,07;-43,28;-15,31;-36,09;46,93;5,65;4,32;2,38;0;0;
11576;-92,71;-26,69;-17,08;-34,27;64,89;6,87;4,39;2,53;1;0;
11595;-188,51;-29,07;-17;-35,57;75,35;7,84;4,68;2,69;1;0;
11616;-67,46;-29,07;-16,24;-36,96;82,62;8,04;4,53;2,66;1;0;
11638;75,42;-26,35;-14,51;-35,22;95,74;9,27;4,89;2,94;1;0;
11658;-91,5;-30,07;-12,28;-35,98;97,73;8,93;5,03;3,08;1;0;
11680;-199,55;-37,14;-9,99;-28,89;83,46;8,77;7,49;4,27;1;0;
11699;0,52;-29,11;-39,22;-39,53;79,21;7,97;11,91;7,35;1;0;
11718;-55,2;-27,35;-17,21;-58,5;68,24;6,96;15,1;9,59;1;0;
11738;-45,27;-26,25;-28,88;-67;63,85;5,81;18,71;12,85;1;0;
11757;27,93;-23,61;-30,58;-52,72;62,34;5,04;19,73;14,78;1;0;
11776;-23,22;-18,72;21,19;-36,09;57,58;4,8;23,7;17,62;1;0;
11794;-22,54;-32,11;-14,8;-23,65;50,48;4,47;24,11;18,06;0;0;
11815;121,81;-28,24;-77,69;-52,18;46,37;4,13;24,39;17,59;0;0;
11837;-13,37;-28,43;-6;-69,94;43,22;4,44;25,19;17,35;0;0;
11857;-37,84;-28,46;12,09;-12,86;29,51;3,92;24,85;18,89;0;0;
11878;-14,89;-26,37;9,14;-50,46;22;3,16;22,55;18,28;0;0;
11898;-17,65;-27,22;-23,95;-42,27;18,16;2,64;20,06;17,65;0;0;
11919;-15,09;-25,72;-22,92;-38,39;14,37;2,17;19,76;17,91;0;0;
11940;-15,83;-27,51;-25,43;-20,83;6,71;1,65;14,48;16,97;0;0;
11959;-13,66;-26,47;-15,38;-31,79;4,85;1,87;12,36;13,88;0;0;
11982;-16,61;-32,27;-26,72;-41,75;2,16;1,88;10,27;10,55;0;0;
12002;-17,18;-27,37;-18,59;-33,83;1,76;2,13;7,74;7,8;0;0;
12021;-15,92;-27,81;-17,61;-38,18;2,05;2,36;6,39;5,61;0;0;
12039;-15,92;-27,81;-17,61;-38,18;2;2,47;4,22;4,14;0;0;
12057;-8,48;-24,16;-15,77;-36,9;3,22;2,48;2,92;2,92;0;0;
12076;-12,69;-25,06;-24,1;-39,97;4,28;2,26;2,89;2,49;0;0;
12094;-13,13;-25,32;-14,94;-36,76;4,39;1,96;2,49;2,34;0;0;
12114;-17,52;-31,25;-20,64;-37,66;4,09;1,74;2,21;2,11;0;0;
12131;-7,04;-20,83;-17,03;-37,58;4,04;1,74;2,05;1,98;0;0;
12151;-14,61;-28,19;-17,49;-34,38;3,64;1,76;1,89;1,95;0;0;
12170;-18,16;-26,44;-16,1;-36,97;2,33;1,57;2;1,91;0;0;
12188;-17,66;-25,7;-16,9;-37,67;1,77;1,74;1,76;1,73;0;0;
12207;-15,91;-23,02;-14,24;-37,96;1,77;1,95;1,75;1,64;0;0;
12225;-18,17;-25,94;-16,45;-34,88;2,05;2,3;1,78;1,52;0;0;
12243;-16,25;-29,13;-15,72;-33,6;1,8;2,13;1,71;1,5;0;0;
12263;-21,01;-28,16;-16,1;-33,42;1,74;2,32;1,66;1,41;0;0;
12282;-16,6;-27,15;-16,64;-35,96;2,18;2,25;1,57;1,49;0;0;
12298;-16,6;-27,15;-16,64;-35,96;2,41;2,22;1,56;1,39;0;0;
12318;-18,32;-30,99;-17,12;-34,98;2,47;1,69;1,74;1,45;0;0;
12335;-16,82;-25,67;-14,38;-33,78;2,53;1,66;1,67;1,44;0;0;
12352;-25,26;-25,13;-16,04;-35,24;2,97;1,6;1,7;1,34;0;0;
12373;-13,4;-26,15;-15,59;-39,27;3,15;1,56;1,6;1,4;0;0;
12392;-20,46;-25,7;-20,08;-34,75;3,23;1,69;1,64;1,49;0;0;
12411;-19,14;-26,11;-10,45;-34,98;3,02;1,65;1,78;1,41;0;0;
12430;-20,45;-27,58;-15,78;-29,1;2,99;1,62;1,93;1,73;0;0;
12449;-15,33;-24,61;-15,76;-38,09;3,09;1,57;1,86;1,76;0;0;
12468;-16,79;-23,96;-16,27;-36,42;2,51;1,52;2,04;1,76;0;0;
12488;-16,18;-27,54;-17,62;-35,75;2,41;1,47;1,91;1,7;0;0;
12505;-16,81;-25,76;-17,44;-37,92;2,14;1,52;1,87;1,94;0;0;
12522;-15,13;-27,82;-16,76;-35,98;2,22;1,43;1,33;1,9;0;0;
12539;-15,13;-27,82;-16,76;-35,98;1,94;1,42;1,31;1,6;0;0;
12557;-17,87;-27,16;-15,64;-33,71;1,98;1,7;1,18;1,53;0;0;
12577;-19,81;-27,2;-16,57;-32,62;2,13;1,6;1,16;1,62;0;0;
12596;-14,83;-29,17;-17,26;-33,88;2;1,64;1,27;1,66;0;0;
12616;-13,57;-27,07;-18,53;-34,37;2,14;1,6;1,21;1,52;0;0;
12634;-19,14;-24,99;-17,14;-33,52;2;1,62;1,19;1,54;0;0;
12652;-19,86;-27,13;-16,21;-33,27;1,99;1,36;1,12;1,42;0;0;
12673;-13,22;-28,5;-16,41;-35,94;2,14;1,34;1,08;1,46;0;0;
12692;-16,57;-23,52;-16,08;-35,68;2,25;1,36;1,11;1,2;0;0;
12710;-16,22;-27,19;-19,54;-32,93;2,41;1,56;1,26;1,32;0;0;
12729;-17,42;-28,39;-18,43;-37,15;2,29;1,55;1,71;1,3;0;0;
12748;-17,65;-28,89;-14,45;-35,43;2,29;1,53;1,76;1,31;0;0;
12766;-18,89;-27,32;-17,04;-40,5;2,3;1,65;1,83;1,31;0;0;
12785;-16,05;-26,39;-14,94;-36,34;2,1;1,53;1,96;1,33;0;0;
12803;-18,16;-25,03;-14,05;-35,88;1,73;1,3;1,9;1,26;0;0;
12824;-21,08;-26,46;-18,6;-35,68;1,65;1,23;1,6;1,03;0;0;
12844;-19,1;-24,12;-17,22;-34,16;1,65;1,17;1,46;1,1;0;0;
12862;-17,39;-27,65;-17,07;-34,89;1,71;1,2;1,59;1,21;0;0;
12880;-17,39;-27,65;-17,07;-34,89;1,55;1,39;1,78;1,26;0;0;
12897;-15,52;-25,67;-15,35;-35,6;1,63;1,4;1,7;1,23;0;0;
12915;-11,79;-23,33;-15,8;-36,9;1,97;1,48;1,66;1,36;0;0;
12933;-15,3;-26,78;-15,38;-34,52;2,04;1,45;1,69;1,28;0;0;
12951;-18,79;-26,99;-19,89;-38,08;2,05;1,42;1,61;1,23;0;0;
12969;-20,89;-25,17;-15,76;-35,98;1,89;1,28;1,59;1,18;0;0;
12986;-14,3;-30,15;-12,09;-36,94;1,96;1,39;1,58;1,36;0;0;
13005;-17,59;-25,68;-18;-34,61;1,87;1,5;1,6;1,23;0;0;
13023;-17,12;-28,17;-20,06;-35,43;1,52;1,39;1,59;1,33;0;0;
13041;-17,12;-28,17;-20,06;-35,43;1,24;1,44;1,62;1,32;0;0;
13057;-14,75;-27,37;-15,17;-34,98;1,43;1,39;1,59;1,28;0;0;
13078;-17,17;-26,43;-16,25;-37,56;1,53;1,5;1,56;1,12;0;0;
13096;-18,15;-28,76;-15,79;-36,97;1,75;1,45;1,58;1,02;0;0;
13114;-15,85;-28,64;-16,01;-36,78;1,98;1,41;1,68;1,04;0;0;
13132;-18,94;-27,68;-20,46;-35,96;2;1,32;1,69;1,08;0;0;
13152;-19,54;-26,13;-14,91;-34,97;2,09;1,42;1,67;1,23;0;0;
13176;-18,86;-26,47;-19,19;-34,4;1,95;1,39;1,9;1,35;0;0;
13195;-16,55;-25,57;-18,89;-35,73;1,83;1,22;2,1;1,35;0;0;
13214;-15,61;-25,23;-17,51;-37,26;1,73;1,2;2,03;1,44;0;0;
13236;-19,72;-22,78;-15,07;-35,88;1,9;1,4;2,1;1,41;0;0;
13254;-16,44;-26,85;-18,69;-38,24;2;1,38;2,06;1,49;0;0;
13272;-20,08;-25,49;-17,48;-34,94;2,05;1,45;1,95;1,55;0;0;
13291;-13,91;-23,76;-17,71;-35,11;2,21;1,66;1,87;1,41;0;0;
13311;-18,23;-25,4;-16,32;-33,86;2,37;1,7;1,75;1,36;0;0;
13328;-16,4;-22,99;-16,12;-37,57;2,32;1,67;1,93;1,39;0;0;
13349;-15,81;-30,61;-16,22;-37,92;2,02;1,64;1,87;1,29;0;0;
13367;-19,61;-26,94;-17,99;-36,35;2,02;1,69;1,73;1,27;0;0;
13387;-17,16;-24,67;-14,87;-35,98;1,84;1,71;1,63;1,25;0;0;
13407;-15,34;-26,98;-17,8;-34,4;1,85;1,72;1,67;1,26;0;0;
13426;-14,67;-27,29;-13,87;-36,29;1,66;1,65;1,41;1,28;0;0;
13445;-18,33;-26,47;-16,9;-36,96;1,81;1,45;1,12;1,26;0;0;
13462;-14,72;-26,9;-12,28;-35,1;1,89;1,27;1,18;1,32;1;0;
13481;-14,72;-26,9;-12,28;-35,1;1,9;1,2;1,24;1,29;1;0;
13502;-15,34;-24,51;-16,4;-32,51;1,95;1,25;1,17;1,36;1;0;
13519;-16,43;-24,58;-25,25;-41,94;1,94;1,24;1,69;1,76;1;0;
13537;-20,46;-25,94;-46,28;-65,03;1,97;1,49;5,87;4,55;1;0;
13555;-10,87;-27,87;3,24;-30,88;2,18;1,52;10,36;7,16;1;0;
13574;-29,08;-28,62;-24,59;-53,34;3,64;1,73;13,48;11,27;1;0;
13592;-14,43;-27,39;-55,62;-51,04;5,95;1,92;15,51;14,16;1;0;
13611;-12,77;-26,59;-31,42;-38,93;7,12;1,9;22,32;17,3;1;0;
13631;-19,81;-28,34;13,05;-12,58;7,39;1,88;24,1;18,74;0;0;
13651;-16,91;-25,2;21,74;-29,2;7,25;1,79;22,22;16,17;0;0;
13672;-19,14;-25,84;43,47;-20,02;6,65;1,59;24,95;17,2;0;0;
13691;-36,64;-29,76;9,6;-26,65;7,98;1,45;24,65;15,11;0;0;
13709;-33,68;-25,42;-19,35;-35,81;11,23;1,41;23,92;13,21;0;0;
13727;-4,97;-25,61;-19,35;-37,16;13,11;1,5;19,14;12,51;0;0;
13746;-15,24;-27,01;-14,42;-34,59;14,39;1,5;17,9;13,13;0;0;
13768;35,71;-18,98;-26,15;-31,3;17,67;1,62;13,73;12,19;0;0;
13786;-9,07;-39,83;-19,38;-37,22;26,61;3,44;10,55;10,65;0;0;
13806;91,44;-16,81;-17,18;-35,45;35,04;4,74;7,51;9,16;0;0;
13826;-158,46;-39,92;-17,55;-41,01;37,94;5,87;6,42;7,58;0;0;
13844;-265,14;-41,28;-10,71;-32,76;51,48;7,65;5,46;6,79;0;0;
13862;133,02;-12,57;-17,34;-37,37;65,7;9,1;4,42;5,97;0;0;
13883;17,91;-23,48;-11,32;-34;83,59;9,67;3,42;4,78;0;0;
13908;-21,79;-48,43;-15,41;-35,42;84,28;9,58;2,93;3,62;0;0;
13927;5,73;-20,92;-16,84;-38,47;77,58;9,38;2,63;3,14;0;0;
13945;-92,31;-30,58;-14,89;-37,22;72,77;8,47;2,59;2,74;0;0;
13964;-9,96;-25,69;-14,55;-33,28;56,28;6,42;2,21;1,49;0;0;
13983;-66,04;-29,64;-19,61;-37,4;42,98;6,12;2,24;1,4;0;0;
14001;-66,04;-29,64;-19,61;-37,4;30,21;5,43;2,23;1,37;0;0;
14022;-10,72;-21,79;-15,14;-34,24;24,97;4,05;2,24;1,23;0;0;
14039;-10,72;-21,79;-15,14;-34,24;22,84;3,62;2,11;1,1;0;0;
14056;-5,27;-25,33;-14,62;-36,59;16,99;3,25;1,96;1,16;0;0;
14075;-53,5;-19,09;-17,5;-40,76;17,02;3,41;1,8;1,32;0;0;
14093;-18,11;-22,13;-19,05;-34,88;12,99;2,81;1,66;1,26;0;0;
14112;-14,11;-27,91;-15,42;-37,22;8,77;2,36;1,57;1,29;0;0;
14129;-14,46;-25,21;-19,6;-37,17;7,46;2,18;1,45;1,3;0;0;
14149;-19,14;-25,36;-14,58;-39,58;6,9;1,88;1,52;1,29;0;0;
14166;-17,82;-25,25;-16,95;-36,11;5,21;1,67;1,65;1,31;0;0;
14185;-17,63;-26,17;-18,24;-33,75;1,7;1,5;1,7;1,27;0;0;
14205;-15,46;-29,71;-16,02;-38,38;1,79;1,49;1,62;1,43;0;0;
14223;-22,57;-24,55;-17,23;-32,91;1,85;1,61;1,6;1,47;0;0;
14243;-18,34;-26,39;-15,68;-33,44;2,02;1,67;1,41;1,62;0;0;
14262;-15,94;-29,71;-15,68;-35,84;2,57;1,73;1,49;1,7;0;0;
14279;-15,94;-29,71;-15,68;-35,84;3,16;1,74;1,49;1,76;0;0;
14299;-15,71;-24,88;-19,89;-37,39;3,33;1,82;1,41;1,78;0;0;
14318;-19,25;-26,04;-16,59;-37,56;3,32;1,79;1,44;1,78;0;0;
14337;-14,41;-27,91;-16,88;-36,62;3,45;1,72;1,42;1,73;0;0;
14357;-21,86;-26,82;-12,08;-33,77;3,52;1,74;1,44;1,6;0;0;
14377;-16,6;-27,17;-9,71;-32,8;3,19;1,71;1,58;1,84;0;0;
14395;-49,77;-24,64;-15,54;-37,96;4,97;1,63;1,81;2,45;0;0;
14414;-13,48;-26,2;-17,31;-34,6;5,54;1,55;1,79;2,53;1;0;
14435;-15,64;-27,12;-16,87;-34,16;5,65;1,42;2,11;2,81;1;0;
14454;-89,82;-37,12;-18,42;-38,8;8,49;1,76;2,19;2,84;1;0;
14472;-87,19;-35,89;-17,85;-36,4;16,97;2,44;2,21;2,75;1;0;
14493;75,51;-22,23;-11,76;-45,6;26,78;3,21;2,26;2,11;1;0;
14510;0,87;-27,54;-33,44;-55,44;28,37;3,19;4,86;3,93;1;0;
14531;23,37;-23,64;-40,34;-60,59;29,34;3,34;7,64;6,06;1;0;
14552;-22,23;-31,1;-39,31;-57,92;35,63;3,87;11,77;8,1;1;0;
14571;-94,88;-27,21;-7,94;-30,66;34,97;3,63;15,2;12,14;1;0;
14588;9,82;-25;-16,54;-41,23;33,29;2,85;18,31;13,73;1;0;
14610;13,14;-26,84;-57,55;-70,67;33,33;2,66;24,51;17,85;1;0;
14629;-36,25;-39,51;-15,19;-31,98;37,02;3,33;23,13;18,97;0;0;
14649;-1,74;-32,82;-28,65;-49,74;46,69;3,55;20,24;20,12;0;0;
14670;-2,07;-24,24;-11,61;-60,69;47,62;3,1;17,64;20,7;0;0;
14690;-8,53;-28,41;-21,42;-28,28;47,04;3,64;17,03;20,47;0;0;
14712;8,11;-30,37;-12,01;-20,17;49,33;3,84;13,42;18,2;0;0;
14731;1,65;-15,41;-2,6;-43,17;52,89;4,25;8,2;14,57;0;0;
14750;-70,75;-21,88;-4,71;-24,82;48,18;4,2;9,01;11,94;0;0;
14772;53,95;-21,44;-20,75;-34,3;43,22;4,56;9,08;9,82;0;0;
14793;11;-23,12;-19,46;-30,02;42,19;4,72;7,61;6,05;0;0;
14813;-85,67;-25,22;-17,71;-37,18;41,06;4,5;6,09;5,28;0;0;
14831;62,1;-34,19;-17,01;-39,53;33,3;4,09;5,56;4,54;0;0;
14852;2,12;-29,37;-17,98;-37,74;29,76;3,73;4,35;4,41;0;0;
14872;20,74;-25,49;-16,54;-36,85;28,08;3,22;3,43;3,12;0;0;
14891;-7,16;-24,45;-15,9;-34,26;25,28;2,91;2,59;2,48;0;0;
14916;31,37;-27,37;-14,77;-36,09;21,12;2,47;2,37;2,27;0;0;
14934;-10,69;-24,82;-15,41;-37,45;18,64;2,41;1,91;1,64;0;0;
14953;-14,95;-28,83;-19,7;-35,23;15,17;2,03;2;1,56;0;0;
14973;-22,17;-29,55;-16,36;-36,08;12,74;1,98;1,66;1,51;0;0;
14992;-15,48;-22,06;-16,5;-34,28;8,25;1,96;1,6;1,65;0;0;
15010;-17,48;-27,04;-17,75;-37,79;6,57;1,98;1,71;1,83;0;0;
15029;-15,82;-23,16;-19,32;-36,23;2,91;2,14;1,68;1,77;0;0;
15050;-17,73;-26,36;-17,25;-38,1;2,02;2,03;1,71;1,87;0;0;
15069;-14,94;-28,02;-18,7;-35,26;1,74;2,22;1,58;2,08;0;0;
15088;-15,97;-25,72;-14,08;-34,49;1,7;2,07;1,83;2,02;0;0;
15106;-19,88;-29,28;-14,61;-31,31;2,21;1,96;1,79;1,74;0;0;
15123;-19,88;-29,28;-14,61;-31,31;2,89;1,95;1,95;1,69;0;0;
15142;-17,85;-27,19;-14,41;-30,45;3,04;2,06;2,02;1,85;0;0;
15161;-16,7;-29,51;-15,14;-33,76;3,38;1,96;1,9;1,71;0;0;
15179;-16,7;-29,51;-15,14;-33,76;3,58;1,78;1,7;1,73;0;0;
15197;-16,1;-27,38;-16,91;-35,61;3,42;1,57;1,46;1,67;0;0;
15216;-13,02;-24,74;-16,47;-34,98;3,03;1,55;1,28;1,61;0;0;
15234;12,23;-20,88;-18,34;-33,69;6,5;1,68;1,33;1,66;0;0;
15253;-3,86;-29,39;-15,97;-37,57;9,56;1,9;1,37;1,67;0;0;
15272;-29,64;-27,11;-13,76;-36,22;19,13;2,41;1,39;1,49;0;0;
15293;89,69;-19,35;-16,29;-36,4;29,22;3,18;1,44;1,37;0;0;
15310;-3,96;-21,07;-13,91;-29,89;35,22;3,74;1,43;1,63;0;0;
15327;-38,69;-47,17;-16,27;-36,95;39,63;5,01;1,45;1,61;0;0;
15346;66,42;-15,9;-15,5;-35,68;49,9;6,66;1,3;1,6;0;0;
15364;26,19;-25,87;-18,62;-32,93;56,2;7,35;1,48;1,83;0;0;
15382;-69,37;-27,86;-12,69;-33,78;65,53;7,33;1,69;2,07;0;0;
15402;-93,15;-15,43;-7,24;-25,26;62,25;7,44;2,17;2,63;1;0;
15422;-49,88;-28,88;-4,23;-27,4;68,73;7,57;2,34;2,49;1;0;
15441;52,62;-31,99;-20,17;-37,4;73,15;6,14;3;2,77;1;0;
15459;52,62;-31,99;-20,17;-37,4;72,7;5,75;3,53;3,08;1;0;
15479;8,42;-20,82;-32,5;-40,74;63,09;4,69;4,72;3,46;1;0;
15498;101,46;-14,77;-15,51;-32,88;63,14;5,71;4,84;3,69;1;0;
15517;-227,03;-44,95;-22,27;-35,22;73,2;7,49;4,95;3,59;1;0;
15535;-78,97;-31,03;-20,84;-36,14;76;7,94;5,47;3,61;1;0;
15555;-114,19;-25,93;-26,51;-44,76;79,23;8,11;8,97;5,93;1;0;
15573;89,13;-26,22;-21,61;-41,3;82,8;7,99;11,23;7,38;1;0;
15591;-16,08;-17,17;-14,17;-14,69;80,44;7,74;12,11;8,04;1;0;
15609;21,04;-15,04;-55,64;-38,9;79,87;7,09;15,8;9,63;1;0;
15628;-58;-25,99;-4,64;-43,2;65,89;4,65;20,88;11,5;1;0;
15646;-15,42;-26,47;-10,06;-40,84;55,78;3,8;22,33;11,94;1;0;
15666;-33,81;-27,36;17,92;-18,51;47,18;3,91;21,02;10,62;0;0;
15686;-29,95;-29,79;-8,4;-28,3;35,14;3,76;19,73;10,2;0;0;
15707;-13,39;-26,79;-27,17;-55,47;30,47;2,83;18,33;10,94;0;0;
15729;-17,66;-28,56;-49,16;-100,63;22,14;2,66;14,81;11,45;0;0;
15747;-17;-26,42;-21,03;-41,41;15,77;2,34;12,25;11,96;0;0;
15764;-15,35;-29,35;-7,81;-28,88;9,8;1,69;10,94;11,22;0;0;
15784;-20,55;-26,78;-2,33;-24,45;5,46;1,46;10,42;11,27;0;0;
15808;-15,96;-28,38;-12,42;-22,91;2,25;1,41;10,59;11,98;0;0;
15832;-17,17;-24,55;-17,41;-42,76;1,99;1,34;9,93;10,7;0;0;
15853;-20,35;-24,59;-15,92;-42,32;2,01;1,24;6,73;6,82;0;0;
15870;-16,44;-28,18;-25,25;-31,32;2,12;1,25;6,57;6,05;0;0;
15889;-17,15;-22,66;-9,85;-36,49;1,98;1,49;5,65;5,62;0;0;
15908;-15,69;-29,97;-13,1;-32,83;1,94;1,48;3,76;4,16;0;0;
15925;-14,85;-26,56;-16;-33,96;2;1,44;2,78;2,58;0;0;
15944;-17,5;-25;-16,53;-35,24;2,05;1,58;2,58;2,31;0;0;
15966;-16,06;-27,89;-13,1;-36,22;1,96;1,61;2,42;1,92;0;0;
15987;-16,18;-30,97;-12,74;-36,15;1,89;1,5;2,39;1,6;0;0;
16007;-18,89;-23,89;-13,43;-35,43;1,94;1,55;2,09;1,42;0;0;
16027;-16,43;-25,49;-16,27;-34,27;1,83;1,48;1,95;1,38;0;0;
16047;-17,76;-26,37;-20,15;-30,89;1,57;1,62;1,97;1,41;0;0;
16065;-17,62;-23,46;-17,12;-36,14;1,58;1,61;2,12;1,53;0;0;
16083;-17,51;-24,59;-14,73;-34,29;1,78;1,8;1,95;1,49;0;0;
16100;-17,51;-24,59;-14,73;-34,29;1,95;1,77;1,79;1,4;0;0;
16118;-13,74;-30,05;-17,62;-36,86;1,9;1,74;1,78;1,57;0;0;
16135;-16,07;-23,04;-14,17;-35,64;2,38;1,93;1,96;1,53;0;0;
16154;-17,38;-30,21;-17,59;-37,56;2,39;2,05;1,72;1,28;0;0;
16173;-17,59;-25,69;-16,11;-37,01;2,33;2,03;1,53;1,37;0;0;
16193;-14,43;-26,7;-16;-34,1;2,12;1,9;1,38;1,42;0;0;
16211;-17,83;-22,27;-16,73;-36,58;2,06;1,98;1,18;1,37;0;0;
16230;-17,68;-27,44;-15,79;-36,21;1,65;1,87;1,48;1,27;0;0;
16249;-14,68;-27,58;-17,81;-34,27;1,75;1,6;1,33;1,35;0;0;
16266;-19,68;-30,62;-17,15;-35,29;1,66;1,49;1,45;1,32;0;0;
16286;-17,65;-27,18;-17,59;-37,5;1,81;1,44;1,51;1,33;0;0;
16305;-17,7;-28,15;-16,87;-38,02;1,69;1,43;1,55;1,34;0;0;
16322;-18,86;-27,7;-16,91;-37,66;1,7;1,27;1,55;1,27;0;0;
16343;-16,5;-25,32;-16,82;-35,06;1,68;1,27;1,42;1,2;0;0;
16361;-16,5;-25,32;-16,82;-35,06;1,56;1,2;1,34;1,15;0;0;
16378;-13,82;-27,29;-13,83;-36,94;1,52;1,3;1,3;1,13;0;0;
16397;-14,94;-25,31;-18,39;-36,96;1,47;1,34;1,3;0,99;0;0;
16416;-19,13;-23,9;-14,51;-34,98;1,55;1,41;1,4;1,02;0;0;
16434;-19,71;-25,23;-17,98;-36,84;1,74;1,45;1,27;1,15;0;0;
16452;-14,96;-27,91;-18,82;-35,06;1,84;1,58;1,4;1,25;0;0;
16469;-15,26;-25,84;-15,69;-39,03;1,86;1,51;1,45;1,28;0;0;
16487;-21,14;-27,92;-16,12;-34,45;1,88;1,37;1,41;1,35;0;0;
16504;-16,29;-27,52;-15,29;-36,65;1,87;1,52;1,23;1,39;0;0;
16523;-15,18;-25,91;-16,65;-34,12;1,92;1,54;1,31;1,24;0;0;
16541;-19,94;-24,09;-17,42;-37,84;1,87;1,54;1,32;1,43;0;0;
16560;-19,94;-24,09;-17,42;-37,84;1,94;1,47;1,29;1,57;0;0;
16578;-21,56;-25,85;-14,87;-34,89;1,97;1,67;1,36;1,68;0;0;
16597;-18,06;-28,12;-12,39;-36,77;2,05;1,67;1,38;1,68;0;0;
16622;-17,61;-27,59;-18,14;-32,75;1,89;1,7;1,36;1,77;0;0;
16640;-15,47;-25,72;-17,68;-35,94;1,81;1,66;1,36;1,85;0;0;
16661;-21,02;-24,54;-16,52;-37,57;1,73;1,73;1,37;1,6;0;0;
16679;-18,15;-29,53;-16,65;-34,26;1,77;1,57;1,35;1,34;0;0;
16698;-18,31;-28,61;-16,13;-37,38;1,69;1,52;1,39;1,33;0;0;
16715;-18,31;-28,61;-16,13;-37,38;1,62;1,5;1,43;1,29;0;0;
16734;-18,32;-25,86;-18,01;-36,22;1,61;1,47;1,43;1,17;0;0;
16754;-16,8;-27,2;-15,35;-33,06;1,59;1,42;1,55;1,23;0;0;
16772;-16,63;-30,86;-15,92;-37,75;1,48;1,61;1,65;1,27;0;0;
16789;-20,32;-27,17;-13,41;-36,94;1,7;1,7;1,62;1,23;0;0;
16807;-16,91;-25,1;-23,17;-36,44;1,79;1,61;1,78;1,25;0;0;
16826;-17,07;-21;-15,32;-36,56;1,92;1,61;1,8;1,37;0;0;
16843;-15,45;-27,67;-18,93;-36,11;1,83;1,61;1,79;1,36;0;0;
16860;-15,45;-27,67;-18,93;-36,11;1,76;1,65;1,72;1,24;0;0;
16877;-16,05;-23,23;-17,15;-36,57;1,79;1,65;1,77;1,13;0;0;
16896;-15,27;-24,05;-16,5;-34,39;1,71;1,64;1,79;1,14;0;0;
16916;-18,66;-29,14;-14,79;-37,2;1,55;2,02;1,65;1,08;0;0;
16934;-19,06;-26,46;-16,28;-35,66;1,39;1,99;1,48;0,98;0;0;
16953;-17,67;-26,22;-17,85;-36,95;1,54;1,93;1,33;0,96;0;0;
16971;-18,24;-26,65;-17,37;-36,97;1,61;1,8;1,29;0,99;0;0;
16989;-13,12;-26,07;-15,47;-36,6;1,53;1,69;1,15;1,05;0;0;
17007;-15,71;-25,7;-18,55;-36,84;1,65;1,72;1,15;1,23;0;0;
17026;-16,02;-26,94;-16,28;-35,61;1,65;1,46;1,19;1,21;0;0;
17045;-14,72;-28,6;-18,55;-36,6;1,65;1,52;1,28;1,32;0;0;
17065;-17,65;-24,52;-15,05;-34,15;1,57;1,61;1,21;1,4;0;0;
17086;-16,57;-29,37;-16,38;-37,92;1,57;1,72;1,28;1,46;0;0;
17102;-20,78;-30,68;-16,45;-35,14;1,72;1,74;1,21;1,45;0;0;
17123;-14,47;-27,13;-14,45;-34,77;1,79;1,64;1,2;1,46;0;0;
17142;-18,31;-23,51;-18,9;-33,85;1,85;1,5;1,33;1,6;0;0;
17159;-18,31;-23,51;-18,9;-33,85;1,9;1,46;1,39;1,65;0;0;
17176;-15,66;-28,26;-15,11;-33,76;1,89;1,37;1,35;1,74;0;0;
17194;-18,57;-23,02;-18,89;-34,87;1,75;1,35;1,34;1,68;0;0;
17211;-12;-29,15;-17,28;-37,31;1,77;1,48;1,55;1,66;0;0;
17230;-15,43;-23,14;-9,43;-35,43;1,84;1,49;2,01;1,68;0;0;
17248;-15,8;-26,69;-20,66;-40,01;1,76;1,53;2,74;1,61;0;0;
17267;-17,52;-26,63;-19,22;-35,72;1,72;1,37;3,02;1,54;0;0;
17299;-17,8;-25,69;-16,52;-37,29;1,68;1,5;3,08;1,68;1;0;
17319;-17,8;-25,69;-16,52;-37,29;1,68;1,53;3;1,82;1;0;
17337;-17;-25,95;-14,92;-36,21;1,48;1,51;3,2;1,63;1;0;
17357;-20,84;-24,12;-13,24;-32,57;1,6;1,55;2,54;1,99;1;0;
17375;-16,75;-27,32;-16,57;-36,26;1,75;1,61;1,96;2,25;1;0;
17392;-18,17;-25,66;-15,04;-34,56;1,89;1,57;3,71;3,34;1;0;
17412;-11,85;-25,48;-19,21;-46,84;1,95;1,38;5,92;5,01;1;0;
17431;-14,72;-22;-13,48;-43,42;2,07;1,64;10,87;8,15;1;0;
17449;-15,44;-25,21;10,89;13,79;1,98;1,65;14,83;13,17;1;0;
17467;-20,36;-23,28;-33,93;-31;1,91;1,66;23,27;18,87;1;0;
17486;-15,95;-24,21;-42,46;-42,3;1,99;1,76;27,93;22,21;0;0;
17505;-15,65;-27,52;-22,24;-52,46;1,83;1,84;27,04;23,58;0;0;
17525;-19,44;-26,82;4,83;-44,13;1,69;1,68;25,39;22,55;0;0;
17543;-16,23;-23,78;-26,77;-40,68;1,77;1,56;22,83;24,29;0;0;
17560;-16,23;-23,78;-26,77;-40,68;1,85;1,54;20,78;24,51;0;0;
17577;1,2;-20,25;-8,7;-2,85;3,51;1,55;13,2;21,66;0;0;
17596;-68,17;-19,61;-15,33;-31,75;7,07;2,58;11,76;20,24;0;0;
17615;55,44;-8,42;-19,81;-40,34;17,68;4,33;10,65;18,4;0;0;
17633;-11,48;-17,84;-5,34;-28,34;37,13;5,11;8,25;14,12;0;0;
17651;-106,34;-21,56;-16,49;-36,47;56,83;6,62;5,55;8,43;0;0;
17669;101,72;-22,05;-21,69;-37,7;80,58;9,12;4,33;6,31;0;0;
17689;116,82;-20,77;-16,96;-32,66;89,61;10,44;3,09;2,65;0;0;
17709;25,77;-13,7;-18,44;-35,4;91,35;8,95;2,86;2,45;0;0;
17730;100,95;-32,81;-18,38;-41,46;91,56;8,96;2,52;2,31;0;0;
17751;6,17;-11;-16,83;-38,28;76,37;7,72;2,21;2,38;0;0;
17771;-20,74;-27,79;-17,77;-37,64;60,03;6,91;2,32;2,47;0;0;
17789;-15,47;-28,85;-14,74;-34,74;37,83;4,33;2,08;2,39;0;0;
17809;-19,04;-28,33;-14,56;-34,39;29,75;4,25;1,87;2,09;0;0;
17827;-14,71;-22,24;-19,03;-36,69;22,43;3,81;1,92;1,98;0;0;
17845;-16,17;-14,58;-18,16;-33,99;7,14;4,48;1,92;1,83;0;0;
17863;-20,61;-21,74;-16,48;-35,86;3,84;4,63;1,84;1,76;0;0;
17884;-16,23;-26,78;-16;-32,23;3,53;5,59;1,79;1,78;0;0;
17900;-16,23;-26,78;-16;-32,23;2,51;6,23;2,01;1,82;0;0;
17919;-15,28;-23,04;-15,4;-33,16;2,33;6,26;1,99;1,95;0;0;
17937;-18,42;-27,11;-16,97;-31,6;2,4;5,31;1,74;2,06;0;0;
17954;-17,32;-26,64;-22,45;-35,83;2,09;4,52;1,66;2,04;0;0;
17973;-18,72;-28,27;-16,8;-38,08;1,64;3,79;1,58;1,91;0;0;
17990;-12,96;-32,06;-20,13;-36,77;1,72;2,83;1,46;1,74;0;0;
18007;-19,25;-27,48;-18,64;-39,41;2,02;2,04;1,54;1,51;0;0;
18024;-14,17;-29,14;-15,09;-36,95;2,43;1,85;1,61;1,44;0;0;
18043;-22,28;-32,75;-14,33;-39,27;2,79;1,85;1,67;1,3;0;0;
18064;-18,78;-28,35;-16,34;-33,05;2,76;1,87;1,48;1,42;0;0;
18083;-18,12;-25,72;-15,66;-33,04;2,84;1,81;1,57;1,4;0;0;
18103;-17,2;-26,03;-16,74;-38,43;2,59;1,61;1,6;1,58;0;0;
18127;-17,16;-27,56;-18,14;-40,72;2,03;1,71;1,73;1,79;0;0;
18150;-19;-27,56;-17,49;-33,01;1,73;1,72;1,8;1,94;0;0;
18171;-16,33;-29,72;-14,61;-35,6;1,56;1,65;1,86;1,95;0;0;
18192;-20,97;-26,91;-15,63;-35,84;1,73;1,73;1,75;1,99;0;0;
18215;-17,11;-26,84;-15,89;-35,58;1,73;1,68;1,74;1,93;0;0;
18238;-16,44;-27,53;-17,85;-33,28;1,91;1,72;1,56;1,93;0;0;
18261;-18,51;-25,58;-14,13;-35,25;1,96;1,62;1,34;1,52;0;0;
18284;-15,45;-26,64;-17,23;-35,97;1,99;1,44;1,3;1,34;0;0;
18306;-17,36;-24,07;-18,26;-34,84;1,98;1,51;1,37;1,12;0;0;
18323;-13,76;-28,55;-15,02;-37,4;2,02;1,33;1,34;0,98;0;0;
18343;-15,68;-23,54;-14,42;-37,41;1,84;1,53;1,45;1,02;0;0;
18369;-15,45;-28,14;-17,45;-35,99;1,89;1,6;1,51;1,04;0;0;
18385;-10,5;-24,47;-17,88;-33,72;1,92;1,64;1,41;1,06;0;0;
18403;-15,45;-25,2;-15,04;-35,26;2,18;1,78;1,44;1,01;0;0;
18422;-18,2;-26,52;-17,38;-38,92;2,24;1,84;1,45;1,23;0;0;
18440;-18,2;-26,52;-17,38;-38,92;2,16;1,95;1,46;1,4;0;0;
18457;-16,06;-26,23;-16,47;-34,84;2,04;1,78;1,49;1,51;0;0;
18478;-17,53;-28,03;-18,92;-34,72;2,35;1,71;1,47;1,67;0;0;
18497;-19,17;-27,44;-14,89;-33,54;2,22;1,79;1,54;1,81;0;0;
18516;-17,16;-26,47;-15,26;-34,87;2,1;1,73;1,45;1,83;0;0;
18535;-17,14;-26,35;-18,31;-37,94;1,94;1,6;1,37;1,68;0;0;
18555;-19,82;-25,1;-14,06;-33,29;2,11;1,48;1,24;1,6;0;0;
18572;-13,97;-23,98;-14,08;-33,64;2,27;1,59;1,28;1,37;0;0;
18590;-15,83;-28,88;-17,63;-33,78;2,19;1,57;1,25;1,26;0;0;
18610;-15,69;-23,15;-14,59;-36,94;2,1;1,61;1,4;1,42;0;0;
18627;-15,69;-28,54;-14,74;-34,15;2,19;1,68;1,61;1,5;0;0;
18648;-21,19;-24,53;-12,82;-39,9;2,48;1,8;1,69;1,67;0;0;
18667;-17,78;-28,77;-20,1;-35,25;2,34;1,74;1,73;1,6;0;0;
18689;-13,92;-27,92;-14,68;-35,56;2,31;1,66;1,72;1,56;0;0;
18706;-17,78;-24,73;-16,53;-36,76;2,74;1,53;1,51;1,5;0;0;
18725;-16,51;-28,52;-15,01;-34,9;2,82;1,7;1,53;1,36;0;0;
18745;-15,34;-26,33;-16,75;-36,71;2,74;1,87;1,49;1,46;0;0;
18763;-14,02;-25,85;-16,6;-36,76;2,67;1,89;1,43;1,41;0;0;
18781;-17,4;-22,93;-15,58;-34,64;2,78;1,94;1,32;1,32;0;0;
18798;-17,4;-22,93;-15,58;-34,64;2,5;2,05;1,42;1,32;0;0;
18816;-15,46;-26,53;-18,8;-41,71;2,2;2;1,48;1,35;0;0;
18835;-15,95;-27,02;-22,8;-27,83;2,19;1,92;1,43;1,5;0;0;
18853;-18,32;-27,62;-16,88;-37,2;2,08;1,72;1,5;1,41;0;0;
18871;-20,7;-26,4;-11,6;-38,37;2,12;1,68;1,58;1,35;0;0;
18889;-18,04;-27,42;-14,25;-35,26;2,28;1,61;1,74;1,45;0;0;
18907;-14,25;-25,22;-16,11;-34,27;2,32;1,56;1,72;1,46;0;0;
18924;-17,69;-26,46;-15,2;-35,66;2,42;1,43;1,77;1,34;0;0;
18945;-16,19;-25,03;-19,97;-35,56;2,46;1,5;1,6;1,3;0;0;
18963;-22,55;-26,34;-17,93;-31,57;2,67;1,46;1,65;1,43;0;0;
18981;-22,55;-26,34;-17,93;-31,57;2,62;1,41;1,46;1,56;0;0;
19000;-18,38;-26,24;-15,81;-35,29;2,87;1,54;1,31;1,47;0;0;
19019;-18,53;-27,59;-17,09;-35,74;2,77;1,5;1,28;1,53;0;0;
19038;-14,72;-29,27;-16,64;-35,62;3,03;1,55;1,19;1,46;0;0;
19058;-18,65;-26,79;-12,89;-35,28;3,02;1,45;1,21;1,35;0;0;
19079;-11,95;-24,25;-15,93;-33,26;3,04;1,48;1,27;1,41;0;0;
19097;-15,91;-24,34;-18,73;-38,3;3,1;1,54;1,3;1,7;0;0;
19117;-18,88;-23,13;-18,38;-37,21;2,58;1,49;1,44;1,74;0;0;
19135;-20,06;-26,34;-17,58;-35,73;2,52;1,49;1,56;1,77;0;0;
19156;-13,7;-26,46;-19,01;-35,97;2,38;1,45;1,69;1,87;0;0;
19176;-18,41;-28,81;-20,12;-31,95;2,25;1,76;2,01;2,13;0;0;
19194;-18,14;-28,21;-18;-37,14;2,22;1,88;2,14;2,43;0;1;
19213;-15,14;-25,01;-19,99;-38,41;2,16;1,76;2,75;3,37;0;1;
19231;-15,53;-24,39;-14,94;-35,28;2,26;1,61;2,7;3,57;0;1;
19252;-12,13;-26,66;-30,6;-73,85;2,14;1,67;3,36;4,89;0;1;
19272;-16,92;-28,43;-17,17;-35,04;2,05;1,66;3,65;7,27;0;1;
19292;-8,76;-28,36;-10,58;-32,96;2,17;1,56;5,43;10,13;0;1;
19311;-13,98;-26,07;-1,3;54,92;2,43;1,38;7,89;16,81;0;1;
19328;-13,71;-24,99;-19,94;-26,83;2,53;1,44;10,69;23,72;0;1;
19349;-12,16;-28,9;19,69;50,87;4,49;1,53;16,57;31,84;0;1;
19366;-10,56;-30,17;1,15;-163,52;5,06;1,66;19,46;36,87;0;0;
19388;-8,36;-19,51;-62,99;-85,53;6,06;2,16;21,52;40,92;0;0;
19408;-47,41;-6,84;-39,37;-71,74;10,48;6,87;23;43,38;0;0;
19425;-12,87;-3,86;-20,35;-38,3;14,21;13,51;22,93;34,26;0;0;
19445;-12,54;-17,05;-8,25;-5,26;16,89;36,41;20,44;31,42;0;0;
19463;33,68;-196,31;-13,59;-26,77;21,86;50,31;16,53;23,05;0;0;
19483;-7,82;11,04;-16,92;-37,92;23,94;59,58;13,82;15,79;0;0;
19505;-1,62;22,47;-14,01;-33,53;21,49;67,55;10,81;12,94;0;0;
19527;-12,2;-59,86;-17,7;-37,42;18,85;65,17;7,63;7,69;0;0;
19546;-25,96;-27,55;-4,41;-24,64;17,73;46,66;5,45;6,53;0;0;
19565;-15,52;-25,24;-11,84;-34,51;11,83;36,8;5,34;3,74;0;0;
19585;-16,25;-28,71;-14,04;-31,94;7,94;22,34;4,36;3,1;0;0;
19603;-36,12;-25,96;-20,14;-40,03;8,5;15,34;3,55;2,57;0;0;
19620;-36,12;-25,96;-20,14;-40,03;8,87;7,01;3,34;2,4;0;0;
19638;-18,5;-25,22;-14,29;-36,39;7,82;2,63;2,81;2,19;0;0;
19659;-21,06;-27,62;-16,74;-36,59;6,94;2,37;2;1,86;0;0;
19681;-0,97;-24,01;-23,31;-47,09;7,59;2,16;1,87;2;0;0;
19699;-0,97;-24,01;-23,31;-47,09;8,06;2,26;1,98;2,11;0;0;
19718;-2,26;-28,72;-20,05;-37,93;8,17;2,31;1,92;2,15;0;0;
19738;-11,95;-31,64;-16,03;-34,39;8,52;2,51;1,89;2,18;0;0;
19757;-23,87;-16,21;-17,49;-32,9;8,86;3,71;2,04;2,34;0;0;
19774;-11,75;-34,77;-16;-39,66;8,5;4,86;2,27;2,54;0;0;
19792;-37,6;-21,53;-14,58;-34,17;20,18;5,46;2,27;2,45;0;0;
19810;-25,97;-9,28;-16,33;-38,42;34,82;6,17;2,55;2,65;0;0;
19827;-232,39;-38,18;-19,64;-37,2;52,42;7,64;2,6;2,73;0;0;
19845;-62,64;-27,14;-56,37;-58,28;69,07;9,41;4,67;4,11;0;0;
19863;-52,36;-7,4;9,11;-28,73;93,6;8,93;7,92;5,72;0;0;
19883;301,11;-23,37;-22,21;-17,63;106,87;9,24;11,38;8,42;0;0;
19899;301,11;-23,37;-22,21;-17,63;99,09;10,65;14,96;11,05;0;0;
19917;-19,27;-30,96;-48;-44,42;100,64;11,55;19,34;15,1;1;0;
19936;164,91;-19,97;-58,52;-77,88;95,27;14,05;22,24;18,89;1;0;
19957;-184,16;-32,68;-64,53;-56,85;96,56;14,03;25,08;20,65;0;0;
19977;-46,03;-25,59;-55,81;-76,66;98,93;12,95;25,96;20,95;0;0;
19997;3,8;-23,13;-17,13;-47,45;89,08;11,06;26,76;21,84;0;0;
20018;-8;-23,69;-4,07;-28,99;71,36;9,58;25,74;20,47;0;0;
20036;-107,14;-29,29;-13,12;-31,79;72,57;7,65;23,53;17,28;0;0;
20054;11,44;-22,68;-17,6;-34,65;52,5;3,98;19,17;13,16;0;0;
20081;-13,87;-25,7;-24,21;-35,63;38,34;2,92;15,38;11,94;0;0;
20099;-13,87;-25,7;-24,21;-35,63;32,98;2,64;11,6;8,03;0;0;
20118;-18,29;-29,59;-23,53;-62,64;29,97;2,56;7,07;6,09;0;0;
20139;-28,89;-20,52;-19,91;-38,42;25,55;2,39;6,46;6,62;0;0;
20160;-32,69;-26,21;-19,34;-30,58;13,86;2,05;6,51;6,03;0;0;
20180;-6,88;-25,13;-17,71;-47,86;9,96;1,82;6,05;6,51;0;0;
20200;-17,95;-28,33;-15,79;-37,63;6,06;1,68;5,76;6,16;0;0;
20220;-17,9;-25,88;-10,08;-18,13;5,25;1,59;5,73;6,53;0;0;
20238;-14,37;-26,05;-12,97;-28,24;5,3;1,72;4,4;4,62;0;0;
20258;-52,05;-34,38;-15,25;-35,98;9,33;1,93;3,77;4,12;0;0;
20277;-19,54;-27,58;-20,13;-36,84;8,45;2,19;3,07;3,32;0;0;
20296;-17,17;-25,48;-12,44;-38,64;7,96;2,3;2,6;2,84;0;0;
20315;-22,08;-25,58;-16,16;-37,3;7,9;2,29;2,06;2,47;0;0;
20335;-21,85;-24,47;-21,07;-37,57;8,05;2,26;2,06;1,84;0;0;
20357;-23,43;-27,37;-18,65;-37,08;7,21;2,28;1,86;1,45;0;0;
20375;-17,13;-26,84;-18,84;-37,93;3,95;1,66;2,01;1,42;0;0;
20393;-18,19;-23,51;-17,67;-36,22;3,84;1,66;1,9;1,42;0;0;
20412;-51,94;-30,79;-16,74;-39,39;5,51;1,76;1,74;1,39;0;0;
20431;-17,23;-27,14;-15,84;-34,45;5,98;2,11;1,8;1,61;0;0;
20453;-21,38;-25,78;-19,89;-35,96;5,33;2,09;1,55;1,57;0;0;
20474;-17,01;-26,22;-13,91;-37,92;4,63;1,98;1,62;1,52;0;0;
20493;-27,68;-26,2;-15,5;-35,23;4,73;1,97;1,57;1,61;0;0;
20512;-22,53;-29,09;-15,69;-35,24;5,33;1,79;1,49;1,47;0;0;
20530;-20,96;-23,01;-18,72;-38,71;3,74;1,37;1,63;1,44;0;0;
20548;-21,55;-28,72;-15,54;-36,94;3,62;1,33;1,64;1,85;0;0;
20567;-18,83;-24,48;-16,45;-38,32;3,71;1,34;1,55;1,83;0;0;
20586;-22,18;-26,84;-14,91;-35,74;3,74;1,43;1,47;1,88;0;0;
20604;-16,19;-23,52;-15,08;-35,46;3,19;1,68;1,49;1,87;0;0;
20622;-17,63;-29,28;-17,44;-34,07;2,46;1,7;1,54;1,96;0;0;
20639;-17,63;-29,28;-17,44;-34,07;2,36;1,66;1,25;1,67;0;0;
20657;-17,48;-23,96;-16,33;-40,46;2,07;1,97;1,31;1,76;0;0;
20675;-12,56;-30,25;-14,83;-34,55;3,14;1,92;1,37;1,6;0;0;
20692;2,5;-39,73;-15,11;-37,22;3,87;3,4;1,35;1,76;0;0;
20710;33,79;9,7;-14,68;-33,7;6,19;6,72;1,37;1,7;0;0;
20729;-15,54;23,61;-13,14;-38,06;11,07;16,74;1,35;1,55;0;0;
20746;-33,32;-53,18;-14,89;-34,45;15,43;24,6;1,29;1,64;0;0;
20764;43,92;-63,33;-16,16;-37;18,63;36,27;1,32;1,64;0;0;
20782;-5,55;-173,2;-14,48;-37,37;21,13;45,87;1,51;1,61;0;0;
20798;-5,55;-173,2;-14,48;-37,37;22,74;53,44;1,67;1,55;0;0;
20816;-135,88;-34,28;-17,98;-35,96;29,18;50,74;1,59;1,53;0;0;
20833;-135,77;-60,65;-15,91;-33,24;35,82;47,06;1,6;1,53;0;0;
20851;-189,03;-7,24;-15,83;-35,2;51,61;41,12;1,66;1,44;0;0;
20869;24,83;-49,86;-14,95;-34,25;62,33;29,17;1,87;1,4;0;0;
20888;-28,94;-31,75;-12,67;-42,36;67,54;19,91;1,76;1,46;0;0;
20907;13,57;-31,52;-15,82;-34,63;79,84;15,03;1,6;1,7;0;0;
20925;-382,38;-19,41;-18,77;-35,66;103,19;13,13;1,61;1,63;0;0;
20943;52,94;-26,61;-17,88;-36,95;108,01;8,96;1,68;1,69;0;0;
20962;180,73;2,92;-17,45;-33,89;114,03;9,5;1,62;1,61;0;0;
20980;180,73;2,92;-17,45;-33,89;127,1;12,23;1,37;1,59;0;0;
20997;17,19;-14,21;-15,87;-36,36;127,38;13,73;1,38;1,31;0;0;
21015;-58,26;-29,1;-16,71;-38,03;119,92;13,33;1,37;1,31;0;0;
21033;-13,13;-16,07;-16,87;-35,22;94,82;13,04;1,39;1,36;0;0;
21053;12,42;-29,5;-16,09;-37,02;79,95;10,75;1,38;1,44;0;0;
21073;30,29;-24,81;-15,65;-36,45;66,42;7,62;1,55;1,4;0;0;
21095;-86,42;-31,48;-20,84;-39,46;57,74;4,76;1,69;1,39;1;0;
21113;18,71;-25,8;-15,01;-33,89;52,99;4,18;1,97;1,43;1;0;
21130;-10,02;-21,71;-14,51;-33,92;49,28;3,93;2,24;1,45;1;0;
21149;17,71;-22,78;-18,84;-42,26;46,88;3,57;3,1;1,89;1;0;
21167;-9,54;-22,8;-7,08;-30,89;47,32;3,51;4,69;3,08;1;0;
21186;3,61;-26,06;-5,27;-39,36;36,89;3,43;7,82;5,55;1;0;
21205;11,5;-29,68;20,76;-26,93;37,43;3,79;10,86;7,36;1;0;
21224;-110,95;-19,11;-24,22;-49,64;34,04;3,62;14,69;9,64;1;0;
21241;-33,65;-26,12;-43,39;-23,16;35,8;3,69;19,32;12,13;1;0;
21259;-33,65;-26,12;-43,39;-23,16;33,5;4;23,2;13,93;1;0;
21279;63,51;-22,86;-16,2;-42,25;40,91;4,01;22,51;13,43;0;0;
21299;-28,95;-22,96;-17,12;-37,9;39,21;3,44;21,4;13,58;0;0;
21322;32,28;-29,45;-41,21;-42,68;42,01;3,16;20,54;13,79;0;0;
21342;-43,05;-29,76;-54,45;-50,97;39,61;3,2;20,62;13,55;0;0;
21361;25,69;-26,26;-12,57;-10,56;36,7;2,99;16,69;12,94;0;0;
21379;25,69;-26,26;-12,57;-10,56;35,09;2,91;13,41;12,22;0;0;
21398;-37,6;-28,42;-26,42;-24,59;31,42;2,81;14,81;13,95;0;0;
21419;-44,56;-20,29;11,75;-9,66;32,77;2,9;14,43;14,4;0;0;
21439;-33,48;-25,97;-14,81;-30,5;27,56;2,74;12,35;14,32;0;0;
21455;-35,27;-24,84;7,68;-17,18;23,65;2,74;10,55;14,21;0;0;
21474;29,12;-22,97;-14,99;0;23,07;2,9;11,29;18,1;0;0;
21492;-18,78;-30,7;-16,21;-35,73;26,57;3,09;9,81;16,02;0;0;
21512;-39,78;-26,75;-14,94;-36,88;26,69;2,92;8,17;14,26;0;0;
21534;-15,1;-26,2;-17,38;-31,35;21,36;2,87;5,41;10,95;0;0;
21556;-17,03;-29,28;-16,48;-38,05;17,73;2,72;4,34;9,66;0;0;
21577;-16,18;-27,63;-19,1;-37,58;14,25;2,31;3,19;6,24;0;0;
21594;-15,42;-27,85;-13,62;-35,52;9,24;1,67;2,24;1,9;0;0;
21614;-17,04;-38,39;-18,1;-39,64;3,38;2,09;2,01;1,5;0;0;
21631;-19,6;-29,39;-18,43;-37,75;1,79;2,38;2,04;1,57;0;0;
21650;-19,76;-23,39;-12,5;-29,59;1,55;2,19;2,12;1,74;0;0;
21669;-16,98;-26,64;-17,21;-34,1;1,69;2,14;1,89;1,85;0;0;
21688;-18,2;-27,12;-16,83;-35,24;1,59;2,18;1,58;1,76;0;0;
21706;-17,16;-27,39;-16,73;-37,29;1,63;2,02;1,49;1,75;0;0;
21725;-26,93;-31,07;-18,12;-37,78;2,3;1,5;1,4;1,59;0;0;
21745;-16,36;-19,98;-16,98;-33,91;3,24;1,71;1,34;1,64;0;0;
21766;-17,45;-24,52;-14,26;-33,88;3,53;1,82;1,27;1,56;0;0;
21785;-16,77;-28,9;-13,32;-34,99;3,51;1,99;1,29;1,39;0;0;
21803;-13,78;-27,43;-19,33;-37,95;3,45;1,9;1,35;1,41;0;0;
21824;-19,38;-27,7;-18,76;-36,22;3,56;2,16;1,42;1,42;0;0;
21842;-16,79;-28,36;-16,74;-34,26;2,39;2,01;1,5;1,42;0;0;
21860;-16,79;-28,36;-16,74;-34,26;2,08;1,83;1,55;1,17;0;0;
21878;-12,77;-26,2;-15,3;-33,49;2,04;1,52;1,69;1,25;0;0;
21896;-16,78;-27,63;-18,2;-36,59;2,15;1,49;1,81;1,41;0;0;
21913;-19,49;-27,2;-21,19;-36,11;2,29;1,36;1,86;1,39;0;0;
21930;-19,11;-24,86;-11,67;-36,1;2,18;1,32;1,68;1,44;0;0;
21949;-17,49;-24,83;-16,52;-34,69;2,09;1,44;1,65;1,44;0;0;
21967;-12,74;-24,25;-15,54;-33,89;2,33;1,48;1,69;1,45;0;0;
21987;-15,36;-27,15;-16,92;-33,28;2,67;1,53;1,51;1,4;0;0;
22004;-20,05;-27,92;-16,53;-35,48;2,4;1,48;1,53;1,4;0;0;
22023;-17,88;-27,19;-15,46;-35,56;2,39;1,59;1,49;1,43;0;0;
22039;-17,88;-27,19;-15,46;-35,56;2,27;1,75;1,4;1,4;0;0;
22055;-16,53;-24,5;-15,54;-31,95;2,4;1,76;1,45;1,6;0;0;
22075;-12,48;-26,34;-18,96;-36,82;2,11;1,74;1,56;1,52;0;0;
22093;-17,15;-27,74;-16,1;-37,59;1,82;1,7;1,49;1,5;0;0;
22113;-14,22;-27,37;-17,2;-35,86;1,96;1,66;1,5;1,49;0;0;
22131;-20,26;-28,15;-16,54;-33,09;2,01;1,68;1,42;1,46;0;0;
22153;-10,01;-27,79;-19,26;-33,76;2,09;1,69;1,39;1,41;0;0;
22172;-16,55;-26,7;-21,12;-37,04;2,17;1,48;1,24;1,25;0;0;
22194;-14,97;-24,51;-16,25;-36,24;2,21;1,46;1,07;1,29;0;0;
22212;-17,16;-26,33;-17,99;-36,3;2,27;1,59;1,03;1,26;0;0;
22230;-21,71;-27,38;-16,34;-38,67;2,14;1,55;1,16;1,3;0;0;
22248;-15,7;-27,63;-16,36;-34,37;1,92;1,34;1,27;1,31;0;0;
22267;-14,42;-25,4;-15,01;-37,22;1,78;1,32;1,27;1,27;0;0;
22286;-17,49;-25,48;-19,09;-34,26;1,82;1,46;1,34;1,25;0;0;
22305;-18,56;-26,75;-18,36;-35,73;1,68;1,75;1,31;1,34;0;0;
22322;-19,5;-26,56;-16,06;-32,73;1,75;1,69;1,29;1,45;0;0;
22340;-19,5;-26,56;-16,06;-32,73;1,83;1,82;1,23;1,48;0;0;
22360;-17,16;-28,42;-17,62;-36,21;2,17;1,88;1,09;1,47;0;0;
22377;-15,4;-28,05;-15,05;-37,76;2,05;2,01;1,14;1,48;0;0;
22394;-15,82;-26,56;-14,89;-36,4;2,23;1,74;1,24;1,3;0;0;
22414;-17,52;-25,99;-16,8;-39,11;2,17;1,63;1,38;1,45;0;0;
22431;-15,92;-28,28;-16,33;-38,23;2,24;1,56;1,34;1,52;0;0;
22451;-14,93;-24,84;-16,47;-34,35;2,14;1,75;1,27;1,42;0;0;
22468;-17,11;-25,22;-14,73;-34,77;2,13;1,52;1,35;1,42;0;0;
22488;-19,87;-26,23;-16,22;-36,57;2,16;1,57;1,29;1,5;0;0;
22506;-17,26;-30,08;-16,88;-37,94;2,45;1,57;1,2;1,44;0;0;
22524;-19,88;-24,23;-17,86;-35,86;2,33;1,78;1,15;1,26;0;0;
22541;-16,61;-23,03;-17,44;-34,95;2,26;1,54;1,12;1,28;0;0;
22560;-16,61;-23,03;-17,44;-34,95;2,32;1,57;1,17;1,37;0;0;
22577;-14,22;-25,47;-16,81;-37,76;2,35;1,62;0,96;1,32;0;0;
22594;-15,85;-27,28;-17,91;-35,44;2,1;1,6;1,01;1,26;0;0;
22613;-12,75;-24,13;-16,57;-35,38;2,02;1,49;1;1,2;0;0;
22630;-21,13;-29,58;-16,98;-32,19;2,07;1,68;1,06;1,24;0;0;
22650;-15,8;-25,85;-16,34;-38,13;2;1,9;1,15;1,17;0;0;
22667;-19,02;-25,82;-14,69;-37,2;2,08;1,81;1,32;1,26;0;0;
22687;-17,28;-25,29;-17,06;-35,13;2,15;1,95;1,44;1,22;0;0;
22705;-16,29;-29,16;-15,13;-36,6;1,98;1,97;1,36;1,44;0;0;
22723;-18,84;-23,89;-14,03;-36,46;2,06;2,05;1,44;1,48;0;0;
22740;-18,84;-23,89;-14,03;-36,46;2,09;1,83;1,47;1,41;0;0;
22758;-21,52;-24,85;-21,18;-34,14;2,36;1,91;1,56;1,37;0;0;
22776;-15,8;-27,81;-19,4;-33,57;2,28;1,88;1,73;1,46;0;0;
22796;-18,42;-26,18;-14,68;-35,18;2,37;1,77;1,71;1,43;0;0;
22815;-21,45;-25,19;-15,07;-33,9;2,36;1,62;1,81;1,31;0;0;
22833;-13,84;-27,86;-17,58;-35,63;2,44;1,46;1,95;1,32;0;0;
22851;-17,97;-26,41;-13,86;-36,78;2,25;1,53;1,86;1,4;0;0;
22870;-20,9;-25,03;-17,33;-35,38;2,12;1,4;1,79;1,43;0;0;
22890;-18,02;-23,97;-15,72;-35,57;2,16;1,53;1,73;1,6;0;0;
22908;-18,17;-25,7;-13,91;-37,65;2,06;1,53;1,75;1,95;0;0;
22927;-17,32;-25,42;-16,08;-36,97;2,39;1,7;1,67;2,07;0;0;
22945;-17,24;-26,2;-18,01;-37,94;2,4;1,64;1,78;2,6;0;0;
22963;-19,91;-23,86;-12,09;-36,99;2,42;1,63;1,8;2,58;0;0;
22981;-16,56;-29,76;-15,24;-33,29;2,71;1,68;1,71;2,55;0;1;
22998;-16,56;-29,76;-15,24;-33,29;2,79;1,7;1,61;2,35;0;1;
23015;-17,38;-24,68;-16,61;-36,67;2,91;1,6;1,82;2,36;0;1;
23033;-12,02;-27,37;-15,73;-37,74;2,59;1,65;1,7;1,97;0;1;
23050;-15,25;-26,21;-16,5;-35,61;2,59;1,48;1,45;1,83;0;1;
23067;-21,03;-27,2;-14,35;-34,7;2,57;1,49;1,48;1,42;0;1;
23088;-16,58;-27,94;-20,79;-35,11;2,32;1,47;1,79;1,39;0;1;
23107;-17,16;-30,18;-12,29;-37,04;2,18;1,66;2,02;1,25;0;1;
23124;-18,23;-26,52;-15,73;-34,32;2,08;1,55;1,89;1,14;0;1;
23142;-13,4;-24,5;-23,08;-55,52;2,14;1,56;2,15;1,52;0;1;
23160;-13,4;-24,5;-23,08;-55,52;2,28;1,69;2,36;1,98;0;1;
23178;-17,54;-25,49;-18,58;-57;2,49;2,01;4,59;5,03;0;1;
23196;-14,97;-28,04;4,53;-19,63;2,55;1,88;8,84;10,34;0;1;
23214;-16,29;-27,56;-33,16;-112,7;2,81;1,74;11,54;15,65;0;1;
23235;-14,79;-24,38;-0,79;-63,1;3;1,84;14,8;20,97;0;1;
23253;-17,29;-25,4;-16,03;-49,25;2,78;1,88;17,61;26,62;0;1;
23271;-22,87;-24,5;-31,2;-34,53;2,75;1,73;20;28,14;0;1;
23290;-15,7;-29,38;-28,89;-45,89;3,07;1,57;19,17;25,24;0;1;
23309;29,68;19,21;-18,1;-32,74;6,57;5,38;18,08;22,63;0;1;
23327;-46,1;-150,86;-17,75;-43,31;11,36;19,32;16,14;14,86;0;0;
23347;-9,85;-105,97;-32,44;-42,57;15,57;39,67;17,13;10,69;0;0;
23365;54,24;-199,13;-15,08;-32,01;20,65;62,5;17,07;8,35;0;0;
23384;-34,67;-47,07;-18,87;-35,25;22,89;70,87;12,58;6,46;0;0;
23404;-16,48;-15,72;-17,58;-38,55;21,78;71,98;11,23;5,16;0;0;
23425;-17,9;-26,38;-15,04;-33,76;16,5;63,13;9,86;4,3;0;0;
23452;-35,29;-41;-16,66;-39,17;13,22;46,38;7,13;3,47;0;0;
23470;-25,48;-24,94;-11,88;-40,08;11,29;25,34;3,2;2,16;0;0;
23492;-22,55;-29,13;-13,44;-34,62;7,72;6,5;2,39;1,75;0;0;
23512;-12,5;-27,38;-18,48;-36,55;6,98;3,14;2,11;1,83;0;0;
23528;9,12;-22,62;-9,97;-32,89;8,91;2,77;1,97;1,86;0;0;
23549;-18,82;-23,24;-18,17;-35,73;11,59;3,02;1,83;1,94;0;0;
23566;-7,9;-32,31;-16,87;-36,74;11,62;2,29;1,67;1,55;0;0;
23621;-20,11;-28,41;-14,72;-30,48;11,07;2,38;1,58;1,52;0;0;
23640;49,52;-26,4;-18,62;-34,95;13,99;2,61;1,63;1,6;0;0;
23657;-3,08;-23,41;-16,88;-35,49;24,32;3,17;1,54;1,68;0;0;
23677;-36,58;-25,46;-16,78;-32,55;26,16;2,97;1,63;1,68;0;0;
23696;-15,52;-26,58;-18,1;-32,1;23,79;2,73;1,92;1,8;0;0;
23715;-18,24;-26,59;-16,2;-36,85;22,26;2,52;2,17;2,05;1;0;
23735;5,33;-19,55;-15,94;-35,2;24,75;2,8;2,15;1,93;1;0;
23753;15,54;-15,99;-4,16;-23,7;28,8;3,02;3,45;2,79;1;0;
23771;19,09;-21,36;-26,02;-40,51;28,79;3,06;6;4,49;1;0;
23789;-26,66;-24,55;-46,27;-43,61;28,43;3,52;8,45;5,88;1;0;
23807;-18,38;-33,92;-5,17;-31,48;28,39;5,04;9,63;6,96;1;0;
23826;-37,95;-24,86;-34,06;-52,02;28,61;5,45;13,4;9,04;1;0;
23845;-15,59;-18,38;-47,12;-76,98;19,26;4,89;16,04;10,92;1;0;
23865;-8,69;-26,35;-49,3;-63,76;11,54;4,53;19,49;13,25;1;0;
23883;-18,71;-28,45;-9,78;-44,49;8,08;4,03;20,6;13,94;1;0;
23901;-15,43;-25,48;-7,15;-37,59;8,57;2,89;21,04;13,98;1;0;
23920;-15,43;-25,48;-7,15;-37,59;9,44;2,38;21,04;14,22;1;0;
23940;-8,13;-30,5;34,95;13,75;14,98;3,08;20,32;14,84;0;0;
23959;-75,55;-28,85;-58,83;-70,77;24,52;3,33;22,34;16,47;0;0;
23981;1,55;-23,28;-11,6;-46,64;42,88;6,41;20,63;15,19;0;0;
24000;47,28;-29,73;-10,42;-36,11;75,15;9,57;18,36;15,03;0;0;
24019;-25,82;-29,02;-15,77;-34,35;87,57;11,36;17,67;16,93;0;0;
24038;-320,38;-87,96;-18,06;-43,02;113,38;13,53;16,25;17,06;0;0;
24057;36,91;3,92;-18;-56,98;119,11;15,74;10,2;11,8;0;0;
24076;-285,6;-25,5;-13,88;-35,63;112,74;14,2;7,56;10,3;0;0;
24098;-3,04;-36,93;-21,69;-39,83;91,14;11,16;5,5;7,86;0;0;
24118;-26,19;-20,69;-16,88;-40,08;73,48;9,41;4,28;5,26;0;0;
24137;4,62;-24,97;-14,81;-34,5;54,28;7,8;2,88;2,93;0;0;
24154;-227,84;-34,76;-16,37;-35,33;45,65;4,44;3,01;2,55;0;0;
24172;-21,25;-24,97;-15,8;-37,92;49,65;4,09;2,7;1,94;0;0;
24191;-17,15;-22,82;-14,2;-35,71;37,07;3,91;2,36;1,63;0;0;
24208;-16,82;-30,17;-18,23;-36,72;31,43;3,29;1,93;1,5;0;0;
24228;-19,62;-25,69;-14,51;-34,49;29,8;3,26;1,76;1,59;0;0;
24245;-19,84;-24,51;-17,6;-35,61;28,02;3,22;1,61;1,64;0;0;
24264;-22,32;-29,86;-15,94;-35,8;7,39;2,37;1,48;1,51;0;0;
24283;-30,02;-22,51;-18,24;-35,78;2,43;2,16;1,47;1,4;0;0;
24303;-18,13;-24,14;-15,03;-37,9;2,69;2,21;1,44;1,45;0;0;
24320;-18,13;-24,14;-15,03;-37,9;2,81;2,24;1,34;1,52;0;0;
24340;-9,31;-25,86;-16,66;-33,24;3,04;2,21;1,47;1,39;0;0;
24359;-32,19;-23,88;-15,92;-35,81;4,4;2,27;1,45;1,5;0;0;
24378;-11,95;-26,74;-16,34;-32,19;4,75;2,11;1,39;1,69;0;0;
24395;-4,42;-27,87;-19,5;-37,91;4,9;1,93;1,42;1,84;0;0;
24413;-12,78;-27;-14,38;-36,4;4,6;1,8;1,49;1,72;0;0;
24432;-15,03;-27,21;-15,91;-37,33;4,75;1,79;1,38;1,54;0;0;
24453;-15,18;-28,48;-16,69;-35,6;4,09;1,79;1,33;1,36;0;0;
24470;-20,51;-27,22;-14,4;-34,88;2,67;1,81;1,22;1,26;0;0;
24488;-15,82;-25,04;-18;-38,64;2,34;1,68;1,34;0,99;0;0;
24506;-19,85;-26,24;-18,18;-34,25;1,78;1,65;1,22;0,94;0;0;
24525;-29,6;-24,89;-18,02;-35,4;2,19;1,61;1,29;1,04;0;0;
24542;-17,53;-25,69;-18,35;-35,24;2,12;1,5;1,3;1,19;0;0;
24559;-17,53;-25,69;-18,35;-35,24;2,18;1,6;1,24;1,44;0;0;
24576;-15,19;-27,55;-17,5;-38,44;2,15;1,63;1,3;1,47;0;0;
24594;-16,19;-25,35;-15,32;-38,93;2,32;1,68;1,26;1,54;0;0;
24616;-15,9;-22,52;-15,59;-38,19;2,54;1,68;1,25;1,56;0;0;
24632;-17,43;-27,55;-18,84;-35,74;2,05;1,68;1,36;1,37;0;0;
24651;-20,49;-27,19;-18,51;-37,92;2,01;1,67;1,46;1,19;0;0;
24670;-17,51;-24,87;-16,15;-33,62;2,09;1,6;1,58;1,32;0;0;
24689;-16,52;-27,81;-14,91;-35,59;2,04;1,63;1,78;1,42;0;0;
24707;-14,52;-25,43;-15,19;-37,2;2,04;1,56;1,89;1,48;0;0;
24723;-16,98;-27,94;-14,67;-36,1;1,84;1,36;1,79;1,48;0;0;
24745;-15,7;-24,87;-16,18;-34,09;1,92;1,16;1,75;1,43;0;0;
24764;-18,77;-29,9;-16,22;-36,59;1,94;1,21;1,48;1,53;0;0;
24785;-14,84;-22,81;-16,03;-35,73;2,05;1,28;1,3;1,4;0;0;
24803;-14,65;-29;-17,85;-37,44;2,43;1,46;1,31;1,36;0;0;
24823;-16,93;-23,1;-14,18;-37,38;2,31;1,57;1,33;1,41;0;0;
24842;-11,97;-28,41;-16,99;-34,98;2,32;1,69;1,27;1,46;0;0;
24861;-11,97;-28,41;-16,99;-34,98;2,25;1,78;1,19;1,48;0;0;
24879;-2,43;-26,78;-19,16;-33,41;2,59;1,67;1,21;1,48;0;0;
24897;-36,4;-26,47;-18,31;-37,91;4,64;1,86;1,05;1,4;1;0;
24913;-22,03;-26,93;-16,37;-37,94;5,24;1,7;1,05;1,5;1;0;
24931;-13,73;-30,37;-14,05;-35,9;6,38;1,87;1,11;1,7;1;0;
24950;-15,85;-25,82;-4,9;-21,43;6,85;1,81;2,49;2,84;1;0;
24967;-3,18;-21,06;-13,96;-28,9;7,05;1,85;3,67;3,72;1;0;
24985;51,94;-25,01;-1,01;-26,7;17,08;1,66;4,22;4,24;1;0;
25003;-115,7;-32,55;-17,39;-28,52;26,31;2,27;5,64;5,26;1;0;
25023;-6,31;-26,96;-21,27;-40,71;29,04;2,69;6,2;6,02;1;0;
25040;-6,31;-26,96;-21,27;-40,71;31,6;3,06;6,52;6,39;1;0;
25056;-6,06;-27,19;-13,67;-57,01;32,16;3,27;7,42;8,28;1;0;
25073;-39,13;-25,12;-10,11;0,46;31,33;3,17;10,55;11,53;1;0;
25092;57,82;-33,27;-6,72;-26,35;31,02;3,39;13,17;14,69;1;0;
25112;-317,93;-33,13;-25,94;-58,36;39,42;4,85;17,27;17,16;1;0;
25133;-181,53;-34,56;-22,26;-49,75;54,82;5,54;21,61;18,39;1;0;
25153;274,41;-37,63;13,76;-14,79;93,03;7,05;22,6;21,24;1;0;
25173;-130,91;-34,1;3,53;-50,95;118,79;7,91;21,02;23,2;0;0;
25196;-81,36;-26,06;-40,53;-14,62;136,93;10,28;25,79;25,86;0;0;
25217;95,66;-14,48;-27,39;-44,65;147,12;9,55;27,5;25,87;0;0;
25237;95,66;-14,48;-27,39;-44,65;144,86;8,78;29,44;27,13;0;0;
25255;-34,28;-27,56;2,62;-35,07;115,2;7,14;27,85;26,88;0;0;
25275;-56,67;-48,01;-14,21;-33,22;103,78;6,78;25,83;23,1;0;0;
25291;7,66;-21,55;-15,39;-34,37;83,69;6,63;21,77;16,61;0;0;
25310;-33,63;-27,19;-18,58;-39,07;69,62;5,22;16,2;10,87;0;0;
25330;-20,33;-24,69;-12,92;-33,23;50,46;4,51;10,16;6,67;0;0;
25350;-21,8;-21,36;-17,06;-29,71;39,4;4,1;6,29;4,03;0;0;
25367;-16,07;-32,68;-17,93;-41,4;36,93;4,23;5,32;2,99;0;0;
25385;-13,85;-23,4;-16,29;-35,61;11,77;2,74;4,18;2,23;0;0;
25402;-15,46;-26,38;-19,01;-35,32;6,72;1,96;3,96;2,08;0;0;
25422;-15,19;-28,66;-15,21;-34,52;5,89;1,85;2,82;1,95;0;0;
25443;-14,9;-28,18;-15,28;-33,02;4,28;1,82;2,26;1,9;0;0;
25460;-14,9;-28,18;-15,28;-33,02;3,73;1,52;2,48;2,03;0;0;
25478;-16;-27,19;-15,93;-34,23;1,86;1,5;2,09;1,87;0;0;
25498;-20,22;-25,19;-16,9;-34,96;1,64;1,53;1,82;1,91;0;0;
25515;-22,16;-27,31;-18,07;-33,27;1,77;1,64;1,6;2;0;0;
25534;-4,09;-26,59;-30,54;-53,56;3,16;1,86;1,62;2,22;0;0;
25553;-16,28;-25,22;-14,6;-35,41;3,78;1,75;2,33;3,15;0;0;
25571;-18,85;-28,06;-15,37;-33,19;3,85;1,76;2,2;2,96;0;0;
25588;-19,13;-26,57;-16,37;-34,87;3,75;1,66;2,66;2,99;0;0;
25609;-18,49;-29,17;-16,65;-34,98;3,66;1,61;2,9;2,97;0;0;
25627;-16,08;-26,35;-11,82;-34,27;3,06;1,53;3,16;3,13;0;0;
25646;-16,07;-25,83;-17,98;-37,73;1,7;1,34;2,42;2,03;0;0;
25663;-17,29;-27,05;-13,98;-33,51;1,75;1,43;2,7;3,02;0;0;
25682;-18,15;-25,88;-17,5;-36,94;1,75;1,47;2,59;2,86;0;0;
25700;-18,15;-25,88;-17,5;-36,94;1,68;1,56;2,25;2,88;0;0;
25717;-15,02;-25,1;-16,54;-36,23;1,62;1,56;2,16;2,69;0;0;
25735;-16,17;-26,58;-16,88;-36,27;1,68;1,74;2,07;2,48;0;0;
25753;-18,91;-24,72;-15,41;-36,23;1,59;1,68;1,96;2,18;0;0;
25771;-16,8;-27,17;-17,72;-34,33;1,51;1,71;1,39;1,39;0;0;
25788;-16,06;-27,83;-16,14;-36,98;1,57;1,67;1,36;1,46;0;0;
25807;-19,95;-26,24;-13,69;-33,35;1,65;1,73;1,39;1,67;0;0;
25827;-13,64;-24,17;-17,97;-40,28;1,72;1,63;1,57;1,95;0;0;
25845;-17,26;-27,69;-16,96;-36,57;1,75;1,48;1,58;1,88;0;0;
25862;-19,68;-26,54;-16,12;-38,12;1,78;1,39;1,6;1,97;0;0;
25879;-19,68;-26,54;-16,12;-38,12;1,85;1,12;1,55;1,71;0;0;
25897;-15,82;-28,98;-16,84;-34,02;1,87;1,32;1,62;1,79;0;0;
25913;-13,83;-27,19;-16,02;-36,82;1,86;1,24;1,63;1,52;0;0;
25931;-18,11;-26,26;-16,11;-35,76;1,75;1,32;1,53;1,48;0;0;
25949;-15,43;-27,56;-15,31;-37,92;1,8;1,49;1,54;1,48;0;0;
25969;-17,67;-26,82;-16,54;-35,96;1,68;1,68;1,56;1,49;0;0;
25986;-18,49;-26,58;-17,83;-38,63;1,55;1,85;1,41;1,55;0;0;
26006;-20,67;-25,12;-19,34;-36,77;1,46;1,55;1,37;1,34;0;0;
26027;-13,5;-21,98;-15,7;-34,62;1,61;1,54;1,36;1,45;0;0;
26043;-18,19;-27;-15,8;-35,43;1,71;1,54;1,34;1,36;0;0;
26059;-18,19;-27;-15,8;-35,43;1,77;1,45;1,24;1,12;0;0;
26077;-14,85;-27,27;-18,92;-36,95;1,85;1,54;1,3;1,05;0;0;
26094;-14,91;-22,16;-14,24;-35,49;1,87;1,68;1,34;0,87;0;0;
26112;-14,57;-29,36;-18,52;-35,07;1,89;1,84;1,36;0,87;0;0;
26131;-17,3;-24,69;-17,81;-35,84;1,78;1,7;1,57;0,92;0;0;
26149;-15,82;-24,24;-13,84;-35,6;1,73;1,79;1,66;1,14;0;0;
26167;-17,66;-28,51;-14,91;-36,13;1,8;1,83;1,58;1,14;0;0;
26184;-16,07;-23,13;-17,93;-39,1;1,73;1,6;1,71;1,15;0;0;
26202;-17,81;-24,48;-17,73;-33,63;1,74;1,62;1,88;1,45;0;0;
26220;-17,81;-24,48;-17,73;-33,63;1,63;1,68;1,84;1,72;0;0;
26239;-19,9;-26,18;-16,87;-37,33;1,81;1,74;1,92;1,8;0;0;
26256;-21,04;-23,96;-17,07;-36,85;1,85;1,7;1,83;1,84;0;0;
26274;-17,22;-26,62;-19,62;-35,9;1,93;1,68;1,73;1,92;0;0;
26292;-17,96;-25,79;-14,57;-39,02;1,9;1,56;2,1;1,96;0;0;
26310;-20,25;-24,23;-14,91;-34,74;1,99;1,52;2,21;1,65;0;0;
26327;-21,33;-28,72;-11,95;-37,41;1,88;1,64;2,06;1,5;0;0;
26345;-17,13;-25,65;-15,27;-36,39;1,82;1,71;2,11;1,34;0;0;
26363;-14,6;-27,19;-15,77;-35,6;1,53;1,46;1,99;1,4;0;0;
26379;-14,6;-27,19;-15,77;-35,6;1,48;1,37;1,52;1,35;0;0;
26399;-12,65;-26,95;-16,05;-35,05;1,57;1,36;1,4;1,34;0;0;
26416;-19,15;-23,51;-16,25;-32,11;1,62;1,36;1,26;1,41;0;0;
26435;-14,9;-29,04;-15,76;-37,08;1,53;1,33;1,13;1,37;0;0;
26453;-22,12;-25,01;-14,49;-36,99;1,72;1,34;1,13;1,47;0;0;
26470;-21,03;-23,75;-17,1;-32,56;1,74;1,53;1,25;1,58;0;0;
26488;-14,82;-25,36;-16,5;-31,21;1,92;1,69;1,38;1,56;0;0;
26506;-17,65;-24,55;-17,35;-34,91;1,72;1,73;1,4;1,54;0;0;
26523;-14,46;-26,23;-16,28;-37,06;1,69;1,69;1,37;1,47;0;0;
26540;-14,46;-26,23;-16,28;-37,06;1,66;1,68;1,47;1,47;0;0;
26558;-16,64;-27,45;-16,05;-34,63;1,53;1,69;1,49;1,34;0;0;
26576;-17,77;-29,74;-17,02;-35,85;1,67;1,57;1,45;1,27;0;0;
26596;-18,22;-24,88;-14,78;-32,54;1,56;1,88;1,37;1,3;0;0;
26613;-17,78;-23,96;-17,44;-33,53;1,66;1,94;1,32;1,23;0;0;
26633;-19,14;-23,27;-19,26;-34,24;1,75;2,03;1,47;1,24;0;0;
26650;-16,33;-29,07;-10,79;-27,3;1,88;1,84;1,96;1,8;0;0;
26667;-18,84;-26,92;-19,73;-39,87;1,92;1,82;2,1;1,98;0;0;
26685;-20,12;-24;-15,61;-38,14;1,83;1,75;2,69;2,81;0;0;
26703;-16,45;-24,57;-17,15;-38,92;1,75;1,65;2,57;2,86;0;0;
26719;-16,45;-24,57;-17,15;-38,92;1,71;1,6;2,6;2,98;0;0;
26736;-17,61;-29,5;-16,52;-37,58;1,61;1,84;2,21;2,72;0;0;
26755;-15,61;-22,54;-17,2;-35,92;1,28;1,95;1,92;2,4;0;0;
26773;-15,89;-25,41;-17,1;-37,13;1,38;2,09;1,58;2,06;0;0;
26790;-18,26;-28,27;-10,22;-30,02;1,42;2,01;1,27;1,65;0;0;
26809;-15,86;-25,24;-15,54;-33,2;1,53;1,9;1,47;1,72;1;0;
26828;-16,61;-28,27;-17,08;-37,3;1,47;1,58;1,96;1,9;1;0;
26850;-15,2;-25,84;-13,73;-37,91;1,68;1,45;2,71;2,21;1;0;
26867;-15,82;-25,97;-7,21;-31,43;1,67;1,34;3,38;3,44;1;0;
26887;-13,76;-25,65;-35,09;-47,69;1,6;1,26;4,81;4,5;1;0;
26905;-13,75;-23,23;-44,58;-60,85;1,62;1,43;6,74;5,86;1;0;
26924;-21,27;-28,13;-6,59;1,33;1,66;1,43;8,23;8,45;1;0;
26945;-20,11;-25;-61,53;-60,02;1,84;1,3;10,65;10,33;1;0;
26963;-14,93;-27,63;-4,97;-44,51;1,81;1,7;15,13;13,34;1;0;
26982;-19,68;-28,03;-33,66;-17,95;1,94;1,68;16,57;13,57;1;0;
27000;-19,68;-28,03;-33,66;-17,95;1,95;1,74;17,09;13,59;1;0;
27018;-18,65;-25,19;-10,44;-41,49;2,04;1,71;19,23;14,5;1;0;
27036;-17,31;-27,13;11,21;9,07;2,17;1,9;21,54;15,91;1;0;
27053;-20,48;-25,66;-31,3;-68,55;2,14;1,91;22,5;16,62;1;0;
27074;-14,8;-26,47;-14,27;-34,02;2,18;1,98;19,94;14,61;0;0;
27093;-19,95;-26,19;-18,3;-39,98;2,35;1,83;21,14;15,3;0;0;
27114;-13,24;-23,03;-29,9;15;4,29;1,82;20,73;18,97;0;0;
27136;-27,48;-23,98;-2,39;-29,85;11,1;3,46;17,64;17,83;0;0;
27156;51;-13,9;-22,21;-34,98;17,78;3,9;15,67;15,94;0;0;
27173;48,76;-24,98;-20,23;-40,72;28,17;4,4;12,62;13,59;0;0;
27190;-165,09;-27,92;-0,41;-32,87;39,75;4,5;10,23;14,25;0;0;
27208;212,85;-18,46;-9,74;-37,75;69,04;6,46;8,13;13,25;0;0;
27227;151,55;-24,97;4,94;-18,74;84,8;7,45;6,28;8,13;0;0;
27246;-65,4;-36,44;-18,33;-35,09;91,64;6,87;4,43;5,24;0;0;
27268;-226,95;-32,06;-22,44;-38,65;101,37;7,47;4,16;4,77;0;0;
27288;-41,39;-23,72;-14,81;-36,7;99,8;7,91;4,75;4,39;0;0;
27307;-65,56;-34,33;-9,06;-34,71;88,46;7,76;5,6;4,26;0;0;
27326;-23,14;-26,84;-15,56;-35,45;65,91;5,96;6,49;5,17;0;0;
27345;-88,37;-28,78;-9,89;-41,71;53,26;4,72;6,23;5,24;0;0;
27364;62,37;-27,29;-18,03;-36,68;47,68;3,76;6,24;5,21;0;0;
27382;-13,42;-24,13;-2,37;-36,71;47,1;3,58;5,36;4,81;0;0;
27398;-13,42;-24,13;-2,37;-36,71;50,16;3;4,64;4,07;0;0;
27417;-22,78;-26,83;-22,5;-37,92;43,1;2,64;3,89;2,68;0;0;
27437;-15,19;-25,7;-16,97;-35,94;41,5;2,58;3,47;2,74;0;0;
27454;-17,31;-25,72;9,72;-19,02;35,62;2,39;5,12;5,06;0;0;
27472;-15,44;-28,42;-18,04;-35,49;22,45;2,06;5,18;5,17;0;0;
27491;-22,92;-26,64;-2,3;-30,66;9,42;1,7;5,16;5,18;1;0;
27509;14,74;-27,07;-16,38;-36,94;3,41;1,49;5,41;5;1;0;
27526;-6,65;-24,68;-24,24;-49,15;9,02;1,56;5,31;5,05;1;0;
27545;-11,92;-23,33;-56,63;-54,33;10,5;1,86;8,84;7,38;1;0;
27562;-12,77;-22,75;-9,86;-28,64;12,66;1,82;8,17;5,26;1;0;
27580;-12,77;-22,75;-9,86;-28,64;14,87;1,9;9,3;5,58;1;0;
27597;4,25;-21,9;-18,73;-42,68;19,67;2,15;11,49;7,38;1;0;
27613;-34,25;-24,48;-44,97;-38,31;25,14;2,42;15,27;9,17;1;0;
27631;-10,89;-23,39;-69,71;-69,06;25,76;2,23;19,41;10,24;1;0;
27653;-23,01;-24,95;-70,41;-36,74;25,95;2,39;20,37;10,61;1;0;
27671;-29,77;-18,25;-6,84;-26,88;26,6;3,56;25,05;13,04;1;0;
27691;-16,88;-26,46;-4,6;-41,21;22,62;3,69;29,2;14,94;0;0;
27712;-22,18;-22,79;-7,46;-43,75;18,56;3,41;31,35;15,23;0;0;
27731;11,16;-34,08;14,5;32,48;13,53;3,88;28,88;16,66;0;0;
27750;-22,15;-28,4;-54,54;-54,39;18,46;4,41;26,57;16,45;0;0;
27770;-1,48;-36,52;-38,34;-66,22;22,36;4,36;24,12;16,44;0;0;
27789;-20,57;-33,61;-17,14;-39,37;21,24;4,98;18,04;15,3;0;0;
27807;-1,51;-22,47;-16,61;-35,14;22,16;5,38;14,85;15,37;0;0;
27827;-266,8;-37,02;-18,19;-38,91;30,59;7,99;12,85;14,5;0;0;
27846;-243;-7,14;-6,14;-14,65;49,04;8,18;11,47;11,18;0;0;
27864;22,13;-51,38;-5,84;-34,87;63,98;13,67;8,99;9,6;0;0;
27883;63,13;-7,28;-20,63;-34,45;70,41;13,7;6,28;6,36;0;0;
27904;-16,86;-31,81;-10,93;-36,26;83,98;13,72;6,82;5,42;0;0;
27922;50,3;-41,82;-17,18;-34,9;98,6;12,72;5,22;4,03;0;0;
27942;-26,58;-20,32;-21,18;-38,11;87,52;12,07;5,43;3,89;0;0;
27963;-4,82;-22,91;-20,31;-35,73;67,03;10,13;4,88;2,75;0;0;
27981;-19,48;-9,73;-10,45;-29,27;54,71;6,99;5,02;3,36;0;0;
28000;-19,48;-9,73;-10,45;-29,27;47,59;6,87;4,65;3,34;0;0;
28018;-14,43;-15,72;-16,4;-38,1;29,25;8,7;3,7;3,01;0;0;
28040;-17,94;-27,14;-17,68;-37,43;13,19;8,11;3,49;2,74;0;0;
28058;-41,16;-21,89;-16,56;-35,86;6,56;7,2;3,22;2,74;0;0;
28076;-16,81;-30,74;-19,51;-33,29;5,86;6,98;2,83;2,48;0;0;
28093;-15,87;-25,99;-18;-35,72;5,4;6,29;2,14;1,74;0;0;
28112;-28,93;-25,24;-15,8;-40,26;5,29;4,27;1,82;1,41;0;0;
28130;12,45;-24,94;-15,1;-34,48;6,06;2,69;1,75;1,65;0;0;
28148;-38,92;-30,47;-18,82;-42,44;12,79;2,63;1,66;1,72;0;0;
28167;-10,88;-27,32;-15,73;-38,6;11,2;2,36;1,49;1,66;0;0;
28186;-13,01;-26,21;-17,94;-35,44;12,05;2,11;1,36;1,68;0;0;
28204;-21,45;-28,37;-17,62;-35,25;12,57;1,88;1,41;1,74;0;0;
28222;-47,97;-30,89;-18,44;-35,24;15,36;2,16;1,26;1,49;0;0;
28241;-8,83;-24,89;-15,37;-37,56;13,49;2,19;1,28;1,36;0;0;
28259;-8,83;-24,89;-15,37;-37,56;10,22;1,94;1,19;1,17;0;0;
28276;-14,46;-29,13;-15,29;-37,95;9,35;1,87;1,19;1,21;0;0;
28293;-17,73;-26,91;-13,47;-38,44;8,84;1,83;1,25;1,2;0;0;
28311;-14,73;-25,68;-17,26;-36,22;7,16;1,71;1,21;1,14;0;0;
28327;-14,73;-25,68;-17,26;-36,22;3,95;1,63;1,19;1,13;0;0;
28346;-13,33;-27,53;-15,17;-36,25;2,48;1,67;1,31;1,21;0;0;
28364;-38,04;-29,1;-16,77;-36,27;2,55;1,76;1,36;1,26;0;0;
28381;-38,1;-24,38;-16,51;-36,22;6,59;1,88;1,49;1,11;0;0;
28398;-38,1;-24,38;-16,51;-36,22;10,59;1,94;1,68;1,09;0;0;
28415;-23,01;-28,96;-17,78;-32,9;10,9;1,85;1,73;1,28;0;0;
28434;-17,65;-25,19;-16,95;-34,99;11;1,9;1,83;1,31;0;0;
28452;-14,72;-24,86;-17,07;-32,96;10,87;1,82;1,68;1,3;0;0;
28471;-15,77;-25,56;-18,12;-38,92;8,72;1,53;1,61;1,22;0;0;
28489;-15,14;-30,29;-16,63;-37,2;4,67;1,42;1,44;1,34;0;0;
28507;-13,39;-22,27;-15,71;-35,43;2,34;1,65;1,21;1,24;0;0;
28530;-20,21;-25,29;-17,08;-34,85;2,37;1,55;1,06;1,3;0;0;
28548;-16,63;-28,18;-17,05;-35,77;2,54;1,5;1,06;1,3;0;0;
28567;-14,74;-25,47;-18,11;-35,39;2,4;1,39;1,01;1,32;0;0;
28584;-13,19;-28,09;-17,78;-37,55;2,48;1,31;0,89;1,51;0;0;
28602;-16,09;-24,98;-14,5;-38,44;2,26;1,28;1,07;1,58;0;0;
28618;-16,09;-24,98;-14,5;-38,44;1,95;1,19;1,25;1,64;0;0;
28636;-14,03;-34,23;-14,78;-34,62;9,49;1,99;1,54;1,76;0;0;
28655;8,8;-26,49;-15,05;-24,16;17,09;2,32;1,9;2,54;0;0;
28673;-18,14;-26,71;-17,94;-32,77;19,97;2,42;2,01;2,61;0;0;
28692;-2,81;-20,68;-17,98;-32,05;28,78;2,84;2,02;2,74;0;0;
28711;-121,52;-17,57;-12,33;-36,45;41,49;3,99;2,11;2,92;0;0;
28730;-49,76;-28,63;-17,69;-44,56;50,08;5,38;1,95;3,18;1;0;
28748;-76,17;-26,31;-28,82;-43,07;55,95;5,64;2,27;3,13;1;0;
28768;-15,32;-23,75;-16,71;-32,83;56,98;6,06;2,43;2,57;1;0;
28789;40,54;-26,87;-9,7;-35,1;61,39;6,99;2,8;2,31;1;0;
28807;-147,93;-28,97;-14,36;-38,82;66,37;7,26;3,15;2,57;1;0;
28825;-69,25;-28,95;0,92;-31,93;64,51;6,59;5,89;3,43;1;0;
28846;39,8;-30,56;-28,23;-50,63;68,2;5,79;8,66;5,36;1;0;
28863;-120,77;-30,34;-7,95;-38,9;70,72;6,02;9,79;5,7;1;0;
28887;72,33;-27,33;-13,82;-29,7;83,23;5,7;12,11;8,25;1;0;
28907;-10,69;-29,66;-37,55;-52,15;73,8;5,38;15,2;10,09;1;0;
28924;13,52;-25,13;-26,56;-47,61;65,94;4,69;16,98;11,55;1;0;
28942;-0,21;-32,44;3,59;-19,07;58,13;4,77;18,88;13,1;1;0;
28959;-0,21;-32,44;3,59;-19,07;45,57;5,12;18,96;13,78;1;0;
28978;-22,61;-30,06;-41,7;-38,38;45,38;5,09;19,97;15,07;1;0;
28997;17,32;-22,34;-26,23;4,2;48,65;5,38;19,04;15,23;1;0;
29016;-28,46;-27,07;10,95;30,79;44,81;5,36;20,81;21,22;1;0;
29033;-53,25;-27,86;-44,02;-55,77;43,73;4,98;21,91;33,74;1;0;
29050;42,02;-20,79;-38,49;-27,78;44,33;4,75;21,56;33,57;0;0;
29069;26,36;-24,61;-19,84;-21,9;44,96;4,23;21,02;31,91;0;0;
29089;36,89;-32,46;-17,89;-38,19;33,86;3,79;17,8;29,87;0;0;
29107;-22,6;-19,67;-14,51;-33,25;34,06;3,42;15,45;24,14;0;0;
29124;32,3;-32,11;-2,18;-32,21;38,56;3,58;9,2;11,19;0;0;
29141;-78,29;-22,55;-15,78;-36,53;38,73;3,95;7,03;6,39;0;0;
29159;-78,29;-22,55;-15,78;-36,53;35,76;4,25;4,78;5,12;0;0;
29177;-18,85;-24,12;-18,15;-35,49;35,9;4,18;3,96;4,19;0;0;
29196;-12,58;-26,27;-18,68;-36,49;27,25;4,07;3,51;3,57;0;0;
29217;-8,75;-27,2;-21,19;-35,41;22,26;3,8;3,56;3,42;0;0;
29234;-26,17;-29,39;-17,17;-36,22;15,38;3,03;3,27;2,76;0;0;
29252;-15,43;-25,01;-15,82;-32,9;11,1;2,4;2,72;2,14;0;0;
29272;-15,41;-20,9;-19,72;-36,78;6,44;2,51;2,34;1,48;0;0;
29290;-19,09;-23,25;-15,42;-36,3;5,48;2,46;2,4;1,5;0;0;
29307;-16,43;-27,07;-18,52;-36,64;4,09;2,23;2,31;1,68;0;0;
29326;-15,8;-24,31;-16,76;-38,57;3,29;2,25;2,13;1,55;0;0;
29346;-19,58;-22,84;-14,26;-36,71;1,93;2,2;1,74;1,45;0;0;
29365;-18,7;-27,91;-15,51;-36,1;1,77;2,26;1,77;1,4;0;0;
29382;-19,62;-28,07;-18,1;-36,08;1,77;1,82;1,75;1,36;0;0;
29403;-14,67;-25,48;-15,22;-37,93;1,59;1,69;1,92;1,37;0;0;
29420;-14,67;-25,48;-15,22;-37,93;1,46;1,82;1,8;1,13;0;0;
29438;-18,15;-26,88;-18,98;-34,59;1,39;1,93;1,85;1,44;0;0;
29457;-18,06;-26,89;-13,71;-34,49;1,52;1,73;1,81;1,61;0;0;
29477;-18,62;-26,8;-14,48;-37,95;1,58;1,68;1,88;1,6;0;0;
29497;-16,08;-27,9;-14,37;-34,48;1,75;1,61;1,65;1,69;0;0;
29516;-16,09;-25,35;-17,45;-38,66;1,8;1,56;1,56;1,67;0;0;
29533;-17,77;-25,22;-16,24;-37,19;1,8;1,63;1,51;1,59;0;0;
29553;-14,48;-27,69;-12,85;-37,11;1,9;1,61;1,35;1,41;0;0;
29572;-11,29;-27,97;-14,67;-36,72;2,02;1,64;1,54;1,29;0;0;
29591;-18,93;-28,17;-18,77;-36,1;2,11;1,58;1,57;1,29;0;0;
29607;-15,56;-28,92;-15,57;-35,31;2,02;1,57;1,48;1,12;0;0;
29625;-16,07;-27,35;-14,2;-35,87;2,11;1,53;1,5;1,09;0;0;
29644;-20,04;-28,4;-16,58;-35,22;2,15;1,5;1,55;1,14;0;0;
29662;-16,1;-26,47;-18,36;-37,3;2,13;1,48;1,47;1,16;0;0;
29679;-16,1;-26,47;-18,36;-37,3;2,16;1,55;1,39;1,09;0;0;
29697;-15,83;-30,23;-17,87;-35,62;2,12;1,52;1,27;1,21;0;0;
29715;-21,55;-26,5;-17,97;-36,97;2,07;1,42;1,27;1,34;0;0;
29732;-14,54;-26,64;-18,5;-35,59;1,91;1,58;1,32;1,19;0;0;
29751;-19,56;-27,85;-16,26;-34,08;1,77;1,6;1,22;1,24;0;0;
29770;-19,48;-23,76;-18,91;-36,24;1,57;1,57;1,25;1,26;0;0;
29789;-16,67;-27,04;-13,81;-36,22;1,54;1,6;1,27;1,24;0;0;
29807;-18,49;-28,71;-18,58;-37,32;1,54;1,64;1,39;1,26;0;0;
29824;-17,36;-26,82;-16,77;-36,42;1,48;1,52;1,45;1,26;0;0;
29842;-21,49;-25,55;-16,72;-36,7;1,52;1,54;1,4;1,34;0;0;
29859;-21,49;-25,55;-16,72;-36,7;1,69;1,61;1,47;1,29;0;0;
29878;-16,37;-25,01;-17,22;-36,61;1,63;1,57;1,51;1,41;0;0;
29898;-17,51;-25,96;-16,69;-32,91;1,6;1,41;1,43;1,44;0;0;
29916;-16,59;-25,33;-16,42;-34,68;1,56;1,43;1,38;1,37;0;0;
29933;-15,97;-28,55;-17,64;-34,2;1,58;1,42;1,26;1,4;0;0;
29951;-16,55;-24,99;-19,06;-37,13;1,56;1,34;1,26;1,33;0;0;
29969;-16,91;-23,52;-12,98;-35,23;1,57;1,33;1,33;1,24;0;0;
29987;-19,15;-24,13;-16,15;-36,95;1,42;1,31;1,41;1,27;0;0;
30004;-15,71;-27,54;-15,85;-35,6;1,48;1,35;1,38;1,15;0;0;
30021;-15,71;-27,54;-15,85;-35,6;1,47;1,32;1,33;1,16;0;0;
30037;-18,41;-26,22;-17,98;-33,97;1,54;1,3;1,35;1,32;0;0;
30054;-15,02;-24,76;-14,96;-39,33;1,63;1,31;1,21;1,42;0;0;
30073;-22,28;-22,17;-17,24;-36,12;1,69;1,3;1,2;1,56;0;0;
30092;-21,46;-28,54;-13,08;-35,34;2,05;1,28;1,09;1,49;0;0;
30110;-16,68;-26,81;-16,25;-36,77;2,18;1,4;1,27;1,47;0;0;
30127;-14,82;-26,38;-18,83;-37,39;2,27;1,56;1,42;1,52;0;0;
30150;-19,9;-25,36;-15,12;-37,69;2,4;1,5;1,56;1,52;0;0;
30167;-20,61;-26,82;-16,02;-29,42;2,34;1,53;1,61;1,46;0;0;
30184;-17,62;-25,67;-18,48;-36,59;2,21;1,54;1,66;1,52;0;0;
30207;-17,16;-23,22;-18,86;-34,34;2,04;1,53;1,56;1,71;0;0;
30226;-15,7;-24,86;-18,18;-34,89;1,89;1,42;1,45;1,8;0;0;
30244;-17,18;-25,24;-15,78;-32,2;1,77;1,45;1,3;1,91;0;0;
30260;-17,18;-25,24;-15,78;-32,2;1,8;1,56;1,2;1,9;0;0;
30279;-20,32;-24,72;-17,53;-35,74;1,88;1,48;1,34;1,73;0;0;
30296;-15,32;-28,4;-16,56;-36,78;1,78;1,59;1,28;1,54;0;0;
30315;-20,61;-24,25;-14,6;-37,14;1,92;1,68;1,45;1,62;0;0;
30334;-15,86;-25,95;-15,53;-38,3;2,3;1,77;1,52;1,48;0;0;
30352;-15,27;-23,96;-16,71;-34,27;2,36;1,63;1,54;1,33;0;0;
30371;-16,09;-27,52;-15,55;-35,25;2,19;1,63;1,51;1,35;0;0;
30388;-17,5;-26,21;-17,39;-38,78;2,04;1,61;1,53;1,35;0;0;
30408;-17,65;-25,33;-17,58;-39,61;2,01;1,55;1,74;1,6;0;0;
30427;-17,35;-23,52;-14,09;-31,05;1,78;1,31;1,64;1,54;0;0;
30446;-17,17;-24,86;-13,79;-39,11;1,62;1,35;1,78;1,51;0;0;
30465;-12,41;-22,91;-15,91;-32,12;1,62;1,27;1,71;1,66;0;0;
30484;-17,77;-27,6;-14,31;-36,23;1,86;1,3;1,87;1,67;0;0;
30501;-17,53;-28,62;-16,48;-33,78;1,85;1,3;1,76;1,88;0;0;
30518;-17,53;-28,62;-16,48;-33,78;1,8;1,35;1,64;1,91;0;0;
30534;-14,66;-23,78;-14,93;-35,88;1,8;1,3;1,54;1,93;0;0;
30553;-10,77;-26,81;-16,14;-37,06;1,99;1,32;1,53;1,85;0;0;
30570;-21,1;-25,56;-12,69;-33,47;1,82;1,32;1,44;1,9;0;0;
30590;-16,8;-28,88;-14,66;-37,38;1,62;1,36;1,54;1,88;0;0;
30609;-21,4;-27,2;-18,07;-37,22;1,86;1,41;1,48;1,66;0;1;
30627;-14,09;-28,17;-18,73;-42,3;1,97;1,43;1,43;1,58;0;1;
30646;-16,93;-27,18;-13,42;-30,56;2,09;1,34;1,49;1,91;0;1;
30665;-14,28;-24,83;-22;-40,99;1,89;1,33;1,74;2,19;0;1;
30687;-19,69;-28,76;-22,66;-31,82;1,88;1,24;2,33;2,98;0;1;
30704;-17,68;-28,93;-23,49;-58,75;1,97;1,43;3,12;3,77;0;1;
30721;-19,31;-24,13;-10,99;-38,65;1,77;1,48;3,64;4,23;0;1;
30740;-19,31;-24,13;-10,99;-38,65;1,8;1,68;4,04;4,61;0;1;
30759;-18,58;-28,55;-25,81;-49,23;2,04;1,85;6,55;9,74;0;1;
30776;-18,51;-23,16;-14,04;56,28;2,53;1,99;8,21;28,87;0;1;
30794;-17,97;-26,82;-17,77;-13,9;2,61;1,95;9,46;34,54;0;1;
30813;-15,46;-27,92;-7,32;-157,64;2,48;1,7;10,94;40,02;0;0;
30833;-16,46;-22,73;-20,71;-49,61;3,37;1,64;13,45;49,16;0;0;
30854;-34,49;-34,9;-21,77;-43,04;8,99;2,29;14,28;50,24;0;0;
30872;16,91;7,52;-42,66;-38,01;11,93;4;16,01;46,67;0;0;
30891;11,43;-32,82;-17,27;-39,53;16,02;13,95;14,64;28,86;0;0;
30910;20,73;-451,79;-18,71;-42,14;23,08;39,24;12,64;22,7;0;0;
30929;-26,34;-121,3;-12,12;-38,41;27,13;77,26;10,53;14,07;0;0;
30947;-48,39;-96,84;-14,62;-40,21;27,89;88,32;8,19;7,22;0;0;
30968;14,95;-15,44;-25,02;-35,8;26,93;117,93;6,83;5,35;0;0;
30990;-12,21;-78;-15,92;-35,74;25,02;116,2;4,05;3,34;0;0;
31010;-22;-32,28;-16,04;-36,59;21,63;101,69;3,67;2,94;0;0;
31028;-15,2;-24,41;-12,33;-34,69;15,43;63,47;2,85;2,34;0;0;
31047;-0,19;-21,62;-16,12;-37,28;13;43,57;2,62;1,61;0;0;
31065;1,8;-27,58;-17;-35,73;13,47;29,29;2,42;1,48;0;0;
31084;-9,84;-30,09;-16,45;-35,6;11,06;7,14;2,27;1,27;0;0;
31102;13,67;-21,28;-14,2;-38,8;15,1;4,63;2,22;1,37;0;0;
31118;13,67;-21,28;-14,2;-38,8;19;4,76;2,33;1,56;0;0;
31136;2,8;-23,65;-11,89;-34,89;19,85;5,01;2,46;1,45;0;0;
31155;-102,18;-36,55;-17,14;-33,89;25,71;5,38;2,31;1,48;0;0;
31173;10,39;-24,25;-15,01;-38,36;26,46;4,81;2,23;1,65;0;0;
31192;-0,24;-19,97;-18,76;-35,79;26,88;4,1;1,93;1,73;0;0;
31211;-26,84;-28,36;-15,77;-38,78;24,82;3,17;1,82;1,63;0;0;
31229;-20;-26,62;-18,95;-34,12;24,02;2,7;1,66;1,7;0;0;
31248;7,91;-25,48;-15,96;-37,56;21,47;2,31;1,31;1,69;0;0;
31269;-52,33;-24,71;-14,74;-37,69;16,75;1,69;1,39;1,61;0;0;
31288;-6,95;-25,87;-17,31;-33,52;15,94;1,71;1,34;1,31;0;0;
31308;-5,65;-27,18;-11,44;-34,7;14,3;1,69;1,41;1,47;0;0;
31324;-33,29;-26,91;-15,06;-33,64;12,39;1,82;1,39;1,58;0;0;
31342;-13,47;-24,14;-17,89;-33,28;14,99;1,9;1,36;1,78;0;0;
31359;-13,47;-24,14;-17,89;-33,28;16,11;1,97;1,35;1,91;0;0;
31378;-22,04;-26,82;-18,14;-37,94;13,2;2,17;1,33;1,87;0;0;
31396;-20,12;-21,85;-14,82;-35,98;11,78;2,31;1,28;1,92;0;0;
31416;-15,42;-26,96;-18,02;-37,09;10,87;2,05;1,12;1,87;0;0;
31433;-20,95;-23,96;-17,01;-34,77;9,5;1,99;1,09;1,61;0;0;
31452;-10,17;-25,71;-16,08;-37,56;6,67;1,93;1,12;1,43;0;0;
31470;-20,45;-24,12;-16,87;-35,86;4,77;1,84;1,11;1,31;0;0;
31490;-18,24;-27,2;-19,03;-38,13;4,58;1,72;1,33;1,35;0;0;
31507;-18,16;-28,35;-20,39;-34,68;4,5;1,69;1,56;1,38;0;0;
31526;-13,77;-22,74;-13,21;-35,38;4,34;1,64;1,73;1,25;0;0;
31543;-11,12;-23,52;-15,16;-36,7;4,56;1,64;1,76;1,2;0;0;
31561;-9,57;-27,89;-18,24;-33,42;4,5;1,52;1,84;1,21;0;0;
31579;-9,57;-27,89;-18,24;-33,42;3,53;1,48;1,9;1,36;0;0;
31595;-14,13;-27,19;-13,03;-37,58;3,93;1,5;1,81;1,36;0;0;
31613;-15,13;-26,39;-17,46;-37,49;4,15;1,62;1,72;1,47;0;0;
31631;-14,28;-21,82;-17,51;-34,49;3,61;1,71;1,73;1,58;0;0;
31648;-15,1;-25,6;-15,11;-34,26;3,79;2;1,87;1,62;0;0;
31665;-16,83;-27,91;-16,36;-36,25;3,49;2,03;1,74;1,59;0;0;
31684;-15,83;-26,18;-16,87;-37,75;2,96;1,98;1,54;1,5;0;0;
31702;-25,01;-27,01;-14,15;-35,91;2,8;1,87;1,43;1,38;0;0;
31718;-25,01;-27,01;-14,15;-35,91;3,17;1,75;1,44;1,46;0;0;
31737;-18,14;-27,94;-19,85;-36,41;3,03;1,65;1,61;1,6;0;0;
31755;-22,03;-28,18;-12,4;-35,06;3,03;1,47;2,16;2,21;0;0;
31776;-20,2;-27,91;-14,01;-36,58;3,11;1,52;2,29;2,14;0;0;
31794;-21,49;-25,23;-20,66;-32,53;3,34;1,77;2,32;2,1;0;0;
31813;-20,53;-26,76;-19,95;-36,93;3,06;1,79;2,36;2,17;0;0;
31830;-20,21;-25,82;-17,62;-35,92;2,67;1,76;2,42;2,33;0;0;
31849;-17,94;-26,82;-15,43;-34,89;3,06;1,73;1,9;2,12;0;0;
31869;-15,14;-24,87;-14,45;-37,93;2,75;1,89;1,46;1,53;0;0;
31891;-23,33;-24,24;-16,11;-34;2,66;1,72;1,41;1,54;0;0;
31909;-16,16;-28,03;-16,64;-39,45;2,58;1,61;1,44;1,64;0;0;
31926;-15,11;-26,45;-16,33;-35,26;2,55;1,62;1,26;1,63;0;0;
31945;-16,76;-28,16;-17,38;-37,62;2,27;1,51;1,46;1,45;0;0;
31962;-15,44;-24,51;-14,15;-33,77;2,23;1,58;1,6;1,5;0;0;
31982;-14,09;-27,2;-15,11;-33,28;2,21;1,51;1,51;1,46;0;0;
32000;-14,09;-27,2;-15,11;-33,28;2,09;1,48;1,42;1,47;0;0;
32018;-15,92;-27,38;-15,79;-34,7;2,11;1,32;1,39;1,56;0;0;
32036;-14,44;-23,13;-14,57;-36,97;1,94;1,51;1,37;1,41;0;0;
32053;-12,63;-28,67;-18,96;-36,95;2,02;1,6;1,26;1,48;0;0;
32071;-17,08;-23,55;-14,76;-36,4;2,19;1,5;1,18;1,51;0;0;
32089;-21,36;-29,71;-13,75;-34,26;2,2;1,56;1,31;1,63;0;0;
32108;-16,64;-26,63;-16,21;-35,97;2,2;1,62;1,31;1,47;0;0;
32126;-18,13;-24,86;-16,41;-33,03;2,37;1,67;1,24;1,58;0;0;
32143;-13,23;-28,23;-17,84;-34,87;2,46;1,71;1,25;1,67;0;0;
32160;-13,23;-28,23;-17,84;-34,87;2,55;1,8;1,27;1,66;0;0;
32178;-17,34;-26,65;-17,7;-37,93;2,55;1,71;1,23;1,61;0;0;
32196;-15,32;-26,4;-17,06;-34,88;2,45;1,65;1,15;1,6;0;0;
32216;-16,9;-27,08;-12,13;-31,42;2,32;1,71;1,24;1,48;0;0;
32234;-16,9;-28,52;-14,8;-42,59;2,29;1,65;1,27;1,55;0;0;
32252;-20,28;-28,05;-16,05;-34,93;2,29;1,56;1,28;1,55;0;0;
32270;-18,36;-25,52;-17,1;-37,99;2,2;1,52;1,31;1,75;0;0;
32290;-20,03;-26,09;-14,87;-36,34;2,21;1,42;2,02;2,45;0;0;
32308;-18,17;-25,82;-28,04;-53,54;2,08;1,3;5,61;5,15;0;0;
32325;-21,54;-27,65;21,05;-11,64;2,41;1,35;7,84;7,38;0;0;
32342;-19,11;-27,78;9,34;-22,27;2,46;1,34;11,13;9,35;0;0;
32359;-19,11;-27,78;9,34;-22,27;2,35;1,37;14,51;11,41;0;0;
32377;-17,59;-25,06;-23,7;-35,42;2,43;1,37;14,5;10,93;0;0;
32394;-23,45;-25,84;-12,46;-37,4;2,64;1,4;16,39;12,56;0;0;
32412;-14,38;-30,06;13,04;-27,21;2,64;1,61;14,16;10,36;0;0;
32431;-18,57;-28,9;-108,2;-67,69;2,78;1,41;15,25;9,62;0;0;
32449;-19,5;-23,88;-2,24;-32,67;2,7;1,43;16,27;9,85;0;0;
32468;-21,19;-27,14;-63,29;-58,48;2,58;1,44;16,96;11,7;0;0;
32487;-15,11;-29,69;-53,85;-50,55;2,6;1,38;21,67;13,3;1;0;
32505;-20,84;-27,18;-12,69;-37,33;2,41;1,54;23,4;13,99;1;0;
32523;-22,32;-22,89;-29,69;-37,87;2,21;1,45;27,91;16,03;0;0;
32541;-20,14;-26,36;-55,38;-51,76;2,26;1,41;24,56;14,48;0;0;
32563;-21,81;-23,39;-0,7;-16,51;2,28;1,5;24,37;13;0;0;
32585;-20,89;-24,16;-7,73;-31,2;2,34;1,62;23,59;12,23;0;0;
32606;-17,4;-25,89;-25,81;-43,1;2,35;1,59;20,07;11,18;0;0;
32623;-15,98;-24,42;-9,82;-5,83;2,33;1,61;16,63;12,17;0;0;
32642;-22,6;-26,08;1,68;-26,09;2,1;1,66;13,74;13,16;0;0;
32659;-22,6;-26,08;1,68;-26,09;2,14;1,74;13;15,03;0;0;
32676;52,54;-14,12;16,66;-12,53;6,35;2,17;13,89;16,25;0;0;
32694;69,61;-16,58;-20,48;-37,87;20,23;3,02;12,77;15,32;0;0;
32712;123,36;-8,09;-21,34;-43,41;34,53;5,1;10,85;13,01;0;0;
32731;-13,98;-33,41;-20,08;-32,84;58,51;7,65;9,87;10,58;0;0;
32754;-79,19;-39,66;-20,4;-38,05;78,07;11,17;8,62;8,39;0;0;
32774;22,67;-16,18;-14,92;-37,18;86,56;13,3;7,18;5,49;0;0;
32791;-9,38;-24,63;-18,98;-34,76;86,87;12,96;4,93;4,54;0;0;
32808;19,11;-32,33;-18,24;-36,58;74,57;12,35;4,22;4,06;0;0;
32827;-16,22;-26,16;-5,7;-22,99;53,62;12,33;4,7;4,23;0;0;
32846;-12,36;-31,27;-21,43;-36,61;35,04;9,3;4,36;4,14;0;0;
32863;-12,36;-31,27;-21,43;-36,61;18,47;7,03;4,33;3,79;0;0;
32887;-14,68;-25,6;-18,59;-33,86;13,62;5,88;3,88;3,1;0;0;
32906;-20,36;-26,34;-15,05;-36,29;7,45;5,96;3,37;2,82;0;0;
32922;-8,97;-26,03;-17,53;-36,96;4,39;3,11;3,41;2,56;0;0;
32942;-20,11;-29,25;-19,36;-36,31;3,49;2,68;2,54;1,76;0;0;
32960;-20,11;-29,25;-19,36;-36,31;2,71;2,43;1,86;1,42;0;0;
32978;-17,7;-23,14;-16,65;-34,89;2,41;2,21;1,57;1,57;0;0;
32996;-14,46;-25,91;-14;-35,61;2,41;1,79;1,47;1,57;0;0;
33015;-21,31;-27,19;-20,08;-35,25;2,36;1,78;1,39;1,64;0;0;
33032;-16,23;-25,65;-18,38;-35,59;2,49;1,75;1,48;1,68;0;0;
33052;-19,52;-20,1;-17,87;-38,29;3,79;1,86;1,49;1,65;0;0;
33070;-13,26;-25,91;-15,34;-36,1;4,9;2,01;1,36;1,55;0;0;
33089;-16,02;-27,14;-15,35;-36,68;4,98;2,05;1,35;1,32;0;0;
33108;-20,44;-25,67;-21,12;-36,22;5,2;1,99;1,68;1,31;0;0;
33124;-18,15;-26,1;-16,63;-37,93;5,33;1,91;1,79;1,47;0;0;
33142;-14,9;-26,43;-15,59;-33,89;5,05;1,82;1,74;1,46;0;0;
33161;-14,9;-26,43;-15,59;-33,89;3,17;1,39;1,85;1,38;0;0;
33178;-19,34;-25,36;-12,37;-36,81;2,76;1,44;1,86;1,44;0;0;
33196;-18,5;-23,88;-18,84;-33,28;2,75;1,31;1,91;1,57;0;0;
33215;-19,86;-27,17;-13,62;-32,38;2,47;1,41;1,76;1,63;0;0;
33231;-18,05;-28,33;-16,97;-38,04;2,37;1,38;1,74;1,6;0;0;
33252;-18,48;-27,18;-17,2;-34,84;2,39;1,42;1,7;1,52;0;0;
33268;-14,2;-25,1;-18,1;-34,08;2,48;1,4;1,77;1,6;0;0;
33286;-14,6;-24,52;-17,44;-36,44;2,46;1,47;1,43;1,57;0;0;
33304;-19,26;-24,67;-13,59;-37,7;2,4;1,49;1,45;1,63;0;0;
33323;-22,98;-26,47;-18,33;-36,21;2,47;1,38;1,44;1,53;0;0;
33341;-22,98;-26,47;-18,33;-36,21;2,68;1,37;1,47;1,52;0;0;
33357;-18,42;-25,72;-14,96;-35,85;2,61;1,52;1,48;1,51;0;0;
33375;-17,16;-27,63;-16,51;-36,26;2,56;1,42;1,36;1,41;0;0;
33393;-21,2;-23,51;-16,91;-38,29;2,44;1,41;1,5;1,46;0;0;
33411;-16,9;-25,69;-17,66;-37,94;2,47;1,5;1,53;1,53;0;0;
33431;-16,16;-26,87;-15,32;-37,92;2,4;1,51;1,45;1,42;0;0;
33449;-15,81;-27,38;-18,16;-35,79;2,1;1,54;1,25;1,29;0;0;
33465;-17,28;-29,36;-13,75;-33,46;1,94;1,53;1,38;1,4;0;0;
33486;-19,51;-28,86;-18,17;-35,96;1,81;1,51;1,6;1,26;0;0;
33505;-26,17;-29,82;-14,02;-34,15;2,18;1,46;1,71;1,1;0;0;
33522;-22,41;-22,33;-16,01;-35,07;2,37;1,64;1,78;1,04;0;0;
33539;-22,41;-22,33;-16,01;-35,07;2,71;1,74;1,84;1,04;0;0;
33562;-13,17;-26,14;-19,32;-38,65;2,66;1,65;1,87;1,07;0;0;
33581;-28,11;-24,12;-19,12;-35,24;3,14;1,75;1,77;1,08;0;0;
33600;-28,11;-24,12;-19,12;-35,24;3,46;1,75;1,71;1,14;0;0;
33619;-21,31;-24,71;-19,02;-36,57;3,14;1,64;1,64;1,12;0;0;
33636;-16,9;-24,24;-16,58;-36,63;3,01;1,43;1,81;1,23;0;0;
33656;-13,15;-29,12;-21,16;-37,75;2,89;1,37;2;1,27;0;0;
33674;-16,43;-23,15;-19,38;-35,4;2,9;1,6;1,96;1,21;0;0;
33694;-16,98;-24,61;-16,26;-34,08;2,69;1,73;2,03;1,25;0;0;
33711;-16,6;-26,2;-15,12;-33,86;2,42;1,72;1,91;1,39;0;0;
33729;-21,7;-23,03;-15,48;-38,19;2,36;1,92;1,81;1,4;0;0;
33746;-17,65;-28,6;-14,38;-34,28;2,23;2,15;1,6;1,37;0;0;
33763;-15,67;-28,39;-15,34;-35,78;2,16;2;1,59;1,32;0;0;
33782;-16,5;-28,71;-16,34;-34,36;2,2;1,92;1,56;1,37;0;0;
33798;-16,5;-28,71;-16,34;-34,36;2,34;2;1,61;1,29;0;0;
33817;-14,83;-26,98;-15,85;-36,1;2,35;1,94;1,78;1,26;0;0;
33838;-18,91;-29,18;-17,79;-37,94;2,83;1,67;1,75;1,08;0;0;
33856;-16,07;-26,9;-14,91;-34,69;3,21;1,69;1,63;1,18;0;0;
33873;-16,72;-24,88;-18,12;-33,45;3,14;1,56;1,66;1,23;0;0;
33891;-15,69;-24,86;-15,11;-37,59;2,99;1,36;1,58;1,27;0;0;
33912;-12,03;-25,69;-17,97;-35,97;3,01;1,36;1,37;1,22;0;0;
33930;-18,52;-25,03;-15,13;-34,7;2,92;1,46;1,34;1,43;0;0;
33950;-15,91;-28,17;-16,53;-35,5;2,57;1,58;1,31;1,35;0;0;
33967;-19,12;-28,56;-15,57;-35,07;2,46;1,49;1,26;1,48;0;0;
33986;-15,42;-27,73;-15,03;-38,6;2,46;1,54;1,29;1,53;0;0;
34003;-19,7;-27,19;-19,29;-36,86;2,29;1,55;1,14;1,51;0;0;
34021;-16,44;-27,32;-17,57;-33,78;2,1;1,37;1,17;1,82;0;0;
34039;-16,44;-27,32;-17,57;-33,78;2,22;1,2;1,25;1,92;0;0;
34056;-12,59;-26,16;-16,39;-36,22;2,27;1,14;1,38;1,8;0;0;
34073;-23,29;-28,17;-15,52;-35,25;2,3;1,17;1,38;1,77;0;0;
34092;-18,39;-26,18;-15,22;-33,9;2,66;1,25;1,34;1,74;0;0;
34110;-17,78;-27,19;-19,35;-34,88;2,96;1,47;1,44;1,57;0;0;
34126;-19,74;-28,89;-17,28;-36,6;2,98;1,62;1,38;1,37;0;0;
34144;-16,64;-27,3;-18,18;-37,59;2,66;1,65;1,39;1,2;0;0;
34160;-16,64;-27,3;-18,18;-37,59;2,4;1,86;1,51;1,14;0;0;
34177;-14,48;-25,84;-15,77;-36,58;2,57;1,75;1,5;1,08;0;0;
34194;-31,31;-25,66;-12,75;-42,03;2,8;1,7;1,58;1,05;0;0;
34213;-12,85;-24,88;-16,55;-37,8;2,88;1,59;1,5;1,14;0;0;
34230;-21,57;-24,31;-17,36;-34,28;3,16;1,63;1,42;1,15;0;0;
34247;-14,46;-25,51;-19,16;-39,14;3,41;1,59;1,32;1,2;0;0;
34264;-17,42;-24,65;-14,32;-34,63;3,32;1,53;1,35;1,29;0;0;
34282;-16,42;-26,55;-15,25;-37,76;3,05;1,64;1,51;1,27;0;0;
34303;-17,21;-26,83;-18,19;-35,24;2,46;1,66;1,56;1,24;0;0;
34319;-17,21;-26,83;-18,19;-35,24;2,55;1,65;1,65;1,25;0;0;
34338;-14,82;-28,44;-17,19;-35,98;2,63;1,53;2,4;2,23;0;0;
34356;-17,02;-25,06;-17,84;-35,59;3,06;1,64;2,34;2,17;0;0;
34375;-14,83;-23,28;-16,34;-34,15;2,99;1,58;2,27;2,32;0;0;
34391;-17,47;-25,34;-17,99;-37,94;2,86;1,69;2,14;2,47;0;0;
34410;-21,47;-25,56;-16,87;-33,08;2,58;1,71;2,27;2,7;0;1;
34429;-15,61;-27,66;-16,88;-38,46;2,56;1,7;1,68;2,02;0;1;
34448;-10,7;-26,42;-12,8;-31,98;2,68;1,54;1,72;2,08;0;1;
34465;-33,94;-26,89;3,63;-18,91;3,42;1,67;2,9;2,83;0;1;
34485;23,74;-19,56;-13,32;-35,27;5,49;2,15;3,24;2,91;0;1;
34503;-0,06;-39,31;-14,88;-32,73;9,94;3,37;3,21;3,24;0;1;
34522;-12,61;-55,13;-20,38;-36,83;15,66;12,59;3,97;4,07;0;1;
34540;-12,61;-55,13;-20,38;-36,83;21,25;21,79;4,91;4,96;0;1;
34557;39,92;-15,43;-56,1;-43,62;25,47;35,78;5,45;5,99;0;1;
34575;14,97;-20,69;-12,5;-20,09;30,86;41,3;6,76;7,46;0;1;
34593;2,22;-35,38;-30,58;-6,28;30,25;49,44;9,68;19,14;0;1;
34612;-4,58;-35,07;-36,08;-26;26,85;47,65;15,12;32,23;0;1;
34630;-22,7;-23,06;-30,77;-45,36;21,36;39,35;17,29;34,04;0;1;
34648;-18,97;-46,47;-20,35;-48,37;17,09;27,48;20,15;37,61;0;0;
34668;-8,99;-44,71;-15,41;-36,84;13,79;24,25;18,89;37,51;0;0;
34690;-8,5;18,15;-18,35;-29,34;8,98;25,39;17,25;29,01;0;0;
34710;-25,09;-25,51;-12,04;-35,88;7,03;18,27;13,29;17,7;0;0;
34727;-19,16;-20,22;-14,1;-35,77;6,76;16,66;9;11,08;0;0;
34747;-6,78;-26,41;-15,82;-35,82;7,12;16,65;4,68;5,09;0;0;
34764;6,64;-23;-16,39;-37,21;9,14;14,36;3,83;3,36;0;0;
34785;-45,75;-23,78;-19,45;-37,56;9,37;7,84;2,82;1,76;0;0;
34808;-10,48;-27,01;-15,54;-34,46;9,8;3,29;2,3;1,44;0;0;
34828;-29,7;-22,45;-22,75;-41,61;11,24;3,43;2,3;1,44;0;0;
34847;-32,13;-30,86;-20,34;-43,59;13,71;3,5;2,33;1,66;0;0;
34867;-9,47;-22,17;-16,6;-36,21;13,07;2,6;2,3;1,75;0;0;
34888;-26,21;-25,72;-17,12;-38,08;12;2,81;2,51;2,04;0;0;
34906;-17,51;-29,16;-18,74;-38,3;10,37;3,03;2,39;1,92;0;0;
34924;-19,48;-26,56;-15,73;-35,43;8,59;2,96;2,41;2,01;0;0;
34945;-19,74;-23,49;-17,03;-33,19;6,79;2,69;2,58;2,75;0;0;
34967;-23,35;-25,47;-17,56;-37,95;3,97;2,2;2,2;2,56;0;0;
34987;-7,23;-25,68;-19,3;-40,09;3,92;1,67;2,04;2,56;0;0;
35007;-18,09;-26,37;-18,49;-35,24;3,82;1,56;1,9;2,48;0;0;
35026;-19,11;-24,68;-8,57;-31,65;3,75;1,25;2,21;2,65;0;0;
35043;-18,73;-25,83;-17,25;-35,95;4,46;1,18;2,2;2,67;0;0;
35062;-16,48;-23,41;-18,68;-35,55;4,53;1,15;2,46;2,28;0;0;
35080;-16,48;-23,41;-18,68;-35,55;4,09;1,21;3,09;2,47;0;0;
35098;-13,86;-26,33;-15,78;-40,27;3,4;1,21;3,18;2,47;0;0;
35116;-17,12;-26,47;-14,03;-33,5;3,36;1,32;5,25;4,33;0;0;
35133;-17,89;-25,34;-14,26;-36,11;2,89;1,47;6,39;4,81;1;0;
35150;-4,3;-30,48;-19,34;-39,56;2,5;1,52;7,03;5,1;1;0;
35167;-16,04;-23,16;-25,89;-44,54;2,94;2,83;7,15;5,39;1;0;
35186;-22,72;-30,8;-48,34;-50,98;4,91;5,99;12,54;9,64;1;0;
35205;-13,51;-29,17;-23,02;-34,64;5,39;6,32;13,72;9,64;1;0;
35222;-20,15;-26,67;26,1;-12,18;5,51;6,4;15,03;10,17;1;0;
35248;-20,24;-21,14;42,59;2,05;6,08;8,22;20,52;13,5;1;0;
35264;-14,86;-28,6;26,92;-22,02;6,13;8,19;27,61;16,48;1;0;
35284;-58,29;-23,87;-98,53;-81,4;11,21;6,2;29,67;16,23;0;0;
35303;-16,65;4;-58,81;-84,71;18,96;7,33;29,28;16,38;0;0;
35322;234,53;-9,68;-30,21;-48,4;65,14;12,86;29,48;17,68;0;0;
35340;234,53;-9,68;-30,21;-48,4;111,46;18,06;28,2;17,26;0;0;
35361;-245,95;-33,12;-7,24;-33,73;150,94;19,82;21,07;14,9;0;0;
35378;-245,95;-33,12;-7,24;-33,73;188,1;22,19;17,07;13,51;0;0;
35395;-159,28;-25,83;-2,23;-37,4;207,21;23,8;13,54;12,41;0;0;
35413;107,48;-29,62;-13,58;-33,5;200,75;21,65;10,33;9,8;0;0;
35436;-112,85;-24,57;-19,5;-38,71;166,71;16,44;8,86;8,18;0;0;
35455;1,66;-34,57;-17,91;-36,95;130,83;11,36;7,53;7,86;0;0;
35475;-22,36;-21,15;-16,9;-41,37;91,62;9,64;6,24;7,33;0;0;
35493;-15,9;-18,48;-13,44;-36,15;54,05;8,04;5,65;6,25;0;0;
35512;-8,08;-47,28;-11,55;-40,54;33,37;8,4;5,43;5,64;0;0;
35530;-23,25;4,14;-15,46;-38,11;12,07;10,28;4,55;4,77;0;0;
35548;-10,64;-5,2;-20,64;-39;4,79;11,68;3,25;3,45;0;0;
35566;-10,94;-24,75;-15,47;-35,6;3,22;13,74;2,92;3,18;0;0;
35586;-18,48;-16,76;-17,63;-36,94;3,25;13,42;2,74;2,76;0;0;
35605;-13,32;-32,28;-17,17;-39,62;4,12;14,83;2,99;2,83;0;0;
35625;-33,53;-32,76;-19,09;-34,08;4,78;13,2;2,43;2,07;0;0;
35643;-21,72;-19,36;-15,13;-35,13;5,32;11,07;2,37;2,05;0;0;
35659;-21,72;-19,36;-15,13;-35,13;6,02;9,89;1,87;1,71;0;0;
35675;-15,9;-30,89;-16,46;-34,87;6,54;8,43;1,8;1,59;0;0;
35693;-7,78;-17,28;-14,29;-35,45;6,14;8,59;1,72;1,48;0;0;
35710;-28,44;-13,55;-19,47;-41,85;6,72;9,72;1,53;1,19;0;0;
35727;-16,79;-74,27;-18,71;-33,31;5,93;12,84;1,61;1,46;0;0;
35744;-14,24;-33,47;-15,51;-36,15;5,07;14,37;1,63;1,44;0;0;
35762;-16,24;-19,21;-15,24;-36,34;4,52;14,61;1,75;1,49;0;0;
35780;-16,24;-19,21;-15,24;-36,34;4,29;14,24;1,76;1,43;0;0;
35798;-23,99;-37,73;-15,47;-39,15;4,35;15,46;1,8;1,5;0;0;
35817;-17,17;-28,38;-14,49;-35,57;3,67;12,09;1,78;1,28;0;0;
35838;-19,38;-25,06;-19,8;-36,23;3,39;7,35;1,84;1,1;0;0;
35854;-14,31;-27,58;-15,87;-36,23;3,59;6,48;1,93;1,17;0;0;
35870;-11,77;-25,8;-16,57;-36,97;3,75;5,49;1,78;1,23;0;0;
35888;-15,17;-31,1;-13,11;-38,07;3,75;7,61;1,78;1,31;0;0;
35907;-22,97;-22,52;-16,36;-37,2;3,34;5,94;1,73;1,32;0;0;
35925;-14,58;-28,62;-15,4;-33,9;3,42;5,59;1,6;1,63;0;0;
35943;-17,19;-26,76;-17,2;-35,93;3,52;5,75;1,46;1,54;0;0;
35963;-18,51;-30,26;-18,34;-38,01;3,31;6,2;1,47;1,71;0;0;
35980;-18,51;-30,26;-18,34;-38,01;2,68;3,76;1,5;1,9;0;0;
35996;-12,11;-29,9;-13,86;-26,54;2,91;4,01;1,62;2,17;0;0;
36017;-20,61;-28,8;-15,05;-36,03;2,96;3,76;1,92;2,58;0;0;
36037;-15,93;-24,77;-19,09;-37,12;2,96;3,92;2,14;2,52;0;0;
36056;-21,74;-28,04;-17,98;-34,54;3,01;3,71;1,98;2,52;0;0;
36073;-11,2;-20,76;-11,45;-30,07;3,19;3,15;2,06;2,56;0;0;
36091;-21,23;-26,05;-17,82;-38,43;3,13;2,51;2,05;2,34;0;0;
36108;-13,84;-27,41;-18,78;-33,97;2,88;2,09;1,81;1,89;0;0;
36127;-17,49;-23,51;-17,31;-38,31;2,48;2,06;1,67;1,7;0;0;
36147;-15,67;-27,56;-17,81;-37,75;2,63;1,74;1,62;1,57;0;0;
36165;-17,11;-21,9;-14,76;-37,63;2,7;1,8;1,64;1,56;0;0;
36184;-16,2;-26,38;-15,94;-36,59;2,54;1,56;1,49;1,43;0;0;
36201;-16,2;-26,38;-15,94;-36,59;2,58;1,37;1,54;1,32;0;0;
36222;-19,52;-31,51;-12,59;-35,96;2,53;1,56;1,64;1,55;0;0;
36238;-19,52;-31,51;-12,59;-35,96;2,36;1,64;1,84;1,96;0;0;
36255;-15,62;-23,13;-17,89;-34,62;2,68;1,92;1,99;1,92;0;0;
36273;-12,87;-22,21;-17,25;-35,9;3,24;2,23;1,95;2,06;0;0;
36292;-26,75;-7,66;-17,51;-37,4;4,48;3,8;2,1;2,02;0;0;
36310;-12,14;-27,15;-16,44;-35,91;5,99;7,21;2,1;1,74;0;1;
36326;19,69;-44,43;-12,79;-36,61;8,92;10,03;1,93;1,5;0;1;
36345;-23,45;-99,59;-17,94;-35,6;12,77;27,91;1,73;1,49;0;1;
36363;-7,15;-135,24;-14,14;-35,44;13,73;44,01;1,63;1,64;0;1;
36383;-40,81;-88,33;-16,88;-36,22;14,56;50,91;1,97;1,61;0;1;
36400;-40,81;-88,33;-16,88;-36,22;14,61;55,8;2,13;1,73;0;1;
36421;-22,9;31,69;-14,8;-42,84;16,49;64,6;2,12;1,85;0;1;
36442;-64,16;-26,86;-30,08;-93,12;16,47;59,1;4,92;6,79;0;1;
36459;-64,16;-26,86;-30,08;-93,12;18,15;40,95;7,66;11,56;0;1;
36478;-68,8;5,12;-83,86;11,24;19,97;31,69;12,39;16,6;0;1;
36498;20,98;-65,33;-96,41;-11,53;22,2;27,14;20,49;21,94;0;1;
36519;-14,07;-32,51;-24,93;-71,74;20,15;19,57;23,52;29,24;0;1;
36537;-35,15;-27,09;-19,3;-44,88;16,44;12,99;27,51;31,9;0;1;
36558;4,34;-66,41;7,09;-19,69;13,63;12,83;25,52;27,61;0;1;
36580;-15,93;-41,1;-8,39;-35,26;13;20,75;23,86;22,36;0;1;
36597;-15,97;-32,68;-8,42;-33,72;8,6;17,36;16,63;18,9;0;1;
36617;-15,97;-32,68;-8,42;-33,72;6,92;16,09;13,17;10,35;0;1;
36634;-16,8;-24,12;-9,11;-35,04;7,19;14,18;11,21;6,59;0;1;
36653;-25,67;-26,85;-14,68;-34,71;6,62;14,33;9,21;5,26;0;1;
36673;-15,26;-22,79;-16,15;-38,36;3,9;8,25;7,71;4,36;0;0;
36692;-12,43;-25,43;-13,12;-34,25;3,63;4,5;6,57;3,19;0;0;
36710;-24,66;-27,29;-14,61;-36,91;4,36;3,64;5,81;2,78;0;0;
36728;-34,16;-28,35;-17,45;-37,1;6,81;3,38;3,96;2,1;0;0;
36746;-14,1;-26,19;-16,83;-27,09;7,15;3,41;3,3;2,14;0;0;
36763;-14,09;-23,49;-15,29;-37,66;8,57;3,3;3,39;2,46;0;0;
36781;-10,4;-25,61;-14,35;-33,38;9,33;2,32;3,06;2,54;0;0;
36797;-10,4;-25,61;-14,35;-33,38;9,8;2,48;2,34;2,49;0;0;
36815;4,69;-21,47;-20,45;-35,85;8,58;2,41;2,35;2,43;0;0;
36835;-15,13;-24,01;-14,36;-36,4;8,16;2,65;2,18;2,48;0;0;
36853;-9,54;-25,83;-15,02;-38,41;8,79;2,7;2,24;2,01;0;0;
36873;7,37;-28,53;-17,4;-35,52;9,1;2,49;2,3;1,98;0;0;
36893;-13,2;-29,86;-12,63;-38,06;12,51;2,42;2,5;1,98;0;0;
36911;-18,01;-27,65;-17,8;-35,95;12,24;2,27;2,27;1,8;0;0;
36935;-29,99;-25,71;-17,88;-32,74;10,76;2,03;2,1;1,93;0;0;
36954;-8,49;-23,52;-13,97;-32,52;11,1;1,83;2,17;2,17;0;0;
36971;-23,56;-27,85;-15,76;-35,32;10,02;1,62;1,97;2,18;0;0;
36988;-26,58;-25,63;-17,87;-36,18;6,81;1,34;1,82;1,99;0;0;
37006;-17,77;-25,04;-12,21;-38,19;5,14;1,26;1,74;1,95;0;0;
37023;-30,71;-22,18;-15,54;-37,92;5,28;1,25;1,88;1,89;0;0;
37040;-30,71;-22,18;-15,54;-37,92;4,16;1,27;1,99;1,73;0;0;
37056;-21,97;-28,15;-16,14;-35,66;4,52;1,27;1,84;1,67;0;0;
37073;-3,75;-26,98;-14,11;-37,1;5,43;1,36;1,96;1,65;0;0;
37092;-49,22;-19,33;-13,82;-36,78;6,31;1,46;1,87;1,66;0;0;
37110;-17,37;-29,45;-13,7;-33,89;6,74;1,63;1,68;1,6;0;0;
37127;-22,5;-27,85;-18,09;-39,13;7,14;1,59;1,55;1,54;0;0;
37146;-7,75;-24,56;-19,38;-33,52;6,2;1,64;1,63;1,44;0;0;
37163;-6,21;-22,38;-17,24;-35,91;6,2;1,5;1,66;1,31;0;0;
37181;-15,4;-27,57;-15,23;-37,8;5,98;1,52;1,6;1,37;0;0;
37197;-15,4;-27,57;-15,23;-37,8;5,05;1,34;1,51;1,52;0;0;
37214;-3,65;-22,89;-17,58;-37,17;6,34;1,33;1,57;1,65;0;0;
37233;-19,83;-26,8;-17,3;-34,75;6,52;1,36;1,37;1,51;0;0;
37252;-4,79;-25,21;-14,2;-35,6;6,58;1,47;1,24;1,59;0;0;
37269;-14,98;-29,51;-16,19;-36,44;8,04;1,69;1,41;1,58;0;0;
37287;-26,85;-26,2;-16,27;-35,42;8,24;1,89;1,36;1,47;0;0;
37305;-19,77;-25,22;-16,03;-36,58;8,3;1,89;1,36;1,39;0;0;
37322;-20,99;-22,27;-15,53;-34,99;6,74;1,88;1,29;1,44;0;0;
37342;-14,87;-23,21;-15,34;-34,89;6,68;1,9;1,26;1,35;0;0;
37359;-14,87;-23,21;-15,34;-34,89;5,43;2;1,14;1,32;0;0;
37377;9,21;-24,86;-14,66;-33,68;5,69;1,6;0,99;1,36;0;0;
37396;-10,63;-27,85;-11,09;-37,44;6,88;1,64;1,23;1,29;0;0;
37416;-14,22;-26,68;-16,67;-34,45;7,59;1,76;1,18;1,43;0;0;
37434;-11,78;-24,24;-19,64;-36,11;7,48;1,72;1,24;1,33;0;0;
37454;-15,17;-27,37;-17,09;-33,13;7,25;1,54;1,27;1,44;0;0;
37472;-15,14;-26,7;-15,22;-38,16;6,93;1,63;1,33;1,53;0;0;
37491;-12,79;-21,62;-9,3;-27,38;5,32;1,67;1,55;1,83;0;0;
37510;-11,01;-24,77;-18,35;-37,92;5,83;1,62;1,59;2,07;0;0;
37528;-20,86;-26,48;-15,28;-34,63;5,32;1,57;1,68;2,02;0;0;
37547;-15,3;-28,52;-15,06;-38,41;5,99;1,59;1,7;1,89;0;0;
37566;-15,17;-25,07;-16,9;-36,84;6,07;1,56;1,68;1,85;0;0;
37584;-19,89;-23,61;-17,98;-34,89;5,39;1,69;1,73;1,88;0;0;
37602;-21,06;-27,18;-15,54;-35,87;4,79;1,77;1,31;1,36;0;0;
37619;-21,06;-27,18;-15,54;-35,87;4,04;1,87;1,21;1,18;0;0;
37638;-22,34;-25,82;-17,63;-35,85;3,77;2,04;1,22;1,35;0;0;
37656;-17,34;-26,23;-16,39;-37,09;3,98;1,98;1,21;1,27;0;0;
37674;-14,48;-24,73;-18,63;-35,39;3,98;2,07;1,23;1,35;0;0;
37693;-20,48;-27,45;-15,87;-41,19;3,85;1,98;1,26;1,44;0;0;
37711;-12,44;-25;-17,68;-33,28;4,74;1,83;1,27;1,46;0;0;
37730;-15,12;-24,46;-14,46;-36,6;5,11;1,71;1,34;1,39;0;0;
37750;-16,06;-23,72;-16;-35,1;4,3;1,76;1,3;1,54;0;0;
37766;-10,46;-26,85;-17,44;-37,45;4,44;1,8;1,38;1,57;0;0;
37785;-18,92;-28,04;-14,24;-36,94;4,84;1,65;1,53;1,53;0;0;
37804;-19,97;-26,84;-16,84;-35,39;4,42;1,5;1,51;1,32;0;0;
37823;-11,08;-32,49;-13,45;-35,86;3,98;1,55;1,47;1,31;0;0;
37840;-11,08;-32,49;-13,45;-35,86;4,04;1,63;1,49;1,24;0;0;
37858;-16,78;-27,89;-13;-36,94;3,97;1,58;1,61;1,07;0;0;
37877;-21,31;-26,22;-16,01;-39,9;3,53;1,65;1,6;0,98;0;0;
37896;-14,97;-24,25;-17,1;-34,62;3,38;2,1;1,7;1,01;0;0;
37913;-19,82;-26,84;-15,68;-37,86;3,05;2,17;1,94;1,16;0;0;
37930;-12,63;-19,59;-18,97;-40,56;2,62;2,07;2,05;1,45;0;0;
37949;-22,66;-27,72;-18,16;-37,35;2,82;1,99;2,11;1,63;0;0;
37967;-26,17;-24,76;-18,25;-36,1;3,16;2;1,89;1,74;0;0;
37984;-14,61;-25,26;-16,86;-36,95;3,78;1,86;1,73;1,71;0;0;
38000;-14,61;-25,26;-16,86;-36,95;4,23;1,7;1,72;1,71;0;0;
38018;-19,51;-25,58;-17,11;-35,62;4,09;1,94;1,57;1,68;0;0;
38036;-20,21;-26,21;-16,41;-34,26;3,88;1,94;1,57;1,56;0;0;
38056;-15,41;-26,81;-13,03;-34,49;3,74;1,82;1,59;1,68;0;0;
38075;-15,3;-21,87;-14,61;-38,18;3,3;1,87;1,8;1,73;0;0;
38093;-23,64;-24,07;-18,1;-40,55;2,64;2,7;1,96;2,02;0;0;
38112;-18,81;-28,41;-18,83;-37,82;2,51;2,77;2,25;1,97;0;0;
38129;-7,11;-34,09;-13,99;-35,12;4,09;4,65;2,5;1,97;1;0;
38147;-18,31;-28,78;-18,01;-37,98;4,29;5,07;2,59;2,04;1;0;
38164;-15,64;-24,86;-20,54;-44,71;4,77;5,12;3;2,49;1;0;
38182;-20,5;-27,29;-20,75;-37,6;4,73;4,83;3,48;2,61;1;0;
38199;-20,5;-27,29;-20,75;-37,6;4,94;4,23;3,6;2,72;1;0;
38217;1,4;-27,55;-15,51;-31,76;8,6;3,82;4,41;3,31;1;0;
38235;1,4;-27,55;-15,51;-31,76;11,13;2,56;5,49;3,89;1;0;
38256;-19,14;-29,94;-2,09;-32,57;13,13;2,91;7,23;5,82;1;0;
38275;-14,53;-20,64;-1,2;-35,56;13,78;3,45;8,53;7,05;1;0;
38292;10,85;-25,06;12,66;-38,72;15,35;3,25;10,81;8,48;1;0;
38309;-96,14;-36,75;17,45;-46,52;26,91;3,45;14,77;11,98;1;0;
38326;-94,19;-35,93;-80,37;-31,2;34,3;3,88;17,64;13,38;1;0;
38344;-100,95;-34,15;-19,47;-22,18;41,14;4,58;16,69;13,99;1;0;
38361;93,02;-24,27;-27,15;-43,96;41,71;4,36;16,74;15,28;1;0;
38379;93,02;-24,27;-27,15;-43,96;44,35;5,05;15,88;16,93;1;0;
38395;121,73;-10;-16,31;-38,61;57,2;6,94;14,03;16,85;1;0;
38415;8,83;-20,68;-29,95;-48,43;50,66;7,05;10,61;14,4;1;0;
38435;-83,73;-22,3;-7,93;-39,71;49,75;7,24;8,91;15,16;1;0;
38454;3,23;-27,7;-28,6;-49,94;45,83;6,77;8,19;12,91;1;0;
38475;73,81;-33,97;-14,09;-34,27;47,47;6,49;7,43;9,94;1;0;
38493;-119,65;-27,84;-18,34;-32,56;39,71;5,36;5,97;6,51;0;0;
38511;-8,85;-28,39;-8,27;-33,6;36,59;4,61;5,06;5,87;0;0;
38529;-14,6;-22,94;-17,52;-34,27;29,89;3,77;3,83;5,19;0;0;
38549;-32,68;-24,95;-19,47;-39,68;27,49;3,53;3,49;3,99;0;0;
38570;47,89;-27,92;-18,5;-38,33;28,01;3,33;2,18;3,19;0;0;
38593;-12,84;-27,5;-17,74;-35,23;24,7;3,18;1,87;3,05;0;0;
38611;-7,73;-27,2;-17,38;-37,21;22,58;3,11;1,91;2,96;0;0;
38631;-44,49;-30,7;-13,99;-34,66;23,15;3,19;1,83;2,23;0;0;
38651;-46,85;-28,06;-19,24;-39,15;21,14;2,97;1,75;1,83;0;0;
38668;-17,4;-26,16;-16,16;-36,6;18,69;2,47;1,89;1,47;0;0;
38688;-12,77;-24,55;-17,36;-38,06;13,88;2,21;1,92;1,34;0;0;
38707;-16,02;-37,45;-16,07;-35,92;11,88;2,11;2,02;1,31;0;0;
38726;-17,6;-25,14;-18,28;-33,93;7,86;2,18;2,07;1,32;0;0;
38745;-18,15;-26,5;-18,71;-33,6;6,2;1,63;2,1;1,12;0;0;
