Time;EMG1;EMG2;EMG3;EMG4;EMG1_F;EMG2_F;EMG3_F;EMG4_F;Note_R;Note_V;;Level 1;Joueur;Score;Notes hit;% Reussite R;Offset EMG1;Onset EMG1;% Reussite V;Offset EMG2;Onset EMG2
42;-17,34;-10,12;-17,34;-10,12;2,4;2,04;2,4;2,04;0;0;;;1;6900;66;31,14754;-16,65111;185,6864;56;-7,957984;63,41382
66;-16,77;-6,91;-16,77;-6,91;2,25;2,11;2,25;2,11;0;0;;;2;6700;65;30,32787;-16,65111;185,6863;56;-7,957984;63,4138
83;-16,7;-6,9;-16,7;-6,9;2,21;2,26;2,21;2,26;0;0;
99;-17,71;-8,4;-17,71;-8,4;2,19;2,14;2,19;2,14;0;0;
117;-20,12;-7,43;-20,12;-7,43;1,83;1,85;1,83;1,85;0;0;
137;-17,14;-8,53;-17,14;-8,53;1,75;1,68;1,75;1,68;0;0;
156;-17,02;-6,5;-17,02;-6,5;1,66;1,58;1,66;1,58;0;0;
172;-15,66;-6,8;-15,66;-6,8;1,41;1,28;1,41;1,28;0;0;
190;-15,66;-6,8;-15,66;-6,8;1,5;1,3;1,5;1,3;0;0;
207;-16,59;-5,43;-16,59;-5,43;1,63;1,39;1,63;1,39;0;0;
224;-18,26;-8,62;-18,26;-8,62;1,52;1,5;1,52;1,5;0;0;
241;-19,61;-3,71;-19,61;-3,71;1,56;1,61;1,56;1,61;0;0;
258;-12,34;-7,11;-12,34;-7,11;1,64;1,98;1,64;1,98;0;0;
276;-16,67;-6,92;-16,67;-6,92;1,67;2,19;1,67;2,19;0;0;
294;-20,77;-5,2;-20,77;-5,2;1,88;2,19;1,88;2,19;0;0;
309;-20,77;-5,2;-20,77;-5,2;2,04;2,13;2,04;2,13;0;0;
325;-16,08;-9,04;-16,08;-9,04;2,05;2,22;2,05;2,22;0;0;
343;-15,7;-7,55;-15,7;-7,55;2,14;1,91;2,14;1,91;0;0;
362;-18,73;-4,85;-18,73;-4,85;2,22;1,53;2,22;1,53;0;0;
378;-17,22;-7,92;-17,22;-7,92;2,28;1,56;2,28;1,56;0;0;
395;-20,5;-8,42;-20,5;-8,42;2,14;1,52;2,14;1,52;0;0;
413;-18,64;-8,01;-18,64;-8,01;2,08;1,48;2,08;1,48;0;0;
429;-18,64;-8,01;-18,64;-8,01;2,06;1,36;2,06;1,36;0;0;
445;-13,7;-4,47;-13,7;-4,47;2,23;1,63;2,23;1,63;0;0;
463;-17,53;-10,1;-17,53;-10,1;2,2;1,8;2,2;1,8;0;0;
479;-15,91;-7;-15,91;-7;2,01;1,98;2,01;1,98;0;0;
495;-19,75;-5,58;-19,75;-5,58;2,02;2;2,02;2;0;0;
510;-19,75;-5,58;-19,75;-5,58;2,06;2,05;2,06;2,05;0;0;
528;-15,55;-10,45;-15,55;-10,45;1,82;2,1;1,82;2,1;0;0;
546;-13,06;-4,34;-13,06;-4,34;1,85;2,09;1,85;2,09;0;0;
562;-19,13;-4,47;-19,13;-4,47;1,98;2,2;1,98;2,2;0;0;
580;-18,49;-7,9;-18,49;-7,9;1,98;2,25;1,98;2,25;0;0;
597;-16,34;-9,13;-16,34;-9,13;1,8;2,23;1,8;2,23;0;0;
614;-15,87;-7,14;-15,87;-7,14;1,81;2,27;1,81;2,27;0;0;
632;-11,44;-9,07;-11,44;-9,07;1,96;2,05;1,96;2,05;0;0;
647;-11,44;-9,07;-11,44;-9,07;1,88;1,9;1,88;1,9;0;0;
663;-16,59;-10,09;-16,59;-10,09;1,87;1,69;1,87;1,69;0;0;
680;-15,79;-6,83;-15,79;-6,83;1,76;1,87;1,76;1,87;0;0;
698;-16,95;-14,03;-16,95;-14,03;1,65;2,07;1,65;2,07;0;0;
713;-15,49;-9,25;-15,49;-9,25;1,61;2,01;1,61;2,01;0;0;
728;-15,49;-9,25;-15,49;-9,25;1,56;2,03;1,56;2,03;0;0;
743;-18,1;-6,19;-18,1;-6,19;1,61;2,03;1,61;2,03;0;0;
759;-16,95;-10,12;-16,95;-10,12;1,53;2,09;1,53;2,09;0;0;
773;-21,16;-8,19;-21,16;-8,19;1,76;1,98;1,76;1,98;0;0;
788;-21,16;-8,19;-21,16;-8,19;2,01;1,9;2,01;1,9;0;0;
807;-18,62;-7,04;-18,62;-7,04;1,94;1,88;1,94;1,88;0;0;
823;-19,07;-9;-19,07;-9;2,03;1,92;2,03;1,92;0;0;
840;-14,65;-5,2;-14,65;-5,2;2,14;1,86;2,14;1,86;0;0;
857;-14,42;-6,44;-14,42;-6,44;2,18;1,88;2,18;1,88;0;0;
873;-14,42;-6,44;-14,42;-6,44;2,13;1,93;2,13;1,93;0;0;
889;-14,42;-6,44;-14,42;-6,44;2,26;2,13;2,26;2,13;0;0;
904;-16,9;-4,97;-16,9;-4,97;2,2;2,29;2,2;2,29;0;0;
920;-14,08;-8,57;-14,08;-8,57;2,35;2,43;2,35;2,43;0;0;
936;-19,48;-7,73;-19,48;-7,73;2,17;2,36;2,17;2,36;0;0;
951;-16,38;-8,29;-16,38;-8,29;2,12;2,33;2,12;2,33;0;0;
966;-16,38;-8,29;-16,38;-8,29;2,06;2,29;2,06;2,29;0;0;
982;-17,42;-5,73;-17,42;-5,73;1,93;2,15;1,93;2,15;0;0;
1001;-13,8;-8,66;-13,8;-8,66;2;2,16;2;2,16;0;0;
1017;-20,28;-4,25;-20,28;-4,25;1,89;2,09;1,89;2,09;0;0;
1034;-17,97;-8,36;-17,97;-8,36;1,94;2,18;1,94;2,18;0;0;
1049;-17,97;-8,36;-17,97;-8,36;2,02;2,21;2,02;2,21;0;0;
1067;-19,85;-6,08;-19,85;-6,08;2,06;2,06;2,06;2,06;0;0;
1083;-12,47;-9,68;-12,47;-9,68;2,03;1,89;2,03;1,89;0;0;
1100;-17,59;-8,15;-17,59;-8,15;2,14;1,96;2,14;1,96;0;0;
1114;-21,65;-8,19;-21,65;-8,19;2;1,65;2;1,65;0;0;
1133;-15,28;-8,89;-15,28;-8,89;1,87;1,45;1,87;1,45;0;0;
1155;-18,69;-7,03;-18,69;-7,03;1,9;1,77;1,9;1,77;0;0;
1174;-14,39;-6,52;-14,39;-6,52;1,97;1,76;1,97;1,76;0;0;
1195;-14,91;-10,19;-14,91;-10,19;1,66;1,68;1,66;1,68;0;0;
1215;-20,98;-5,13;-20,98;-5,13;1,81;1,7;1,81;1,7;0;0;
1235;-14,74;-5,6;-14,74;-5,6;1,9;1,7;1,9;1,7;0;0;
1257;-14,63;-5,71;-14,63;-5,71;2,09;1,81;2,09;1,81;0;0;
1275;-17,44;-9,6;-17,44;-9,6;2,3;1,9;2,3;1,9;0;0;
1295;-16,88;-6,66;-16,88;-6,66;2,29;2;2,29;2;0;0;
1314;-13,21;-2,51;-13,21;-2,51;2,28;2,08;2,28;2,08;0;0;
1333;-13,68;-6,89;-13,68;-6,89;2,03;2,19;2,03;2,19;0;0;
1349;-13,68;-6,89;-13,68;-6,89;1,98;2,4;1,98;2,4;0;0;
1365;-16,22;-6,77;-16,22;-6,77;1,79;2,49;1,79;2,49;0;0;
1380;-16,22;-6,77;-16,22;-6,77;1,78;2,32;1,78;2,32;0;0;
1398;-21,49;-11,13;-21,49;-11,13;1,77;2,58;1,77;2,58;0;0;
1413;-12,78;-9,57;-12,78;-9,57;2,05;2,45;2,05;2,45;0;0;
1429;-12,78;-9,57;-12,78;-9,57;2,37;2,3;2,37;2,3;0;0;
1444;-15,52;-6;-15,52;-6;2,26;2,34;2,26;2,34;0;0;
1461;-16,48;-6,39;-16,48;-6,39;2,29;2,38;2,29;2,38;0;0;
1478;-17,33;-10,96;-17,33;-10,96;2,4;2,13;2,4;2,13;0;0;
1495;-21,49;-6,97;-21,49;-6,97;2,3;1,9;2,3;1,9;0;0;
1510;-21,49;-6,97;-21,49;-6,97;2,04;1,79;2,04;1,79;0;0;
1525;-15,38;-12,75;-15,38;-12,75;1,79;1,94;1,79;1,94;0;0;
1542;-18,28;-5,46;-18,28;-5,46;1,83;1,64;1,83;1,64;0;0;
1559;-17,23;-7,79;-17,23;-7,79;1,89;1,54;1,89;1,54;0;0;
1574;-15,51;-7,41;-15,51;-7,41;1,66;1,48;1,66;1,48;0;0;
1590;-15,51;-7,41;-15,51;-7,41;1,47;1,5;1,47;1,5;0;0;
1612;-21,49;-4,73;-21,49;-4,73;1,49;1,57;1,49;1,57;0;0;
1628;-21,49;-4,73;-21,49;-4,73;1,56;1,48;1,56;1,48;0;0;
1645;-19,76;-7,14;-19,76;-7,14;1,42;1,52;1,42;1,52;0;0;
1664;-18,38;-6,33;-18,38;-6,33;1,5;1,59;1,5;1,59;0;0;
1683;-17,41;-6,34;-17,41;-6,34;1,81;1,64;1,81;1,64;0;0;
1700;-15,89;-5,43;-15,89;-5,43;1,94;1,58;1,94;1,58;0;0;
1715;-14,09;-9,29;-14,09;-9,29;1,99;1,56;1,99;1,56;0;0;
1732;-18,54;-4,98;-18,54;-4,98;1,88;1,72;1,88;1,72;0;0;
1748;-18,54;-4,98;-18,54;-4,98;1,86;1,9;1,86;1,9;0;0;
1764;-14,17;-6,44;-14,17;-6,44;1,75;2,05;1,75;2,05;0;0;
1779;-18,83;-8,36;-18,83;-8,36;1,67;2,03;1,67;2,03;0;0;
1795;-17,25;-8,15;-17,25;-8,15;1,69;2,13;1,69;2,13;0;0;
1812;-16,07;-5,29;-16,07;-5,29;1,55;2,16;1,55;2,16;0;0;
1828;-16,07;-5,29;-16,07;-5,29;1,55;2,07;1,55;2,07;0;0;
1843;-13,04;-9,44;-13,04;-9,44;1,63;1,9;1,63;1,9;0;0;
1859;-14,22;-7,91;-14,22;-7,91;1,6;1,86;1,6;1,86;0;0;
1876;-19,67;-9,76;-19,67;-9,76;1,56;1,76;1,56;1,76;0;0;
1893;-16,22;-11,19;-16,22;-11,19;1,62;1,58;1,62;1,58;0;0;
1908;-16,22;-11,19;-16,22;-11,19;1,71;1,58;1,71;1,58;0;0;
1923;-15,9;-8,62;-15,9;-8,62;1,66;1,69;1,66;1,69;0;0;
1940;-21,47;-5,77;-21,47;-5,77;1,86;1,81;1,86;1,81;0;0;
1956;-17,09;-8,51;-17,09;-8,51;1,88;1,77;1,88;1,77;0;0;
1970;-17,09;-8,51;-17,09;-8,51;1,89;1,72;1,89;1,72;0;0;
1985;-19,07;-9,84;-19,07;-9,84;2;1,56;2;1,56;0;0;
2003;-17,09;-4,14;-17,09;-4,14;1,87;1,61;1,87;1,61;0;0;
2018;-18,01;-11,81;-18,01;-11,81;2,05;1,67;2,05;1,67;0;0;
2037;-18,18;-6,43;-18,18;-6,43;1,85;1,73;1,85;1,73;0;0;
2052;-12,73;-5,47;-12,73;-5,47;2,11;1,72;2,11;1,72;0;0;
2069;-12,73;-5,47;-12,73;-5,47;2,33;1,75;2,33;1,75;0;0;
2084;-15,67;-6,49;-15,67;-6,49;2,18;1,87;2,18;1,87;0;0;
2100;-20,16;-4,96;-20,16;-4,96;2,18;1,79;2,18;1,79;0;0;
2117;-13,99;-3,71;-13,99;-3,71;2,48;1,59;2,48;1,59;0;0;
2135;-15,59;-8,5;-15,59;-8,5;2,38;1,58;2,38;1,58;0;0;
2152;-18,03;-5,68;-18,03;-5,68;2,1;1,63;2,1;1,63;0;0;
2168;-18,03;-5,68;-18,03;-5,68;1,95;1,52;1,95;1,52;0;0;
2183;-18,2;-8,77;-18,2;-8,77;1,95;1,35;1,95;1,35;0;0;
2201;-14,34;-5,42;-14,34;-5,42;1,88;1,47;1,88;1,47;0;0;
2216;-18,87;-6,22;-18,87;-6,22;1,82;1,53;1,82;1,53;0;0;
2232;-17,73;-6,88;-17,73;-6,88;1,9;1,9;1,9;1,9;0;0;
2247;-17,73;-6,88;-17,73;-6,88;1,92;2,21;1,92;2,21;0;0;
2263;-20,54;-9,26;-20,54;-9,26;1,84;2,22;1,84;2,22;0;0;
2279;-18,06;-7,64;-18,06;-7,64;2,02;2,24;2,02;2,24;0;0;
2296;-18,41;-4,18;-18,41;-4,18;1,9;2,21;1,9;2,21;0;0;
2310;-18,41;-4,18;-18,41;-4,18;1,95;2,22;1,95;2,22;0;0;
2326;-17,15;-9,04;-17,15;-9,04;1,9;1,9;1,9;1,9;0;0;
2344;-16,47;-3,79;-16,47;-3,79;1,95;1,78;1,95;1,78;0;0;
2360;-11,73;-3,73;-11,73;-3,73;1,99;1,86;1,99;1,86;0;0;
2374;-15,79;-10,27;-15,79;-10,27;1,86;1,9;1,86;1,9;0;0;
2390;-15,79;-10,27;-15,79;-10,27;1,69;1,83;1,69;1,83;0;0;
2406;-18,42;-8,4;-18,42;-8,4;1,71;1,59;1,71;1,59;0;0;
2424;-14,86;-9,99;-14,86;-9,99;1,98;1,69;1,98;1,69;0;0;
2439;-19,05;-5,42;-19,05;-5,42;1,86;1,62;1,86;1,62;0;0;
2454;-18,97;-7,05;-18,97;-7,05;1,86;1,52;1,86;1,52;0;0;
2471;-14,39;-6,96;-14,39;-6,96;2,12;1,52;2,12;1,52;0;0;
2486;-14,39;-6,96;-14,39;-6,96;2,41;1,6;2,41;1,6;0;0;
2501;-17,57;-7,75;-17,57;-7,75;2,22;1,65;2,22;1,65;0;0;
2516;-16,17;-3,95;-16,17;-3,95;2,1;1,61;2,1;1,61;0;0;
2534;-17,12;-7,14;-17,12;-7,14;2,04;1,62;2,04;1,62;0;0;
2549;-17,12;-7,14;-17,12;-7,14;2,02;1,58;2,02;1,58;0;0;
2565;-14,81;-4,89;-14,81;-4,89;1,76;1,83;1,76;1,83;0;0;
2579;-14,44;-5,66;-14,44;-5,66;1,62;1,78;1,62;1,78;0;0;
2595;-20,15;-3,73;-20,15;-3,73;1,57;2,1;1,57;2,1;0;0;
2612;-20,54;-9;-20,54;-9;1,58;2,06;1,58;2,06;0;0;
2627;-20,54;-9;-20,54;-9;1,6;2,15;1,6;2,15;0;0;
2643;-13,52;-7,41;-13,52;-7,41;1,87;2,19;1,87;2,19;0;0;
2663;-16,63;-9,47;-16,63;-9,47;1,99;2,31;1,99;2,31;0;0;
2680;-16,08;-10,74;-16,08;-10,74;1,97;2,03;1,97;2,03;0;0;
2696;-15,67;-7,33;-15,67;-7,33;1,99;1,96;1,99;1,96;0;0;
2712;-15,79;-5,8;-15,79;-5,8;1,97;2,13;1,97;2,13;0;0;
2727;-15,79;-5,8;-15,79;-5,8;1,89;2,19;1,89;2,19;0;0;
2742;-9,3;-8,04;-9,3;-8,04;3,26;1,98;3,26;1,98;0;0;
2758;-16,61;-8,22;-16,61;-8,22;4,35;1,98;4,35;1,98;0;0;
2775;-28,46;-9,39;-28,46;-9,39;5,2;2,07;5,2;2,07;0;0;
2790;-28,46;-9,39;-28,46;-9,39;6,02;2,08;6,02;2,08;0;0;
2807;-14,51;-5,58;-14,51;-5,58;6,24;2,13;6,24;2,13;0;0;
2824;-10,06;-6,94;-10,06;-6,94;5,9;1,84;5,9;1,84;0;0;
2839;-6,3;-8,83;-6,3;-8,83;6,09;1,85;6,09;1,85;0;0;
2858;-17,98;-9,6;-17,98;-9,6;5,85;1,89;5,85;1,89;0;0;
2875;-12,1;-1,56;-12,1;-1,56;5,4;2,01;5,4;2,01;0;0;
2893;-21,03;-6,93;-21,03;-6,93;4,88;1,84;4,88;1,84;0;0;
2909;-21,03;-6,93;-21,03;-6,93;5,4;1,81;5,4;1,81;0;0;
2927;-22,7;-6,88;-22,7;-6,88;4,38;1,95;4,38;1,95;0;0;
2944;-14,76;-10,26;-14,76;-10,26;3,27;1,97;3,27;1,97;0;0;
2964;-23,17;-7,07;-23,17;-7,07;3,19;2,02;3,19;2,02;0;0;
2979;-41,57;-3,71;-41,57;-3,71;4,94;1,77;4,94;1,77;0;0;
2995;-3,17;-7,97;-3,17;-7,97;5,84;1,89;5,84;1,89;0;0;
3009;-3,17;-7,97;-3,17;-7,97;7,07;2,11;7,07;2,11;0;0;
3028;-15,23;-8,04;-15,23;-8,04;7,42;2,12;7,42;2,12;0;0;
3044;-4,03;-6,09;-4,03;-6,09;7,93;2,13;7,93;2,13;0;0;
3060;-4,03;-6,09;-4,03;-6,09;7,61;2,29;7,61;2,29;0;0;
3076;9,89;-7,45;9,89;-7,45;9,61;2,08;9,61;2,08;0;0;
3096;-2,39;-10,6;-2,39;-10,6;9,14;1,94;9,14;1,94;0;0;
3111;-14,81;-4,74;-14,81;-4,74;8,83;1,85;8,83;1,85;0;0;
3128;-14,81;-4,74;-14,81;-4,74;8,83;1,86;8,83;1,86;0;0;
3144;-8,22;-8,12;-8,22;-8,12;8,75;1,85;8,75;1,85;0;0;
3163;-58,7;-7,18;-58,7;-7,18;11,28;1,6;11,28;1,6;0;0;
3180;-21,5;-7,7;-21,5;-7,7;11,86;1,63;11,86;1,63;0;0;
3196;-17,61;-4,98;-17,61;-4,98;12,21;1,75;12,21;1,75;0;0;
3212;-20,15;-4,08;-20,15;-4,08;13,82;1,82;13,82;1,82;0;0;
3229;-20,15;-4,08;-20,15;-4,08;15,68;1,83;15,68;1,83;0;0;
3245;-37,33;-4,1;-37,33;-4,1;16,52;1,79;16,52;1,79;0;0;
3263;-36,33;-8,69;-36,33;-8,69;16,45;1,96;16,45;1,96;0;0;
3282;29,09;-8,89;29,09;-8,89;21,51;2,03;21,51;2,03;0;0;
3300;21,15;-8,57;21,15;-8,57;30,48;2,24;30,48;2,24;0;0;
3319;-75,2;-3,84;-75,2;-3,84;34,09;2,41;34,09;2,41;0;0;
3338;64,92;-7,4;64,92;-7,4;40,3;2,31;40,3;2,31;0;0;
3356;27,06;-2,04;27,06;-2,04;47,01;2,34;47,01;2,34;0;0;
3372;-89,09;-7,06;-89,09;-7,06;56,36;2,32;56,36;2,32;0;0;
3387;-89,09;-7,06;-89,09;-7,06;58,01;2,27;58,01;2,27;0;0;
3404;-12,68;-4,94;-12,68;-4,94;56,91;2,25;56,91;2,25;0;0;
3420;-36,83;-9,13;-36,83;-9,13;55,26;1,91;55,26;1,91;0;0;
3437;36,62;-5,05;36,62;-5,05;47,79;1,94;47,79;1,94;0;0;
3453;-5,05;-9,73;-5,05;-9,73;48,67;1,85;48,67;1,85;0;0;
3471;5,06;-8,14;5,06;-8,14;48,33;1,75;48,33;1,75;0;0;
3490;5,06;-8,14;5,06;-8,14;52,91;1,7;52,91;1,7;0;0;
3507;107,6;-8,77;107,6;-8,77;63,24;1,53;63,24;1,53;0;0;
3523;55,93;-3,4;55,93;-3,4;78,63;1,68;78,63;1,68;0;0;
3541;70,57;-7,41;70,57;-7,41;80,95;1,67;80,95;1,67;0;0;
3557;-226,05;-2,93;-226,05;-2,93;84,31;1,83;84,31;1,83;1;0;
3572;121,75;-7,28;121,75;-7,28;95,72;1,96;95,72;1,96;1;0;
3587;121,75;-7,28;121,75;-7,28;106,72;2,06;106,72;2,06;1;0;
3604;239,25;-9,74;239,25;-9,74;107,13;2,07;107,13;2,07;1;0;
3623;108,36;-4,73;108,36;-4,73;119,24;1,96;119,24;1,96;1;0;
3640;-72,44;-8,34;-72,44;-8,34;113,42;2,19;113,42;2,19;1;0;
3659;-8,61;-5,36;-8,61;-5,36;116,71;2,56;116,71;2,56;1;0;
3676;266,3;-9,73;266,3;-9,73;126,63;2,44;126,63;2,44;1;0;
3692;-136,45;-3,01;-136,45;-3,01;144,79;2,4;144,79;2,4;1;0;
3706;-136,45;-3,01;-136,45;-3,01;148,88;2,24;148,88;2,24;1;0;
3722;-15,09;-9,08;-15,09;-9,08;146,69;2,14;146,69;2,14;1;0;
3739;-172,12;-3,39;-172,12;-3,39;161,9;2,12;161,9;2,12;1;0;
3754;558,33;-7,04;558,33;-7,04;172,04;1,85;172,04;1,85;1;0;
3773;140,72;-6,06;140,72;-6,06;172,47;1,97;172,47;1,97;1;0;
3788;140,72;-6,06;140,72;-6,06;176,35;2,07;176,35;2,07;1;0;
3805;140,19;-6,05;140,19;-6,05;184,72;2,04;184,72;2,04;1;0;
3823;-69,98;-6,87;-69,98;-6,87;190,92;1,9;190,92;1,9;1;0;
3849;85,21;-9,01;85,21;-9,01;191,46;1,65;191,46;1,65;0;0;
3896;-58,63;-8,91;-58,63;-8,91;165,83;1,56;165,83;1,56;0;0;
3938;-74,4;-9,12;-74,4;-9,12;142,31;1,58;142,31;1,58;0;0;
3982;246,26;-8,76;246,26;-8,76;128,96;1,72;128,96;1,72;0;0;
4020;2,27;-8,86;2,27;-8,86;119,09;1,8;119,09;1,8;0;0;
4061;125,14;-3,43;125,14;-3,43;126,56;2;126,56;2;0;0;
4123;87,36;-4,16;87,36;-4,16;128,03;1,99;128,03;1,99;0;0;
4181;-86,47;-5,6;-86,47;-5,6;123,19;1,85;123,19;1,85;0;0;
4222;32,1;-8,6;32,1;-8,6;114,39;1,82;114,39;1,82;0;0;
4262;79,4;-7,38;79,4;-7,38;107,76;1,75;107,76;1,75;0;0;
4292;103,98;-9,27;103,98;-9,27;83,4;1,87;83,4;1,87;0;0;
4323;-140,65;-4,33;-140,65;-4,33;63,1;1,92;63,1;1,92;0;0;
4358;77,91;-8,41;77,91;-8,41;56,75;1,78;56,75;1,78;0;0;
4394;4,39;-8,61;4,39;-8,61;53,38;1,8;53,38;1,8;0;0;
4419;-109,97;-11,08;-109,97;-11,08;53,77;2,14;53,77;2,14;0;0;
4446;-13,01;-5,52;-13,01;-5,52;40,73;2,46;40,73;2,46;0;0;
4481;-30,08;-7,48;-30,08;-7,48;38,89;2,17;38,89;2,17;0;0;
4506;-29,41;-3,02;-29,41;-3,02;37,23;2,42;37,23;2,42;0;0;
4530;-20,71;-6,06;-20,71;-6,06;28,1;2,43;28,1;2,43;0;0;
4568;12,91;-5,79;12,91;-5,79;23,97;2,32;23,97;2,32;0;0;
4605;-9,43;-4,37;-9,43;-4,37;20,53;2,35;20,53;2,35;0;0;
4647;-12,56;-4,48;-12,56;-4,48;16,95;2,19;16,95;2,19;0;0;
4667;-11,38;-5,93;-11,38;-5,93;15,51;2,04;15,51;2,04;0;0;
4689;-18,34;-10,94;-18,34;-10,94;10,56;1,77;10,56;1,77;0;0;
4745;-14,99;-5,08;-14,99;-5,08;8,8;1,6;8,8;1,6;0;0;
4763;-23,28;-4,4;-23,28;-4,4;5,21;1,61;5,21;1,61;0;0;
4780;-16,51;-8,95;-16,51;-8,95;4,5;1,57;4,5;1,57;0;0;
4810;-18,16;-8,58;-18,16;-8,58;3,72;1,76;3,72;1,76;0;0;
4828;-14,33;-2,41;-14,33;-2,41;2;1,92;2;1,92;0;0;
4844;-20,94;-8,9;-20,94;-8,9;2,11;2,04;2,11;2,04;0;0;
4861;-13,21;-3,68;-13,21;-3,68;2,13;2,05;2,13;2,05;0;0;
4898;-15,49;-7,94;-15,49;-7,94;1,89;2,08;1,89;2,08;0;0;
4923;-15,75;-4,35;-15,75;-4,35;2,18;2,1;2,18;2,1;0;0;
4964;-15,53;-13,08;-15,53;-13,08;2,01;2,12;2,01;2,12;0;0;
4983;-16,83;-3,74;-16,83;-3,74;1,95;1,95;1,95;1,95;0;0;
5014;-17,34;-11,27;-17,34;-11,27;1,87;2,02;1,87;2,02;0;0;
5031;-11,94;-9,38;-11,94;-9,38;2,04;1,97;2,04;1,97;0;0;
5054;-17,94;-6,65;-17,94;-6,65;1,93;1,97;1,93;1,97;0;0;
5081;-16,93;-6,41;-16,93;-6,41;1,78;1,87;1,78;1,87;0;0;
5098;-16,77;-6,11;-16,77;-6,11;1,71;1,8;1,71;1,8;0;0;
5122;85,47;-9,02;85,47;-9,02;11,41;1,8;11,41;1,8;0;0;
5156;-48,51;-6,53;-48,51;-6,53;24,12;1,78;24,12;1,78;0;0;
5180;-113,83;-11,24;-113,83;-11,24;29,65;1,8;29,65;1,8;0;0;
5203;36,78;-4,92;36,78;-4,92;38,35;1,79;38,35;1,79;0;0;
5227;10,42;-11,09;10,42;-11,09;48,54;1,82;48,54;1,82;0;0;
5242;-15,52;-9,45;-15,52;-9,45;46,63;1,88;46,63;1,88;0;0;
5278;45,2;-4,6;45,2;-4,6;42,34;1,8;42,34;1,8;0;0;
5313;56,11;-4,71;56,11;-4,71;38,35;1,84;38,35;1,84;0;0;
5329;56,11;-4,71;56,11;-4,71;38,03;1,81;38,03;1,81;0;0;
5345;-52,56;-4,55;-52,56;-4,55;32,71;1,64;32,71;1,64;0;0;
5361;-261,43;-8,2;-261,43;-8,2;51,31;1,74;51,31;1,74;0;0;
5376;-48,55;-5,26;-48,55;-5,26;56,57;1,7;56,57;1,7;0;0;
5391;-23,51;-11,08;-23,51;-11,08;57,77;1,9;57,77;1,9;0;0;
5408;-23,51;-11,08;-23,51;-11,08;60,61;1,93;60,61;1,93;0;0;
5439;-69,69;-5,65;-69,69;-5,65;64,33;1,97;64,33;1,97;0;0;
5468;-37,32;-4,23;-37,32;-4,23;65,54;1,91;65,54;1,91;0;0;
5484;6,25;-4,99;6,25;-4,99;51,63;1,71;51,63;1,71;0;0;
5499;6,25;-4,99;6,25;-4,99;50,36;1,7;50,36;1,7;0;0;
5515;-320,91;-10,72;-320,91;-10,72;60,73;1,82;60,73;1,82;0;0;
5530;-320,91;-10,72;-320,91;-10,72;71,2;1,9;71,2;1,9;0;0;
5547;-123,89;-5,94;-123,89;-5,94;85,2;1,85;85,2;1,85;0;0;
5564;-100,92;-7,39;-100,92;-7,39;91,1;1,82;91,1;1,82;0;0;
5579;-167,69;-7,86;-167,69;-7,86;110,27;1,89;110,27;1,89;0;0;
5596;-12,03;-9,89;-12,03;-9,89;112,34;1,96;112,34;1,96;0;0;
5614;-34,67;-9,79;-34,67;-9,79;120,58;1,9;120,58;1,9;0;0;
5632;-302,61;-4,46;-302,61;-4,46;123,01;1,92;123,01;1,92;0;0;
5649;-302,61;-4,46;-302,61;-4,46;124,13;2,03;124,13;2,03;0;0;
5669;99,41;-8,9;99,41;-8,9;137,93;2,01;137,93;2,01;0;0;
5686;61,92;-10,75;61,92;-10,75;137,38;1,89;137,38;1,89;1;0;
5701;81,16;-9,12;81,16;-9,12;159,69;1,89;159,69;1,89;1;0;
5718;203,9;-8,04;203,9;-8,04;173,54;1,7;173,54;1,7;1;0;
5735;43,39;-2,63;43,39;-2,63;170,3;1,49;170,3;1,49;1;0;
5752;341,27;-7,43;341,27;-7,43;164,49;1,54;164,49;1,54;1;0;
5769;341,27;-7,43;341,27;-7,43;176,82;1,71;176,82;1,71;1;0;
5785;45,85;-6,89;45,85;-6,89;184,12;1,77;184,12;1,77;1;0;
5808;-73,29;-4,8;-73,29;-4,8;162,48;1,76;162,48;1,76;0;0;
5828;-238,82;-3,72;-238,82;-3,72;156,49;2,19;156,49;2,19;0;0;
5845;140,47;-6,09;140,47;-6,09;152,19;2,19;152,19;2,19;0;0;
5866;-358,15;-8,78;-358,15;-8,78;159,08;1,94;159,08;1,94;0;0;
5884;285,2;-5,88;285,2;-5,88;143,85;1,78;143,85;1,78;0;0;
5903;65,91;-5,22;65,91;-5,22;155,01;1,69;155,01;1,69;0;0;
5921;-235,1;-8,63;-235,1;-8,63;182,67;1,39;182,67;1,39;0;0;
5938;-73,93;-6,17;-73,93;-6,17;166,27;1,23;166,27;1,23;0;0;
5956;142,84;-6,78;142,84;-6,78;176,28;1,31;176,28;1,31;0;0;
5974;11,67;-9,26;11,67;-9,26;162,55;1,49;162,55;1,49;0;0;
5993;-6,96;-8,01;-6,96;-8,01;138,19;1,6;138,19;1,6;0;0;
6009;-6,96;-8,01;-6,96;-8,01;135,96;1,68;135,96;1,68;0;0;
6024;150,03;-9,37;150,03;-9,37;105,2;1,69;105,2;1,69;0;0;
6041;14,36;-10,26;14,36;-10,26;94,01;1,75;94,01;1,75;0;0;
6056;3,4;-6,68;3,4;-6,68;66,36;1,86;66,36;1,86;0;0;
6073;-276,03;-10,11;-276,03;-10,11;62,47;2,11;62,47;2,11;0;0;
6089;-276,03;-10,11;-276,03;-10,11;69,49;2,43;69,49;2,43;0;0;
6105;-447,92;-6,8;-447,92;-6,8;78,09;2,48;78,09;2,48;0;0;
6121;-60,32;-6,66;-60,32;-6,66;87,79;2,4;87,79;2,4;0;0;
6140;-118,7;-10,86;-118,7;-10,86;90,23;2,73;90,23;2,73;0;0;
6156;38,08;-4,12;38,08;-4,12;101,61;2,63;101,61;2,63;0;0;
6171;51,41;-7,41;51,41;-7,41;89,56;2,28;89,56;2,28;0;0;
6188;51,41;-7,41;51,41;-7,41;75,82;2,07;75,82;2,07;0;0;
6206;-45,45;-6,12;-45,45;-6,12;53,5;2,46;53,5;2,46;0;0;
6221;10,7;-7,9;10,7;-7,9;50,91;2,21;50,91;2,21;0;0;
6237;22,1;-6,66;22,1;-6,66;41,43;1,92;41,43;1,92;0;0;
6254;-35,5;-12,75;-35,5;-12,75;39,63;1,83;39,63;1,83;0;0;
6271;-3,94;-7,31;-3,94;-7,31;39,12;1,7;39,12;1,7;0;0;
6287;-3,94;-7,31;-3,94;-7,31;37,15;1,42;37,15;1,42;0;0;
6303;15,72;-7,41;15,72;-7,41;41,32;1,15;41,32;1,15;0;0;
6320;-7,03;-7,24;-7,03;-7,24;38,71;1,09;38,71;1,09;0;0;
6336;21,14;-7,5;21,14;-7,5;42,09;1,16;42,09;1,16;0;0;
6353;-27,61;-5,33;-27,61;-5,33;39,58;1,3;39,58;1,3;0;0;
6369;-27,61;-5,33;-27,61;-5,33;38,72;1,49;38,72;1,49;0;0;
6385;11,8;-8,85;11,8;-8,85;32,64;1,59;32,64;1,59;0;0;
6403;-9,46;-9,12;-9,46;-9,12;26,1;1,76;26,1;1,76;0;0;
6420;-13,84;-4,58;-13,84;-4,58;18,75;1,83;18,75;1,83;0;0;
6435;-1,18;-5,56;-1,18;-5,56;13,5;1,84;13,5;1,84;0;0;
6451;0,48;-6,46;0,48;-6,46;11,82;1,72;11,82;1,72;0;0;
6465;0,48;-6,46;0,48;-6,46;12,25;1,61;12,25;1,61;0;0;
6483;-31,2;-5,46;-31,2;-5,46;10,77;1,66;10,77;1,66;0;0;
6502;-15,78;-4,31;-15,78;-4,31;9,71;1,63;9,71;1,63;0;0;
6520;-15,28;-8,86;-15,28;-8,86;9,46;1,72;9,46;1,72;0;0;
6539;-15,56;-9,12;-15,56;-9,12;7,96;1,78;7,96;1,78;0;0;
6555;-20,31;-8,53;-20,31;-8,53;5,24;1,81;5,24;1,81;0;0;
6573;-15,12;-7,22;-15,12;-7,22;3,61;1,83;3,61;1,83;0;0;
6588;-15,12;-7,22;-15,12;-7,22;2,41;1,76;2,41;1,76;0;0;
6604;-15,74;-7,78;-15,74;-7,78;2,23;1,75;2,23;1,75;0;0;
6620;-14,92;-3,88;-14,92;-3,88;2,38;1,72;2,38;1,72;0;0;
6637;-18,92;-10,08;-18,92;-10,08;2,18;2,01;2,18;2,01;0;0;
6653;-16,05;-9,58;-16,05;-9,58;2,09;2,05;2,09;2,05;0;0;
6669;-16,05;-9,58;-16,05;-9,58;2,05;2,05;2,05;2,05;0;0;
6686;-14,18;-11,01;-14,18;-11,01;1,88;2,15;1,88;2,15;0;0;
6703;-16,29;-10,72;-16,29;-10,72;1,83;2,18;1,83;2,18;0;0;
6719;-20,61;-4,55;-20,61;-4,55;1,78;2,12;1,78;2,12;0;0;
6737;-18,01;-6,73;-18,01;-6,73;1,71;2,03;1,71;2,03;0;0;
6754;-17,96;-7,19;-17,96;-7,19;1,65;2,2;1,65;2,2;0;0;
6770;-17,96;-7,19;-17,96;-7,19;1,62;2,29;1,62;2,29;0;0;
6793;-17,86;-6,09;-17,86;-6,09;1,66;2,14;1,66;2,14;0;0;
6810;-17,86;-6,09;-17,86;-6,09;1,6;2,28;1,6;2,28;0;0;
6827;-19,91;-8,16;-19,91;-8,16;1,66;2,28;1,66;2,28;0;0;
6842;-19,18;-10,09;-19,18;-10,09;1,88;1,96;1,88;1,96;0;0;
6860;-13,14;-6,05;-13,14;-6,05;2,05;1,78;2,05;1,78;0;0;
6877;-16,3;-7,68;-16,3;-7,68;2,08;1,66;2,08;1,66;0;0;
6893;-13,65;-9,24;-13,65;-9,24;2,18;1,49;2,18;1,49;0;0;
6910;-13,65;-9,24;-13,65;-9,24;2,34;1,22;2,34;1,22;0;0;
6927;-17,79;-8,88;-17,79;-8,88;2,14;1,27;2,14;1,27;0;0;
6946;-32,53;-6,54;-32,53;-6,54;3,34;1,35;3,34;1,35;0;0;
6962;-16,17;-3,81;-16,17;-3,81;3,88;1,38;3,88;1,38;0;0;
6977;-60,86;-6,67;-60,86;-6,67;6,92;1,54;6,92;1,54;0;0;
6992;3,39;-8,42;3,39;-8,42;12,82;1,67;12,82;1,67;0;0;
7009;3,39;-8,42;3,39;-8,42;18,74;1,77;18,74;1,77;0;0;
7026;-27;-5,17;-27;-5,17;19,69;1,82;19,69;1,82;0;0;
7042;-12,61;-8,55;-12,61;-8,55;18,55;1,86;18,55;1,86;0;0;
7060;-15,78;-7,47;-15,78;-7,47;17,76;1,63;17,76;1,63;0;0;
7079;-14,49;-3,44;-14,49;-3,44;11,24;1,75;11,24;1,75;0;0;
7097;-17,44;-3,35;-17,44;-3,35;5,19;1,78;5,19;1,78;0;0;
7114;-14,87;-8,38;-14,87;-8,38;3,21;1,76;3,21;1,76;0;0;
7132;5,01;-5,54;5,01;-5,54;4,07;1,7;4,07;1,7;0;0;
7149;5,01;-5,54;5,01;-5,54;6,13;1,8;6,13;1,8;0;0;
7164;1,13;-6,05;1,13;-6,05;9,83;1,89;9,83;1,89;0;0;
7179;-96,55;-3,61;-96,55;-3,61;16,05;1,93;16,05;1,93;0;0;
7196;-20,69;-6,34;-20,69;-6,34;22,96;2,16;22,96;2,16;0;0;
7213;99,87;-11,37;99,87;-11,37;29,12;2,19;29,12;2,19;0;0;
7230;99,87;-11,37;99,87;-11,37;33,22;2,2;33,22;2,2;0;0;
7245;-39,31;-6,85;-39,31;-6,85;40,35;2,15;40,35;2,15;0;0;
7261;-54,99;-6,13;-54,99;-6,13;44,96;2,14;44,96;2,14;0;0;
7278;5,13;-10,72;5,13;-10,72;40,65;2,08;40,65;2,08;0;0;
7297;-74,8;-1,31;-74,8;-1,31;42,05;2,08;42,05;2,08;0;0;
7313;-29,01;-7,97;-29,01;-7,97;43,95;2,07;43,95;2,07;0;0;
7330;-29,01;-7,97;-29,01;-7,97;41,29;2,01;41,29;2,01;0;0;
7345;-67,64;-8,54;-67,64;-8,54;39,66;1,87;39,66;1,87;0;0;
7363;155,64;-4,02;155,64;-4,02;57,44;1,81;57,44;1,81;0;0;
7378;-226,38;-8,51;-226,38;-8,51;78,45;1,68;78,45;1,68;0;0;
7394;95,42;-7,55;95,42;-7,55;89,74;1,55;89,74;1,55;0;0;
7411;-163,91;-3,04;-163,91;-3,04;92,64;1,56;92,64;1,56;0;0;
7429;-163,91;-3,04;-163,91;-3,04;95,1;1,73;95,1;1,73;0;0;
7445;123,9;-6,57;123,9;-6,57;113,92;1,84;113,92;1,84;0;0;
7461;126,17;-5,71;126,17;-5,71;119,74;1,72;119,74;1,72;0;0;
7476;-142,78;-8,85;-142,78;-8,85;125,75;1,81;125,75;1,81;0;0;
7493;-20,57;-4,1;-20,57;-4,1;130,74;1,96;130,74;1,96;0;0;
7508;-20,57;-4,1;-20,57;-4,1;140,3;2,05;140,3;2,05;0;0;
7523;-171,14;-11,59;-171,14;-11,59;148,68;2,08;148,68;2,08;0;0;
7539;41,83;-6,13;41,83;-6,13;136,79;2,12;136,79;2,12;0;0;
7555;307,5;-4,79;307,5;-4,79;152,91;2,24;152,91;2,24;0;0;
7570;307,5;-4,79;307,5;-4,79;174,16;2,27;174,16;2,27;0;0;
7584;120,41;-9,25;120,41;-9,25;176,62;2,2;176,62;2,2;0;0;
7602;173,77;-4,87;173,77;-4,87;208,72;2,19;208,72;2,19;1;0;
7620;117,47;-8;117,47;-8;227,42;2,08;227,42;2,08;0;0;
7640;-552,47;-5,08;-552,47;-5,08;243,79;2,15;243,79;2,15;0;0;
7661;322,91;-2,5;322,91;-2,5;217,18;2,38;217,18;2,38;0;0;
7678;109,14;-7,52;109,14;-7,52;194,01;2,35;194,01;2,35;0;0;
7695;-110,9;-8,74;-110,9;-8,74;166,89;2,4;166,89;2,4;0;0;
7710;-110,9;-8,74;-110,9;-8,74;147,1;2,3;147,1;2,3;0;0;
7725;-45,66;-5,04;-45,66;-5,04;126,91;2,3;126,91;2,3;0;0;
7741;135,05;-8,29;135,05;-8,29;124,86;2;124,86;2;0;0;
7757;177,12;-6,28;177,12;-6,28;108,47;1,5;108,47;1,5;0;0;
7772;-299,45;-11,47;-299,45;-11,47;117,27;1,44;117,27;1,44;0;0;
7789;-299,45;-11,47;-299,45;-11,47;123,96;1,46;123,96;1,46;0;0;
7808;-267,74;-10,11;-267,74;-10,11;142,65;1,48;142,65;1,48;0;0;
7824;114,59;-5,72;114,59;-5,72;146,66;1,51;146,66;1,51;0;0;
7841;-14,13;-4,36;-14,13;-4,36;127,76;1,54;127,76;1,54;0;0;
7857;-229,23;-7,85;-229,23;-7,85;131,16;1,53;131,16;1,53;0;0;
7874;-305,05;-13,61;-305,05;-13,61;120,26;1,71;120,26;1,71;0;0;
7893;117,53;-6,73;117,53;-6,73;110,04;1,89;110,04;1,89;0;0;
7909;117,53;-6,73;117,53;-6,73;105,02;2,04;105,02;2,04;0;0;
7924;7,47;-7,42;7,47;-7,42;122,34;2,06;122,34;2,06;0;0;
7940;-374,07;-8,54;-374,07;-8,54;131,52;2,09;131,52;2,09;0;0;
7958;-7,17;-7,43;-7,17;-7,43;120,9;2,18;120,9;2,18;0;0;
7973;-3,11;-6,9;-3,11;-6,9;105,98;1,9;105,98;1,9;0;0;
7988;-3,11;-6,9;-3,11;-6,9;89,45;1,69;89,45;1,69;0;0;
8006;93,18;-8,37;93,18;-8,37;75,16;1,84;75,16;1,84;0;0;
8021;-90,56;-4,58;-90,56;-4,58;57,38;1,92;57,38;1,92;0;0;
8039;69,35;-8,78;69,35;-8,78;46,09;1,89;46,09;1,89;0;0;
8057;34,07;-8,15;34,07;-8,15;47,24;1,87;47,24;1,87;0;0;
8077;-59,42;-7,4;-59,42;-7,4;47,7;1,84;47,7;1,84;0;0;
8093;-15,38;-9,58;-15,38;-9,58;44,6;1,8;44,6;1,8;0;0;
8109;-15,38;-9,58;-15,38;-9,58;43,26;1,63;43,26;1,63;0;0;
8123;-22;-9,15;-22;-9,15;39,51;1,5;39,51;1,5;0;0;
8141;4,5;-8,26;4,5;-8,26;30,84;1,35;30,84;1,35;0;0;
8160;-19,68;-4,72;-19,68;-4,72;24,95;1,26;24,95;1,26;0;0;
8177;10,38;-7,66;10,38;-7,66;18,11;1,25;18,11;1,25;0;0;
8194;-7,86;-7,76;-7,86;-7,76;17,89;1,48;17,89;1,48;0;0;
8209;-7,86;-7,76;-7,86;-7,76;17,5;1,69;17,5;1,69;0;0;
8227;-13,46;-6,77;-13,46;-6,77;14,38;1,77;14,38;1,77;0;0;
8243;-16,47;-12,08;-16,47;-12,08;12,57;1,99;12,57;1,99;0;0;
8259;-13,54;-9,76;-13,54;-9,76;12,5;2,1;12,5;2,1;0;0;
8278;-14,28;-12,44;-14,28;-12,44;8,32;1,96;8,32;1,96;0;0;
8300;-19,24;-6,92;-19,24;-6,92;3,59;1,73;3,59;1,73;0;0;
8318;-10,93;-5,06;-10,93;-5,06;2,43;1,91;2,43;1,91;0;0;
8335;-17,46;-7,83;-17,46;-7,83;2,73;2,05;2,73;2,05;0;0;
8353;-23,75;-7,05;-23,75;-7,05;3,16;2,03;3,16;2,03;0;0;
8369;-23,75;-7,05;-23,75;-7,05;3,4;2,15;3,4;2,15;0;0;
8387;44,6;-6,08;44,6;-6,08;13,26;2,13;13,26;2,13;0;0;
8405;-52,86;-8,22;-52,86;-8,22;32,24;2,06;32,24;2,06;0;0;
8421;-37,51;-9,57;-37,51;-9,57;42,92;2,03;42,92;2,03;0;0;
8437;-363,25;-8,03;-363,25;-8,03;61,3;1,79;61,3;1,79;0;0;
8453;60,27;-7,13;60,27;-7,13;84,24;1,53;84,24;1,53;0;0;
8470;60,27;-7,13;60,27;-7,13;102,87;1,26;102,87;1,26;0;0;
8488;-98,33;-9,15;-98,33;-9,15;115,06;1,25;115,06;1,25;0;0;
8504;385,73;-5,17;385,73;-5,17;119,8;1,36;119,8;1,36;0;0;
8523;-30,19;-9,21;-30,19;-9,21;116,59;1,41;116,59;1,41;0;0;
8541;-325,13;-8,4;-325,13;-8,4;107,26;1,44;107,26;1,44;1;0;
8559;-236,75;-6,87;-236,75;-6,87;112,49;1,52;112,49;1,52;1;0;
8574;249,58;-5,2;249,58;-5,2;139,84;1,61;139,84;1,61;1;0;
8589;249,58;-5,2;249,58;-5,2;157,44;1,55;157,44;1,55;1;0;
8605;0,52;-5,88;0,52;-5,88;166,94;1,57;166,94;1,57;1;0;
8622;74,53;-12,08;74,53;-12,08;187,71;1,79;187,71;1,79;1;0;
8641;-40,96;-9,12;-40,96;-9,12;177,51;1,97;177,51;1,97;0;0;
8661;34,87;-8,75;34,87;-8,75;143,79;2,03;143,79;2,03;0;0;
8680;-398,46;-6,83;-398,46;-6,83;121,47;2,07;121,47;2,07;0;0;
8695;-23,17;-6,56;-23,17;-6,56;96,23;1,97;96,23;1,97;0;0;
8711;-17,24;-8,43;-17,24;-8,43;59,62;1,92;59,62;1,92;0;0;
8730;-17,24;-8,43;-17,24;-8,43;45,97;1,71;45,97;1,71;0;0;
8746;-42,95;-7,57;-42,95;-7,57;32,53;1,5;32,53;1,5;0;0;
8765;29,89;-8,4;29,89;-8,4;36,47;1,75;36,47;1,75;0;0;
8779;166;-9,55;166;-9,55;24,59;1,66;24,59;1,66;0;0;
8795;-91,82;-6,41;-91,82;-6,41;37,58;1,65;37,58;1,65;0;0;
8812;-15,83;-6,15;-15,83;-6,15;44,77;1,65;44,77;1,65;0;0;
8827;-15,83;-6,15;-15,83;-6,15;52,51;1,72;52,51;1,72;0;0;
8842;-129,8;-6,23;-129,8;-6,23;85,74;1,56;85,74;1,56;0;0;
8860;33,88;-8,42;33,88;-8,42;92,88;1,64;92,88;1,64;0;0;
8878;5,35;-7,2;5,35;-7,2;88,5;1,59;88,5;1,59;0;0;
8894;171,67;-13,05;171,67;-13,05;111,57;1,7;111,57;1,7;0;0;
8910;171,67;-13,05;171,67;-13,05;135,38;1,79;135,38;1,79;0;0;
8925;5,69;-5,58;5,69;-5,58;126,8;1,68;126,8;1,68;0;0;
8942;-78,92;-9,64;-78,92;-9,64;112,78;1,7;112,78;1,7;0;0;
8960;-24,89;-10,57;-24,89;-10,57;107,5;1,73;107,5;1,73;0;0;
8975;-9,25;-7,42;-9,25;-7,42;90,48;1,67;90,48;1,67;0;0;
8990;-9,25;-7,42;-9,25;-7,42;60,6;1,58;60,6;1,58;0;0;
9006;-15,82;-9,62;-15,82;-9,62;36,22;1,61;36,22;1,61;0;0;
9024;-15,02;-8,2;-15,02;-8,2;29,31;1,78;29,31;1,78;0;0;
9042;-47,38;-7,42;-47,38;-7,42;8,85;1,72;8,85;1,72;0;0;
9059;-12,13;-9,49;-12,13;-9,49;7,52;1,92;7,52;1,92;0;0;
9076;-12,81;-3,35;-12,81;-3,35;6,75;2,09;6,75;2,09;0;0;
9093;-5,5;-9,61;-5,5;-9,61;7,17;2,05;7,17;2,05;0;0;
9108;-5,5;-9,61;-5,5;-9,61;8,23;2;8,23;2;0;0;
9128;-14,14;-8,05;-14,14;-8,05;9,08;1,94;9,08;1,94;0;0;
9144;-13,42;-8,2;-13,42;-8,2;6,47;1,85;6,47;1,85;0;0;
9160;-17,68;-6,22;-17,68;-6,22;5,21;1,78;5,21;1,78;0;0;
9175;-16,66;-8,2;-16,66;-8,2;4,48;1,64;4,48;1,64;0;0;
9190;-16,66;-8,2;-16,66;-8,2;3,27;1,54;3,27;1,54;0;0;
9207;-22,26;-11,71;-22,26;-11,71;2,21;1,61;2,21;1,61;0;0;
9224;-15,38;-4,12;-15,38;-4,12;2,07;1,53;2,07;1,53;0;0;
9240;-20,83;-6,58;-20,83;-6,58;1,97;1,48;1,97;1,48;0;0;
9254;-15,8;-13,97;-15,8;-13,97;1,88;1,66;1,88;1,66;0;0;
9290;-14,53;-8,43;-14,53;-8,43;2,28;1,94;2,28;1,94;0;0;
9308;-17,72;-9,1;-17,72;-9,1;2,23;2,06;2,23;2,06;0;0;
9326;-19,75;-6,92;-19,75;-6,92;2,09;1,88;2,09;1,88;0;0;
9344;-12,69;-5,08;-12,69;-5,08;2,11;1,99;2,11;1,99;0;0;
9360;-17,57;-7,68;-17,57;-7,68;2,24;1,74;2,24;1,74;0;0;
9378;-13,14;-11,78;-13,14;-11,78;2,35;1,59;2,35;1,59;0;0;
9394;-22,46;-5,52;-22,46;-5,52;2,48;1,51;2,48;1,51;0;0;
9409;-22,46;-5,52;-22,46;-5,52;2,81;1,55;2,81;1,55;0;0;
9427;-13,76;-7,91;-13,76;-7,91;2,93;1,66;2,93;1,66;0;0;
9443;-19,22;-5,36;-19,22;-5,36;2,88;1,67;2,88;1,67;0;0;
9458;-16,54;-6,31;-16,54;-6,31;2,78;1,88;2,78;1,88;0;0;
9476;-17,29;-10,73;-17,29;-10,73;2,42;1,87;2,42;1,87;0;0;
9492;-21,66;-5,69;-21,66;-5,69;2,21;1,98;2,21;1,98;0;0;
9507;-21,66;-5,69;-21,66;-5,69;1,94;2,08;1,94;2,08;0;0;
9524;-21,38;-3,79;-21,38;-3,79;2,3;2,06;2,3;2,06;0;0;
9542;-14,19;-10,3;-14,19;-10,3;2,32;2,07;2,32;2,07;0;0;
9561;-17,17;-8,78;-17,17;-8,78;2,29;2,07;2,29;2,07;0;0;
9576;-17,15;-7,4;-17,15;-7,4;2,15;2,03;2,15;2,03;0;0;
9592;-20,27;-6,89;-20,27;-6,89;2,06;1,93;2,06;1,93;0;0;
9610;-20,27;-6,89;-20,27;-6,89;1,97;1,9;1,97;1,9;0;0;
9625;-19,5;-7,57;-19,5;-7,57;1,79;1,94;1,79;1,94;0;0;
9640;-17,67;-6,72;-17,67;-6,72;1,76;1,99;1,76;1,99;0;0;
9659;-22,33;-5,46;-22,33;-5,46;1,9;1,88;1,9;1,88;0;0;
9676;-18,07;-9,73;-18,07;-9,73;2;1,96;2;1,96;0;0;
9692;-19,28;-8,65;-19,28;-8,65;1,91;1,94;1,91;1,94;0;0;
9707;-19,28;-8,65;-19,28;-8,65;1,72;1,79;1,72;1,79;0;0;
9723;-20,03;-6,06;-20,03;-6,06;1,72;1,97;1,72;1,97;0;0;
9740;-17,65;-7,26;-17,65;-7,26;1,58;1,82;1,58;1,82;0;0;
9758;-16,67;-6,52;-16,67;-6,52;1,53;1,87;1,53;1,87;0;0;
9774;-15,57;-6,97;-15,57;-6,97;1,62;1,86;1,62;1,86;0;0;
9790;-15,57;-6,97;-15,57;-6,97;1,71;1,91;1,71;1,91;0;0;
9807;-16,38;-3,34;-16,38;-3,34;1,81;1,97;1,81;1,97;0;0;
9831;-17,88;-4,11;-17,88;-4,11;1,73;2,07;1,73;2,07;0;0;
9847;-15,38;-9,5;-15,38;-9,5;1,64;2;1,64;2;0;0;
9864;-17,2;-5,77;-17,2;-5,77;1,65;2,03;1,65;2,03;0;0;
9879;-16,28;-6,69;-16,28;-6,69;1,68;2,02;1,68;2,02;0;0;
9895;-17,42;-5,19;-17,42;-5,19;1,61;2,05;1,61;2,05;0;0;
9910;-17,42;-5,19;-17,42;-5,19;1,62;1,93;1,62;1,93;0;0;
9926;-17,97;-4,7;-17,97;-4,7;1,79;1,87;1,79;1,87;0;0;
9943;-18,05;-9,88;-18,05;-9,88;1,77;1,93;1,77;1,93;0;0;
9959;-18,35;-7,78;-18,35;-7,78;1,87;1,95;1,87;1,95;0;0;
9975;-14,07;-0,32;-14,07;-0,32;2,02;1,98;2,02;1,98;0;0;
9993;-16,44;-5,41;-16,44;-5,41;2,31;2,14;2,31;2,14;0;0;
10010;-16,44;-5,41;-16,44;-5,41;2,52;2,41;2,52;2,41;0;0;
10024;-18,92;-7,46;-18,92;-7,46;2,49;2,3;2,49;2,3;0;0;
10044;-19,65;-3,4;-19,65;-3,4;2,69;2,41;2,69;2,41;0;0;
10062;-16,38;-8,16;-16,38;-8,16;2,47;2,36;2,47;2,36;0;0;
10079;-19,21;-6,45;-19,21;-6,45;2,41;2,32;2,41;2,32;0;0;
10096;-15,52;-8,84;-15,52;-8,84;2,3;2,11;2,3;2,11;0;0;
10114;-21,52;-8,25;-21,52;-8,25;2,05;2,09;2,05;2,09;0;0;
10130;-21,52;-8,25;-21,52;-8,25;1,79;2,1;1,79;2,1;0;0;
10146;-17,28;-7,86;-17,28;-7,86;1,65;2;1,65;2;0;0;
10163;-17,72;-9,62;-17,72;-9,62;1,79;1,86;1,79;1,86;0;0;
10178;-17,15;-4,24;-17,15;-4,24;1,69;1,81;1,69;1,81;0;0;
10193;-16,01;-10,26;-16,01;-10,26;1,57;1,73;1,57;1,73;0;0;
10209;-16,01;-10,26;-16,01;-10,26;1,63;1,69;1,63;1,69;0;0;
10226;-18,44;-9,42;-18,44;-9,42;1,78;1,65;1,78;1,65;0;0;
10243;-14,7;-2,07;-14,7;-2,07;1,8;2;1,8;2;0;0;
10261;-19,02;-4,45;-19,02;-4,45;1,56;2,05;1,56;2,05;0;0;
10278;-11,91;-8,78;-11,91;-8,78;1,57;2,17;1,57;2,17;0;0;
10294;-17,8;-6,07;-17,8;-6,07;1,59;2,13;1,59;2,13;0;0;
10309;-17,8;-6,07;-17,8;-6,07;1,59;2,11;1,59;2,11;0;0;
10325;-15,3;-5,22;-15,3;-5,22;1,72;1,99;1,72;1,99;0;0;
10343;-13,58;-9,38;-13,58;-9,38;1,83;1,87;1,83;1,87;0;0;
10360;-17,01;-11,07;-17,01;-11,07;2,01;1,66;2,01;1,66;0;0;
10378;-14,61;-5,46;-14,61;-5,46;1,92;1,77;1,92;1,77;0;0;
10394;-17,13;-9,08;-17,13;-9,08;1,9;1,95;1,9;1,95;0;0;
10409;-17,13;-9,08;-17,13;-9,08;1,77;2,1;1,77;2,1;0;0;
10425;-14,52;-7,66;-14,52;-7,66;1,68;2,08;1,68;2,08;0;0;
10441;-16,46;-7,43;-16,46;-7,43;1,79;1,96;1,79;1,96;0;0;
10457;-15,66;-9,14;-15,66;-9,14;1,71;2;1,71;2;0;0;
10473;-13,53;-7,05;-13,53;-7,05;1,77;1,98;1,77;1,98;0;0;
10492;-11,78;-11,69;-11,78;-11,69;1,76;1,83;1,76;1,83;0;0;
10507;-11,78;-11,69;-11,78;-11,69;1,85;1,77;1,85;1,77;0;0;
10521;-16,45;-4,39;-16,45;-4,39;1,96;1,9;1,96;1,9;0;0;
10540;-17,19;-8,85;-17,19;-8,85;1,83;2,04;1,83;2,04;0;0;
10557;-14,43;-8,39;-14,43;-8,39;1,91;1,88;1,91;1,88;0;0;
10572;-18,02;-5,37;-18,02;-5,37;1,74;1,88;1,74;1,88;0;0;
10588;-18,02;-5,37;-18,02;-5,37;1,63;1,94;1,63;1,94;0;0;
10605;-18,9;-5,08;-18,9;-5,08;1,75;1,94;1,75;1,94;0;0;
10621;-17,38;-6,09;-17,38;-6,09;1,69;2,19;1,69;2,19;0;0;
10637;-17,05;-1,59;-17,05;-1,59;1,67;2,26;1,67;2,26;0;0;
10653;-17,81;-8,28;-17,81;-8,28;1,55;2,05;1,55;2,05;0;0;
10670;-18,75;-4,7;-18,75;-4,7;1,58;1,96;1,58;1,96;0;0;
10688;-18,75;-4,7;-18,75;-4,7;1,59;1,86;1,59;1,86;0;0;
10703;-15,48;-5,24;-15,48;-5,24;1,33;1,66;1,33;1,66;0;0;
10720;-19,1;-7,68;-19,1;-7,68;1,28;1,53;1,28;1,53;0;0;
10738;-11,43;-6,42;-11,43;-6,42;1,42;1,54;1,42;1,54;0;0;
10754;-15,71;-6,94;-15,71;-6,94;1,58;1,55;1,58;1,55;0;0;
10770;-15,71;-6,94;-15,71;-6,94;1,81;1,46;1,81;1,46;0;0;
10788;-20,43;-8,96;-20,43;-8,96;1,84;1,44;1,84;1,44;0;0;
10805;-16,8;-9,74;-16,8;-9,74;1,99;1,42;1,99;1,42;0;0;
10821;-18,49;-6,33;-18,49;-6,33;2,09;1,38;2,09;1,38;0;0;
10837;-16,74;-8,13;-16,74;-8,13;1,9;1,52;1,9;1,52;0;0;
10854;-13,48;-6,78;-13,48;-6,78;1,8;1,8;1,8;1,8;0;0;
10872;-19,79;-8,76;-19,79;-8,76;1,8;1,96;1,8;1,96;0;0;
10888;-19,79;-8,76;-19,79;-8,76;1,85;1,99;1,85;1,99;0;0;
10906;-16,72;-7,93;-16,72;-7,93;2,23;1,99;2,23;1,99;0;0;
10924;-8,25;-5,7;-8,25;-5,7;2,4;2,18;2,4;2,18;0;0;
10941;-21,66;-5,96;-21,66;-5,96;2,74;2,01;2,74;2,01;0;0;
10956;-18,74;-9,75;-18,74;-9,75;2,78;1,98;2,78;1,98;0;0;
10972;-15,43;-7,67;-15,43;-7,67;2,76;1,99;2,76;1,99;0;0;
10987;-15,43;-7,67;-15,43;-7,67;2,53;1,95;2,53;1,95;0;0;
11003;-20,07;-10,44;-20,07;-10,44;2,32;1,9;2,32;1,9;0;0;
11018;-16,26;-3,88;-16,26;-3,88;1,94;2,21;1,94;2,21;0;0;
11036;-17,99;-9,54;-17,99;-9,54;1,89;2,18;1,89;2,18;0;0;
11051;-14,65;-4,34;-14,65;-4,34;1,76;2,27;1,76;2,27;0;0;
11068;-14,65;-4,34;-14,65;-4,34;1,67;2,3;1,67;2,3;0;0;
11083;-17,82;-8,65;-17,82;-8,65;1,74;2,43;1,74;2,43;0;0;
11100;-19,12;-6,32;-19,12;-6,32;1,81;2,43;1,81;2,43;0;0;
11118;-14,06;-7,42;-14,06;-7,42;2,19;2,29;2,19;2,29;0;0;
11135;-16,65;-8,37;-16,65;-8,37;2,32;2,26;2,32;2,26;0;0;
11151;-18,25;-10,94;-18,25;-10,94;2,5;2,3;2,5;2,3;0;0;
11168;-18,25;-10,94;-18,25;-10,94;2,54;2,44;2,54;2,44;0;0;
11183;-17,31;-5,96;-17,31;-5,96;2,61;2,19;2,61;2,19;0;0;
11201;-16,52;-6,13;-16,52;-6,13;2,49;2,12;2,49;2,12;0;0;
11216;-13,58;-4,72;-13,58;-4,72;2,16;2,21;2,16;2,21;0;0;
11232;-16,07;-9,99;-16,07;-9,99;2,06;2,31;2,06;2,31;0;0;
11248;-16,07;-9,99;-16,07;-9,99;2,03;2,3;2,03;2,3;0;0;
11264;-13,81;-8,03;-13,81;-8,03;1,94;2,08;1,94;2,08;0;0;
11280;-17,68;-2,78;-17,68;-2,78;1,74;2,11;1,74;2,11;0;0;
11295;-15,85;-6,51;-15,85;-6,51;1,75;1,88;1,75;1,88;0;0;
11312;-16,29;-7,6;-16,29;-7,6;1,7;1,78;1,7;1,78;0;0;
11332;-18,83;-8,65;-18,83;-8,65;1,62;1,57;1,62;1,57;0;0;
11349;-18,83;-8,65;-18,83;-8,65;1,64;1,29;1,64;1,29;0;0;
11367;-18,79;-10,76;-18,79;-10,76;1,65;1,4;1,65;1,4;0;0;
11383;-18,79;-10,76;-18,79;-10,76;1,71;1,29;1,71;1,29;0;0;
11400;-18,19;-11,1;-18,19;-11,1;1,61;1,28;1,61;1,28;0;0;
11416;-16,59;-8,42;-16,59;-8,42;1,59;1,39;1,59;1,39;0;0;
11433;-21,14;-7,77;-21,14;-7,77;1,87;1,7;1,87;1,7;0;0;
11449;-21,14;-7,77;-21,14;-7,77;2,14;2;2,14;2;0;0;
11465;-19,25;-3,76;-19,25;-3,76;2,4;2,09;2,4;2,09;0;0;
11482;-18,46;-8,9;-18,46;-8,9;2,26;2,12;2,26;2,12;0;0;
11498;-17,62;-5,69;-17,62;-5,69;2,3;2,23;2,3;2,23;0;0;
11513;-13,09;-7,17;-13,09;-7,17;2,32;2,12;2,32;2,12;0;0;
11530;-13,09;-7,17;-13,09;-7,17;2,15;1,87;2,15;1,87;0;0;
11546;-12,3;-7,33;-12,3;-7,33;2,3;1,63;2,3;1,63;0;0;
11562;-17,31;-4,45;-17,31;-4,45;2,06;1,57;2,06;1,57;0;0;
11578;-17,12;-4,94;-17,12;-4,94;2,15;1,67;2,15;1,67;0;0;
11594;-14,22;-9,09;-14,22;-9,09;2,28;1,8;2,28;1,8;0;0;
11609;-14,22;-9,09;-14,22;-9,09;2,33;2;2,33;2;0;0;
11625;-18,31;-4,68;-18,31;-4,68;2,08;2,18;2,08;2,18;0;0;
11641;-20,39;-13,78;-20,39;-13,78;1,99;2,23;1,99;2,23;0;0;
11656;-19,72;-4,22;-19,72;-4,22;2,13;2,47;2,13;2,47;0;0;
11674;-13,73;-10,98;-13,73;-10,98;2,02;2,3;2,02;2,3;0;0;
11689;-13,73;-10,98;-13,73;-10,98;1,77;2,24;1,77;2,24;0;0;
11704;-17,59;-11,03;-17,59;-11,03;1,53;2,4;1,53;2,4;0;0;
11721;-15,07;-8,99;-15,07;-8,99;1,53;2,34;1,53;2,34;0;0;
11738;-22,13;-9,39;-22,13;-9,39;1,77;2,03;1,77;2,03;0;0;
11755;-15,48;-3,48;-15,48;-3,48;2,11;2,16;2,11;2,16;0;0;
11770;-16,12;-6,93;-16,12;-6,93;2,14;2,08;2,14;2,08;0;0;
11786;-16,12;-6,93;-16,12;-6,93;2,12;2,03;2,12;2,03;0;0;
11802;-15,45;-6,66;-15,45;-6,66;2,24;1,96;2,24;1,96;0;0;
11818;-14,96;-4,5;-14,96;-4,5;1,99;2,12;1,99;2,12;0;0;
11834;-16,28;-9,54;-16,28;-9,54;1,73;2,2;1,73;2,2;0;0;
11852;-16,78;-4,99;-16,78;-4,99;1,65;2,05;1,65;2,05;0;0;
11870;-16,78;-4,99;-16,78;-4,99;1,65;2,1;1,65;2,1;0;0;
11888;-17,14;-8,4;-17,14;-8,4;1,56;2,07;1,56;2,07;0;0;
11906;-19,68;-8,27;-19,68;-8,27;1,5;1,9;1,5;1,9;0;0;
11923;-18,64;-5,68;-18,64;-5,68;1,4;1,93;1,4;1,93;0;0;
11941;-14,9;-6,03;-14,9;-6,03;1,44;1,83;1,44;1,83;0;0;
11959;-15,7;-9,93;-15,7;-9,93;1,96;1,81;1,96;1,81;0;0;
11976;-18,31;-7,42;-18,31;-7,42;2,21;1,81;2,21;1,81;0;0;
11992;-17,13;-10,72;-17,13;-10,72;2,15;1,88;2,15;1,88;0;0;
12008;-17,13;-10,72;-17,13;-10,72;2,07;2,09;2,07;2,09;0;0;
12024;-14,73;-4,02;-14,73;-4,02;2,02;2;2,02;2;0;0;
12040;-28,83;-8,08;-28,83;-8,08;3,15;2,11;3,15;2,11;0;0;
12056;46,08;-2,55;46,08;-2,55;6,56;2,32;6,56;2,32;0;0;
12074;-70,25;-10,19;-70,25;-10,19;13,03;2,24;13,03;2,24;0;0;
12089;-70,25;-10,19;-70,25;-10,19;19,64;2,21;19,64;2,21;0;0;
12105;-25,48;-6,57;-25,48;-6,57;21,74;2,31;21,74;2,31;0;0;
12122;-28,58;-5,43;-28,58;-5,43;22,43;2,23;22,43;2,23;0;0;
12138;-12,12;-7,05;-12,12;-7,05;21,84;2,16;21,84;2,16;0;0;
12155;-12,12;-7,05;-12,12;-7,05;19,17;2,11;19,17;2,11;0;0;
12172;-22,71;-4,83;-22,71;-4,83;17,98;2,08;17,98;2,08;0;0;
12187;-22,71;-4,83;-22,71;-4,83;19,29;1,98;19,29;1,98;0;0;
12204;-1,2;-9,54;-1,2;-9,54;22,99;2,06;22,99;2,06;0;0;
12220;-10,87;-11,09;-10,87;-11,09;21,75;1,91;21,75;1,91;0;0;
12237;-62,28;-8,07;-62,28;-8,07;25,46;1,71;25,46;1,71;0;0;
12254;1,98;-7,64;1,98;-7,64;26,62;1,68;26,62;1,68;0;0;
12272;-104,43;-8,04;-104,43;-8,04;29,6;1,61;29,6;1,61;0;0;
12287;-104,43;-8,04;-104,43;-8,04;29,28;1,55;29,28;1,55;0;0;
12304;1,43;-8,57;1,43;-8,57;33,51;1,63;33,51;1,63;0;0;
12320;-72,19;-5,03;-72,19;-5,03;44,6;1,59;44,6;1,59;0;0;
12338;72,41;-12,44;72,41;-12,44;55,18;1,75;55,18;1,75;0;0;
12356;-123,28;-3,97;-123,28;-3,97;61,55;1,99;61,55;1,99;0;0;
12372;-232,69;-8,27;-232,69;-8,27;67,42;2,04;67,42;2,04;0;0;
12387;-232,69;-8,27;-232,69;-8,27;72,77;1,96;72,77;1,96;0;0;
12404;-108,76;-7,68;-108,76;-7,68;81,26;1,99;81,26;1,99;0;0;
12419;115,33;-11,23;115,33;-11,23;95,7;2,16;95,7;2,16;0;0;
12436;-330,6;-5,34;-330,6;-5,34;120,76;2,11;120,76;2,11;0;0;
12452;-18,41;-6,41;-18,41;-6,41;134,73;1,88;134,73;1,88;0;0;
12468;-18,41;-6,41;-18,41;-6,41;144,02;1,84;144,02;1,84;0;0;
12485;-136,38;-10,7;-136,38;-10,7;147,94;1,88;147,94;1,88;0;0;
12502;359,5;-8,75;359,5;-8,75;173,7;1,77;173,7;1,77;0;0;
12518;253,42;-6,05;253,42;-6,05;178,63;1,63;178,63;1,63;0;0;
12536;214,3;-6,38;214,3;-6,38;185,6;1,51;185,6;1,51;0;0;
12553;-577,22;-9,32;-577,22;-9,32;196,65;1,52;196,65;1,52;0;0;
12573;-97,87;-8;-97,87;-8;201,79;1,6;201,79;1,6;0;0;
12590;-97,87;-8;-97,87;-8;200,03;1,62;200,03;1,62;0;0;
12606;193,76;-6,6;193,76;-6,6;187,45;1,62;187,45;1,62;0;0;
12621;-12,32;-6,72;-12,32;-6,72;189,93;1,6;189,93;1,6;0;0;
12638;-12,32;-6,72;-12,32;-6,72;171,27;1,53;171,27;1,53;0;0;
12654;105,74;-5,81;105,74;-5,81;175,7;1,7;175,7;1,7;0;0;
12671;105,74;-5,81;105,74;-5,81;184,42;1,88;184,42;1,88;0;0;
12687;80,38;-7,62;80,38;-7,62;161,85;1,86;161,85;1,86;0;0;
12704;-31,04;-10,14;-31,04;-10,14;136,38;2,09;136,38;2,09;0;0;
12723;-353,01;-5,73;-353,01;-5,73;128,56;2,18;128,56;2,18;0;0;
12742;47,56;-7,04;47,56;-7,04;116,85;2,19;116,85;2,19;0;0;
12760;30,72;-7,59;30,72;-7,59;89,42;2,17;89,42;2,17;0;0;
12778;68,62;-7,79;68,62;-7,79;69,06;2,22;69,06;2,22;0;0;
12796;78,02;-7,95;78,02;-7,95;84,24;2,19;84,24;2,19;0;0;
12814;22,12;-9,41;22,12;-9,41;96,43;2,13;96,43;2,13;0;0;
12830;22,12;-9,41;22,12;-9,41;81,04;2,04;81,04;2,04;0;0;
12850;-8,69;-8,95;-8,69;-8,95;75,14;1,78;75,14;1,78;0;0;
12868;-1,95;-4,37;-1,95;-4,37;68,66;1,61;68,66;1,61;0;0;
12884;-26,21;-7,77;-26,21;-7,77;53,59;1,6;53,59;1,6;0;0;
12901;20,14;-6,19;20,14;-6,19;34,28;1,49;34,28;1,49;0;0;
12918;-6,15;-5,15;-6,15;-5,15;19,84;1,55;19,84;1,55;0;0;
12935;-47,83;-9,01;-47,83;-9,01;12,85;1,79;12,85;1,79;0;0;
12956;-12,85;-2,92;-12,85;-2,92;11,74;1,89;11,74;1,89;0;0;
12974;-12,4;-8,54;-12,4;-8,54;9,29;1,7;9,29;1,7;0;0;
12992;-19,14;-10,73;-19,14;-10,73;8,07;1,82;8,07;1,82;0;0;
13012;-14,77;-8,43;-14,77;-8,43;4,55;1,9;4,55;1,9;0;0;
13029;-14,77;-8,43;-14,77;-8,43;4,47;1,81;4,47;1,81;0;0;
13048;-17,65;-5,65;-17,65;-5,65;2,13;2;2,13;2;0;0;
13064;-4,99;-12,53;-4,99;-12,53;2,36;2,17;2,36;2,17;0;0;
13080;-85,33;-6,94;-85,33;-6,94;10,43;2,08;10,43;2,08;0;0;
13096;-167,25;-4,36;-167,25;-4,36;26,43;2,13;26,43;2,13;0;0;
13111;119,9;-6,7;119,9;-6,7;45,06;2,08;45,06;2,08;0;0;
13129;119,9;-6,7;119,9;-6,7;63,69;2,07;63,69;2,07;0;0;
13145;-149,86;-6,32;-149,86;-6,32;86,11;1,93;86,11;1,93;0;0;
13164;-88,89;-6,95;-88,89;-6,95;105,09;1,73;105,09;1,73;0;0;
13181;-330,88;-8,76;-330,88;-8,76;123,46;1,61;123,46;1,61;0;0;
13198;74,49;-8,02;74,49;-8,02;120,25;1,6;120,25;1,6;0;0;
13215;44,14;-10,11;44,14;-10,11;120,15;1,6;120,15;1,6;0;0;
13229;44,14;-10,11;44,14;-10,11;120,09;1,62;120,09;1,62;0;0;
13244;-6,64;-7,76;-6,64;-7,76;113,59;1,53;113,59;1,53;0;0;
13262;-134,92;-6,02;-134,92;-6,02;102,93;1,52;102,93;1,52;0;0;
13278;-313,94;-8,43;-313,94;-8,43;91,4;1,57;91,4;1,57;0;0;
13294;-24,8;-7,91;-24,8;-7,91;116,17;1,66;116,17;1,66;0;0;
13312;25,63;-7,68;25,63;-7,68;116,47;1,74;116,47;1,74;1;0;
13328;25,63;-7,68;25,63;-7,68;121,2;1,88;121,2;1,88;1;0;
13344;-14,71;-5,54;-14,71;-5,54;151,18;2,06;151,18;2,06;1;0;
13360;-136,45;-7,47;-136,45;-7,47;159,03;2,21;159,03;2,21;1;0;
13375;-24,81;-8,45;-24,81;-8,45;129,93;2,03;129,93;2,03;1;0;
13392;-43,17;-6,5;-43,17;-6,5;116,59;2,12;116,59;2,12;1;0;
13408;-43,17;-6,5;-43,17;-6,5;107,42;2,07;107,42;2,07;1;0;
13424;-16,59;-12,42;-16,59;-12,42;70,83;2;70,83;2;1;0;
13440;-16,59;-8,04;-16,59;-8,04;44,64;1,94;44,64;1,94;1;0;
13455;-9,01;-9,81;-9,01;-9,81;27,28;1,82;27,28;1,82;1;0;
13472;-20,8;-7,03;-20,8;-7,03;17,3;1,78;17,3;1,78;1;0;
13488;-20,8;-7,03;-20,8;-7,03;7,82;1,68;7,82;1,68;1;0;
13505;124,33;-8,03;124,33;-8,03;26,25;1,62;26,25;1,62;1;0;
13522;86,39;-11,5;86,39;-11,5;60,96;1,38;60,96;1,38;1;0;
13541;-241,9;-5,64;-241,9;-5,64;81,83;1,39;81,83;1,39;1;0;
13559;92,26;-3,88;92,26;-3,88;106,45;1,45;106,45;1,45;1;0;
13575;-49,31;-11,13;-49,31;-11,13;114,49;1,71;114,49;1,71;1;0;
13592;44,03;-8,28;44,03;-8,28;115,56;1,73;115,56;1,73;1;0;
13610;44,03;-8,28;44,03;-8,28;87,63;1,83;87,63;1,83;1;0;
13626;54,59;-9,57;54,59;-9,57;78,52;2,18;78,52;2,18;1;0;
13643;82,87;-5,1;82,87;-5,1;75,51;2,34;75,51;2,34;1;0;
13658;-32,04;-10,31;-32,04;-10,31;66,36;2,06;66,36;2,06;0;0;
13676;-25,71;-7,93;-25,71;-7,93;59,95;1,83;59,95;1,83;0;0;
13693;-25,71;-7,93;-25,71;-7,93;49,85;1,76;49,85;1,76;0;0;
13709;-25,71;-7,93;-25,71;-7,93;39,26;1,66;39,26;1,66;0;0;
13726;-31,03;-6,08;-31,03;-6,08;27,42;1,36;27,42;1,36;0;0;
13744;-12,31;-11,47;-12,31;-11,47;6,03;1,28;6,03;1,28;0;0;
13763;-16,08;-6,88;-16,08;-6,88;4,58;1,3;4,58;1,3;0;0;
13779;-10,01;-5,69;-10,01;-5,69;4,75;1,43;4,75;1,43;0;0;
13799;-18,79;-4,62;-18,79;-4,62;4,66;1,57;4,66;1,57;0;0;
13817;-23,43;-6,07;-23,43;-6,07;4,03;1,63;4,03;1,63;0;0;
13836;-12,6;-8;-12,6;-8;3,39;1,6;3,39;1,6;0;0;
13852;-19,66;-4,71;-19,66;-4,71;3,22;1,63;3,22;1,63;0;0;
13872;-16,33;-8,77;-16,33;-8,77;3;1,82;3;1,82;0;0;
13888;-16,33;-8,77;-16,33;-8,77;2,13;1,92;2,13;1,92;0;0;
13905;-13,05;-2,82;-13,05;-2,82;2,35;1,82;2,35;1,82;0;0;
13921;-16,8;-8,87;-16,8;-8,87;2,44;2,03;2,44;2,03;0;0;
13938;-19,18;-11,37;-19,18;-11,37;2,15;2,16;2,15;2,16;0;0;
13953;-17,75;-2,65;-17,75;-2,65;2,08;2,11;2,08;2,11;0;0;
13968;-17,75;-2,65;-17,75;-2,65;2,26;2,1;2,26;2,1;0;0;
13984;-24,5;-4,21;-24,5;-4,21;2,48;2,17;2,48;2,17;0;0;
14002;-14,39;-9,57;-14,39;-9,57;2,48;2,06;2,48;2,06;0;0;
14017;-15,98;-10;-15,98;-10;2,39;2,19;2,39;2,19;0;0;
14035;-15,41;-7,76;-15,41;-7,76;2,27;2,21;2,27;2,21;0;0;
14050;-15,41;-7,76;-15,41;-7,76;2,32;2,22;2,32;2,22;0;0;
14065;-19,4;-11,11;-19,4;-11,11;2,13;2,15;2,13;2,15;0;0;
14082;-16,93;-8,69;-16,93;-8,69;1,83;2,08;1,83;2,08;0;0;
14096;-16,6;-5,71;-16,6;-5,71;1,7;2,12;1,7;2,12;0;0;
14115;-19,52;-9,6;-19,52;-9,6;1,61;2,02;1,61;2,02;0;0;
14132;-12,74;-6,48;-12,74;-6,48;1,69;2,11;1,69;2,11;0;0;
14147;-12,74;-6,48;-12,74;-6,48;1,67;2,37;1,67;2,37;0;0;
14162;-17,99;-8,13;-17,99;-8,13;1,62;2,22;1,62;2,22;0;0;
14177;-16,45;-5,14;-16,45;-5,14;1,7;2,15;1,7;2,15;0;0;
14194;-15,28;-8,77;-15,28;-8,77;1,96;1,93;1,96;1,93;0;0;
14210;-15,28;-8,77;-15,28;-8,77;2,16;1,77;2,16;1,77;0;0;
14225;-17,37;-4,74;-17,37;-4,74;2,07;1,61;2,07;1,61;0;0;
14241;-10,33;-8,52;-10,33;-8,52;2,14;1,43;2,14;1,43;0;0;
14258;-20,29;-5,73;-20,29;-5,73;2,32;1,58;2,32;1,58;0;0;
14274;-17,53;-9,56;-17,53;-9,56;2,31;1,86;2,31;1,86;0;0;
14289;-17,53;-9,56;-17,53;-9,56;2,16;2,2;2,16;2,2;0;0;
14304;-14,42;-4,3;-14,42;-4,3;2,14;2,15;2,14;2,15;0;0;
14319;-18,78;-9,38;-18,78;-9,38;2,24;2,48;2,24;2,48;0;0;
14337;-14,33;-9,88;-14,33;-9,88;2;2,53;2;2,53;0;0;
14354;-15,59;-6,44;-15,59;-6,44;1,81;2,36;1,81;2,36;0;0;
14374;-14;-5,09;-14;-5,09;1,7;2,1;1,7;2,1;0;0;
14389;-14;-5,09;-14;-5,09;1,53;1,87;1,53;1,87;0;0;
14406;-15,47;-8,51;-15,47;-8,51;1,47;1,71;1,47;1,71;0;0;
14422;-14,57;-8,35;-14,57;-8,35;1,72;1,53;1,72;1,53;0;0;
14438;-17,96;-9,04;-17,96;-9,04;1,72;1,45;1,72;1,45;0;0;
14453;-17,2;-6,79;-17,2;-6,79;1,85;1,51;1,85;1,51;0;0;
14470;-17,2;-6,79;-17,2;-6,79;2,01;1,49;2,01;1,49;0;0;
14484;-17,49;-9,5;-17,49;-9,5;2,01;1,57;2,01;1,57;0;0;
14499;-16,14;-8,75;-16,14;-8,75;1,84;1,68;1,84;1,68;0;0;
14515;-17,46;-11,26;-17,46;-11,26;1,72;1,76;1,72;1,76;0;0;
14533;-17,33;-7,62;-17,33;-7,62;1,71;1,91;1,71;1,91;0;0;
14548;-17,33;-7,62;-17,33;-7,62;1,52;2,08;1,52;2,08;0;0;
14562;-19,91;-3,66;-19,91;-3,66;1,49;2,09;1,49;2,09;0;0;
14577;-17,9;-8,42;-17,9;-8,42;1,56;2,23;1,56;2,23;0;0;
14593;-13,31;-8,88;-13,31;-8,88;1,98;2,12;1,98;2,12;0;0;
14610;-13,31;-8,88;-13,31;-8,88;2,3;2,09;2,3;2,09;0;0;
14627;0,98;-10,5;0,98;-10,5;6,32;1,95;6,32;1,95;0;0;
14643;-19,37;-5,69;-19,37;-5,69;7,13;2,09;7,13;2,09;0;0;
14660;-17,76;-6,42;-17,76;-6,42;7,02;1,95;7,02;1,95;0;0;
14678;-19,39;-4,54;-19,39;-4,54;7,05;1,98;7,05;1,98;0;0;
14696;-12,72;-4,69;-12,72;-4,69;6,72;2,13;6,72;2,13;0;0;
14713;-14,67;-7,84;-14,67;-7,84;4,31;2,34;4,31;2,34;0;0;
14729;-14,67;-7,84;-14,67;-7,84;2,06;2,4;2,06;2,4;0;0;
14744;-12,97;-11,71;-12,97;-11,71;2,02;2,28;2,02;2,28;0;0;
14761;-13,23;-4,1;-13,23;-4,1;2,74;2,35;2,74;2,35;0;0;
14777;-18,92;-9,11;-18,92;-9,11;2,89;2,14;2,89;2,14;0;0;
14793;-18,2;-7,78;-18,2;-7,78;2,87;2,11;2,87;2,11;0;0;
14808;-18,2;-7,78;-18,2;-7,78;2,84;2,09;2,84;2,09;0;0;
14823;-20,43;-7,83;-20,43;-7,83;2,93;2,21;2,93;2,21;0;0;
14839;-17,79;-3,43;-17,79;-3,43;2,65;2,16;2,65;2,16;0;0;
14855;-11,99;-7,3;-11,99;-7,3;2,22;2,03;2,22;2,03;0;0;
14873;-15,83;-9,92;-15,83;-9,92;2,07;1,98;2,07;1,98;0;0;
14890;-15,83;-9,92;-15,83;-9,92;1,95;1,78;1,95;1,78;0;0;
14904;-14,43;-9,85;-14,43;-9,85;1,82;1,7;1,82;1,7;0;0;
14920;-15,54;-7,89;-15,54;-7,89;1,87;1,62;1,87;1,62;0;0;
14938;-14,98;-2,16;-14,98;-2,16;1,97;1,57;1,97;1,57;0;0;
14954;-12,77;-8,77;-12,77;-8,77;1,93;1,68;1,93;1,68;0;0;
14969;-12,77;-8,77;-12,77;-8,77;2,16;1,76;2,16;1,76;0;0;
14985;-21,09;-9,16;-21,09;-9,16;2,31;1,65;2,31;1,65;0;0;
15001;-17;-5,77;-17;-5,77;2,21;1,78;2,21;1,78;0;0;
15017;-16,03;-6,69;-16,03;-6,69;2,07;1,73;2,07;1,73;0;0;
15033;-14,08;-5,88;-14,08;-5,88;1,88;1,64;1,88;1,64;0;0;
15048;-14,08;-5,88;-14,08;-5,88;1,68;1,55;1,68;1,55;0;0;
15066;-17,31;-3,49;-17,31;-3,49;1,58;1,53;1,58;1,53;0;0;
15081;-18,72;-5,05;-18,72;-5,05;1,37;1,74;1,37;1,74;0;0;
15097;-16,38;-7,16;-16,38;-7,16;1,43;1,79;1,43;1,79;0;0;
15112;-12,75;-8,4;-12,75;-8,4;1,49;1,73;1,49;1,73;0;0;
15128;-12,75;-8,4;-12,75;-8,4;1,58;1,68;1,58;1,68;0;0;
15144;-5,79;-6,92;-5,79;-6,92;4,87;1,71;4,87;1,71;0;0;
15159;10,02;-5,97;10,02;-5,97;10,12;1,76;10,12;1,76;0;0;
15176;-94,16;-6,42;-94,16;-6,42;20,22;1,53;20,22;1,53;0;0;
15193;48,37;-13,53;48,37;-13,53;31,31;1,92;31,31;1,92;0;0;
15210;48,37;-13,53;48,37;-13,53;42,28;2,49;42,28;2,49;0;0;
15226;81,61;-8,77;81,61;-8,77;55,27;2,5;55,27;2,5;0;0;
15242;-55,98;-3,71;-55,98;-3,71;60,56;2,57;60,56;2,57;0;0;
15257;141,67;-3,5;141,67;-3,5;68,54;2,46;68,54;2,46;0;0;
15274;82,12;-6,53;82,12;-6,53;73,2;2,39;73,2;2,39;0;0;
15292;166,24;-7,05;166,24;-7,05;89,42;2,05;89,42;2,05;0;0;
15309;166,24;-7,05;166,24;-7,05;108,81;1,99;108,81;1,99;0;0;
15325;124,52;-8,66;124,52;-8,66;117,86;2,02;117,86;2,02;0;0;
15342;112,85;-4,25;112,85;-4,25;122,38;2,19;122,38;2,19;0;0;
15361;174,55;-10,06;174,55;-10,06;131,12;2,15;131,12;2,15;0;0;
15376;-2,09;-6,94;-2,09;-6,94;145,61;2,03;145,61;2,03;0;0;
15394;-210,08;-4,54;-210,08;-4,54;139,83;2,02;139,83;2,02;0;0;
15412;-210,08;-4,54;-210,08;-4,54;133,02;2,13;133,02;2,13;0;0;
15428;-210,08;-4,54;-210,08;-4,54;135,54;2,03;135,54;2,03;0;0;
15444;329,05;-8,04;329,05;-8,04;135,29;1,92;135,29;1,92;0;0;
15462;-27,29;-12,06;-27,29;-12,06;120,42;1,84;120,42;1,84;0;0;
15478;483,58;-9,24;483,58;-9,24;135,13;1,93;135,13;1,93;0;0;
15493;-397,77;-7,18;-397,77;-7,18;143,67;1,88;143,67;1,88;0;0;
15509;-397,77;-7,18;-397,77;-7,18;152,2;1,83;152,2;1,83;0;0;
15525;153,39;-3,74;153,39;-3,74;153,52;1,96;153,52;1,96;0;0;
15541;177,86;-6,07;177,86;-6,07;154,48;2,17;154,48;2,17;0;0;
15557;69,17;-5,9;69,17;-5,9;147,14;2,14;147,14;2,14;0;0;
15573;214,97;-8,99;214,97;-8,99;125,47;2,06;125,47;2,06;0;0;
15589;214,97;-8,99;214,97;-8,99;113,62;1,98;113,62;1,98;0;0;
15606;64,41;-9,11;64,41;-9,11;106,86;1,8;106,86;1,8;0;0;
15622;44,49;-7,08;44,49;-7,08;106,31;1,83;106,31;1,83;0;0;
15637;50,22;-4,26;50,22;-4,26;102,53;1,62;102,53;1,62;1;0;
15652;-358,31;-8,38;-358,31;-8,38;107,08;1,78;107,08;1,78;1;0;
15669;-358,31;-8,38;-358,31;-8,38;112,37;1,91;112,37;1,91;1;0;
15684;-41,28;-5,52;-41,28;-5,52;99,64;1,86;99,64;1,86;1;0;
15701;-231,94;-6,55;-231,94;-6,55;109,32;1,93;109,32;1,93;1;0;
15716;212,96;-5,59;212,96;-5,59;123,5;2,03;123,5;2,03;1;0;
15735;-492,9;-8,41;-492,9;-8,41;140,09;2,02;140,09;2,02;1;0;
15750;-492,9;-8,41;-492,9;-8,41;143,04;1,96;143,04;1,96;1;0;
15765;209,06;-5,33;209,06;-5,33;146,66;1,93;146,66;1,93;1;0;
15782;54,31;-2,26;54,31;-2,26;147,65;2,15;147,65;2,15;1;0;
15798;-447,53;-6,66;-447,53;-6,66;152,15;2,11;152,15;2,11;1;0;
15813;-34,45;-8,7;-34,45;-8,7;145,18;1,88;145,18;1,88;1;0;
15830;-34,45;-8,7;-34,45;-8,7;141,57;1,83;141,57;1,83;1;0;
15851;-261,29;-8,02;-261,29;-8,02;129,89;1,99;129,89;1,99;1;0;
15868;-46,53;-11,98;-46,53;-11,98;140,67;2,14;140,67;2,14;1;0;
15884;-193,51;-8,04;-193,51;-8,04;150,81;2,11;150,81;2,11;1;0;
15899;-133,11;-7,38;-133,11;-7,38;125,54;2,1;125,54;2,1;1;0;
15915;8,39;-3,82;8,39;-3,82;118;2,24;118;2,24;1;0;
15933;1,49;-4,98;1,49;-4,98;130,04;2,34;130,04;2,34;1;0;
15948;1,49;-4,98;1,49;-4,98;127,9;2,26;127,9;2,26;1;0;
15965;113,84;-9,58;113,84;-9,58;129,9;2,2;129,9;2,2;1;0;
15980;-180,46;-3,56;-180,46;-3,56;121,42;2,18;121,42;2,18;0;0;
15997;-6,08;-12,23;-6,08;-12,23;117,14;2,18;117,14;2,18;0;0;
16013;58,88;-6,85;58,88;-6,85;104,95;2,19;104,95;2,19;0;0;
16030;58,88;-6,85;58,88;-6,85;86,61;2,15;86,61;2,15;0;0;
16046;24,39;-9,92;24,39;-9,92;67,1;2,14;67,1;2,14;0;0;
16063;-68,28;-6,42;-68,28;-6,42;58,59;2,21;58,59;2,21;0;0;
16086;-17,06;-9,41;-17,06;-9,41;41,24;2,14;41,24;2,14;0;0;
16102;-18,22;-8,97;-18,22;-8,97;27,53;1,99;27,53;1,99;0;0;
16116;-17,8;-3,86;-17,8;-3,86;22,1;1,86;22,1;1,86;0;0;
16133;-17,42;-8,26;-17,42;-8,26;16,31;1,88;16,31;1,88;0;0;
16150;-17,42;-8,26;-17,42;-8,26;7,06;1,84;7,06;1,84;0;0;
16165;-17,61;-7,32;-17,61;-7,32;2,12;2,01;2,12;2,01;0;0;
16181;-13,79;-8,51;-13,79;-8,51;1,67;2,03;1,67;2,03;0;0;
16203;-18,74;-3,75;-18,74;-3,75;1,7;2,08;1,7;2,08;0;0;
16224;-21,52;-5,38;-21,52;-5,38;1,89;2,1;1,89;2,1;0;0;
16240;-17,37;-7,68;-17,37;-7,68;1,9;1,96;1,9;1,96;0;0;
16255;-15,53;-7,64;-15,53;-7,64;2,01;1,98;2,01;1,98;0;0;
16272;-12,28;-10,35;-12,28;-10,35;2,17;1,86;2,17;1,86;0;0;
16289;-12,28;-10,35;-12,28;-10,35;2,4;2;2,4;2;0;0;
16304;-17,57;-5,89;-17,57;-5,89;2,86;2,06;2,86;2,06;0;0;
16322;-18;-5,72;-18;-5,72;2,62;1,93;2,62;1,93;0;0;
16338;-19,96;-6,76;-19,96;-6,76;2,71;2,09;2,71;2,09;0;0;
16354;-14,54;-7,8;-14,54;-7,8;2,77;1,98;2,77;1,98;0;0;
16371;-12,41;-6,03;-12,41;-6,03;2,55;2,04;2,55;2,04;0;0;
16387;-12,41;-6,03;-12,41;-6,03;1,92;2;1,92;2;0;0;
16405;-16,36;-6,43;-16,36;-6,43;2,03;2,01;2,03;2,01;0;0;
16423;-17,82;-3,49;-17,82;-3,49;2,01;1,99;2,01;1,99;0;0;
16438;-17,46;-10,71;-17,46;-10,71;2,07;2,02;2,07;2,02;0;0;
16454;-15,88;-11,11;-15,88;-11,11;2,2;2,09;2,2;2,09;0;0;
16470;-15,88;-11,11;-15,88;-11,11;2,3;2,01;2,3;2,01;0;0;
16486;-18,5;-8,21;-18,5;-8,21;2,02;1,92;2,02;1,92;0;0;
16501;-17,86;-3,75;-17,86;-3,75;2,03;1,99;2,03;1,99;0;0;
16516;-16,2;-8,85;-16,2;-8,85;2;2,22;2;2,22;0;0;
16532;-18,68;-6,67;-18,68;-6,67;1,83;2,25;1,83;2,25;0;0;
16547;-18,68;-6,67;-18,68;-6,67;1,72;2,27;1,72;2,27;0;0;
16562;-21,08;-10,33;-21,08;-10,33;1,64;2,33;1,64;2,33;0;0;
16578;-13,7;-6,06;-13,7;-6,06;2,04;2,42;2,04;2,42;0;0;
16595;-17,52;-0,46;-17,52;-0,46;1,96;2,31;1,96;2,31;0;0;
16611;-15,19;-4,24;-15,19;-4,24;2,13;2,15;2,13;2,15;0;0;
16628;-15,19;-4,24;-15,19;-4,24;2,22;2,11;2,22;2,11;0;0;
16645;-15,53;-5,13;-15,53;-5,13;2,26;2,25;2,26;2,25;0;0;
16661;-19,4;-8,75;-19,4;-8,75;2,06;2,12;2,06;2,12;0;0;
16702;-17,62;-10,94;-17,62;-10,94;2,18;2,14;2,18;2,14;0;0;
16717;-18,61;-5,84;-18,61;-5,84;2,24;1,97;2,24;1,97;0;0;
16733;-15,52;-4,41;-15,52;-4,41;2,28;1,94;2,28;1,94;0;0;
16750;-15,52;-4,41;-15,52;-4,41;2,24;1,85;2,24;1,85;0;0;
16765;-17,4;-7,96;-17,4;-7,96;2,39;1,56;2,39;1,56;0;0;
16781;-19,95;-5,7;-19,95;-5,7;2,37;1,49;2,37;1,49;0;0;
16797;-20,97;-11,45;-20,97;-11,45;2,37;1,51;2,37;1,51;0;0;
16812;-16,29;-8,92;-16,29;-8,92;2,33;1,64;2,33;1,64;0;0;
16829;-16,29;-8,92;-16,29;-8,92;2,33;1,8;2,33;1,8;0;0;
16845;-21,12;-5,2;-21,12;-5,2;2,33;1,93;2,33;1,93;0;0;
16863;-15,17;-9,74;-15,17;-9,74;2,33;2,14;2,33;2,14;0;0;
16878;-19,09;-5,37;-19,09;-5,37;2,13;2,21;2,13;2,21;0;0;
16894;-20,9;-7,67;-20,9;-7,67;1,98;2,27;1,98;2,27;0;0;
16909;-20,9;-7,67;-20,9;-7,67;1,94;2,3;1,94;2,3;0;0;
16925;-16,42;-7,62;-16,42;-7,62;2,21;2,24;2,21;2,24;0;0;
16942;-14,23;-11,45;-14,23;-11,45;2,01;2,09;2,01;2,09;0;0;
16959;-17;-6,95;-17;-6,95;2,03;2,11;2,03;2,11;0;0;
16975;-16,61;-5,06;-16,61;-5,06;2,04;2,09;2,04;2,09;0;0;
16993;-16,18;-8,64;-16,18;-8,64;1,88;1,88;1,88;1,88;0;0;
17009;-16,18;-8,64;-16,18;-8,64;1,68;1,66;1,68;1,66;0;0;
17026;-15,63;-5,89;-15,63;-5,89;1,59;1,71;1,59;1,71;0;0;
17042;-16,25;-7,19;-16,25;-7,19;1,66;1,71;1,66;1,71;0;0;
17060;-18,79;-4,02;-18,79;-4,02;1,42;1,68;1,42;1,68;0;0;
17076;-12,37;-5,6;-12,37;-5,6;1,61;1,79;1,61;1,79;0;0;
17092;-19,68;-6,82;-19,68;-6,82;1,77;1,83;1,77;1,83;0;0;
17106;-19,68;-6,82;-19,68;-6,82;1,87;1,87;1,87;1,87;0;0;
17121;-22,51;-7,41;-22,51;-7,41;2,04;1,82;2,04;1,82;0;0;
17137;-18,86;-9,29;-18,86;-9,29;2,28;1,73;2,28;1,73;0;0;
17154;-14,92;-7,75;-14,92;-7,75;2,47;1,76;2,47;1,76;0;0;
17170;-14,92;-7,75;-14,92;-7,75;2,39;1,69;2,39;1,69;0;0;
17186;-18,96;-3,87;-18,96;-3,87;2,31;1,64;2,31;1,64;0;0;
17203;-14,72;-8,63;-14,72;-8,63;2,12;1,49;2,12;1,49;0;0;
17221;-22,25;-11,71;-22,25;-11,71;2,1;1,83;2,1;1,83;0;0;
17236;-18,04;-4,56;-18,04;-4,56;2,07;1,67;2,07;1,67;0;0;
17253;-13,07;-5,06;-13,07;-5,06;2;1,61;2;1,61;0;0;
17269;-13,07;-5,06;-13,07;-5,06;1,86;1,68;1,86;1,68;0;0;
17287;-11,69;-7,56;-11,69;-7,56;1,97;1,72;1,97;1,72;0;0;
17302;-14,84;-8,65;-14,84;-8,65;2,17;1,58;2,17;1,58;0;0;
17318;-16,68;-10,46;-16,68;-10,46;1,88;1,7;1,88;1,7;0;0;
17335;-10,05;-8,35;-10,05;-8,35;2,44;1,74;2,44;1,74;0;0;
17357;-4,37;-8,4;-4,37;-8,4;4,25;1,92;4,25;1,92;0;0;
17372;-131,6;-3,39;-131,6;-3,39;10,57;2,17;10,57;2,17;0;0;
17388;-131,6;-3,39;-131,6;-3,39;16,75;2,39;16,75;2,39;0;0;
17405;-13,74;-8,72;-13,74;-8,72;21,03;2,35;21,03;2,35;0;0;
17423;18,35;-6,94;18,35;-6,94;27,03;2,01;27,03;2,01;0;0;
17438;-9,71;-8,67;-9,71;-8,67;29,02;2,27;29,02;2,27;0;0;
17457;-80,68;-6,17;-80,68;-6,17;39,36;2,17;39,36;2,17;0;0;
17473;-75,61;-7,97;-75,61;-7,97;45,82;2,16;45,82;2,16;0;0;
17487;-75,61;-7,97;-75,61;-7,97;52,97;2,15;52,97;2,15;0;0;
17503;-157,6;-6,25;-157,6;-6,25;60;2,27;60;2,27;0;0;
17519;-250,39;-9,07;-250,39;-9,07;75,07;2,23;75,07;2,23;0;0;
17536;-83,46;-0,54;-83,46;-0,54;90,09;2,2;90,09;2,2;0;0;
17551;-25,32;-6,13;-25,32;-6,13;89,55;2,05;89,55;2,05;0;0;
17566;-25,32;-6,13;-25,32;-6,13;91,89;1,8;91,89;1,8;0;0;
17581;42,56;-3,75;42,56;-3,75;88,32;1,87;88,32;1,87;1;0;
17600;226,77;-10,35;226,77;-10,35;95,74;1,77;95,74;1,77;1;0;
17615;81,19;-8,09;81,19;-8,09;110,04;1,72;110,04;1,72;1;0;
17630;81,19;-8,09;81,19;-8,09;137,21;1,55;137,21;1,55;1;0;
17647;-82,82;-6,23;-82,82;-6,23;145,74;1,61;145,74;1,61;1;0;
17665;-44,43;-7,68;-44,43;-7,68;163,58;1,67;163,58;1,67;1;0;
17680;-461,05;-4,4;-461,05;-4,4;181,46;1,53;181,46;1,53;1;0;
17696;-358,7;-7,31;-358,7;-7,31;181,78;1,73;181,78;1,73;1;0;
17713;157,91;-5,16;157,91;-5,16;166,05;1,77;166,05;1,77;0;0;
17732;21,13;-9,47;21,13;-9,47;147,38;2,02;147,38;2,02;0;0;
17750;21,13;-9,47;21,13;-9,47;139,87;2,04;139,87;2,04;0;0;
17765;-336,24;-11,12;-336,24;-11,12;130,06;1,98;130,06;1,98;0;0;
17782;-356,58;-6,03;-356,58;-6,03;131,35;2;131,35;2;0;0;
17801;5;-3,94;5;-3,94;132,87;2,26;132,87;2,26;0;0;
17815;-206,63;-8,37;-206,63;-8,37;132,57;2,51;132,57;2,51;0;0;
17833;-44,69;-8,24;-44,69;-8,24;137,37;2,53;137,37;2,53;0;0;
17849;-44,69;-8,24;-44,69;-8,24;143,86;2,64;143,86;2,64;0;0;
17864;-59,64;-6,64;-59,64;-6,64;132,5;2,54;132,5;2,54;0;0;
17880;-9,34;-8,22;-9,34;-8,22;90,38;2,56;90,38;2,56;0;0;
17896;-193,74;-5,97;-193,74;-5,97;83,56;2,42;83,56;2,42;0;0;
17912;81,9;-7,28;81,9;-7,28;96,92;2,03;96,92;2,03;0;0;
17928;81,9;-7,28;81,9;-7,28;109,84;1,77;109,84;1,77;0;0;
17943;-184,34;-3,9;-184,34;-3,9;140,6;1,71;140,6;1,71;0;0;
17960;48,53;-6,37;48,53;-6,37;148,68;1,61;148,68;1,61;0;0;
17975;46,68;-8,44;46,68;-8,44;155,86;1,61;155,86;1,61;0;0;
17994;-57,07;-5,3;-57,07;-5,3;151,06;1,66;151,06;1,66;0;0;
18010;-57,07;-5,3;-57,07;-5,3;133,98;1,75;133,98;1,75;0;0;
18025;8,91;-1,4;8,91;-1,4;109,97;1,93;109,97;1,93;0;0;
18039;8,91;-1,4;8,91;-1,4;73,86;2,07;73,86;2,07;0;0;
18055;38,77;-10,18;38,77;-10,18;74,8;2,17;74,8;2,17;0;0;
18072;-2,31;-3,62;-2,31;-3,62;70,69;2,08;70,69;2,08;0;0;
18087;-2,31;-3,62;-2,31;-3,62;58,31;2,02;58,31;2,02;0;0;
18102;-66,28;-10,97;-66,28;-10,97;53,63;1,94;53,63;1,94;0;0;
18117;-8,9;-7,53;-8,9;-7,53;46,35;1,92;46,35;1,92;0;0;
18133;-18,83;-9,76;-18,83;-9,76;33,97;1,73;33,97;1,73;0;0;
18148;-18,83;-9,76;-18,83;-9,76;23,51;1,84;23,51;1,84;0;0;
18163;-18,78;-8,77;-18,78;-8,77;18,41;2,05;18,41;2,05;0;0;
18178;-16,37;-8,04;-16,37;-8,04;11,74;2;11,74;2;0;0;
18196;-17;-6,67;-17;-6,67;3,9;2,03;3,9;2,03;0;0;
18212;-13,23;-9;-13,23;-9;2,29;1,86;2,29;1,86;0;0;
18228;-13,23;-9;-13,23;-9;1,97;1,82;1,97;1,82;0;0;
18242;-13,29;-6,39;-13,29;-6,39;1,8;1,69;1,8;1,69;0;0;
18260;-15,43;-9,06;-15,43;-9,06;1,69;1,81;1,69;1,81;0;0;
18278;-17,71;-7,15;-17,71;-7,15;1,6;1,91;1,6;1,91;0;0;
18294;-14,59;-2,72;-14,59;-2,72;1,68;1,84;1,68;1,84;0;0;
18309;-14,59;-2,72;-14,59;-2,72;1,7;1,83;1,7;1,83;0;0;
18328;-17,78;-8,77;-17,78;-8,77;1,79;2,14;1,79;2,14;0;0;
18343;-19,17;-9,33;-19,17;-9,33;1,95;2,06;1,95;2,06;0;0;
18362;-17,09;-6,45;-17,09;-6,45;2,13;1,89;2,13;1,89;0;0;
18379;-13,76;-8,02;-13,76;-8,02;2,11;1,93;2,11;1,93;0;0;
18399;-16,97;-8,64;-16,97;-8,64;2,25;1,88;2,25;1,88;0;0;
18417;-11,12;-12,25;-11,12;-12,25;2,37;1,54;2,37;1,54;0;0;
18434;-18,04;-4,24;-18,04;-4,24;2,28;1,54;2,28;1,54;0;0;
18451;-14,57;-7,86;-14,57;-7,86;2,16;1,71;2,16;1,71;0;0;
18468;-14,57;-7,86;-14,57;-7,86;2,42;1,89;2,42;1,89;0;0;
18487;-16,23;-5,35;-16,23;-5,35;2,31;2,03;2,31;2,03;0;0;
18506;-15,19;-8,92;-15,19;-8,92;2,53;1,94;2,53;1,94;0;0;
18526;-15,86;-7,16;-15,86;-7,16;2,34;1,7;2,34;1,7;0;0;
18545;-22,64;-5,36;-22,64;-5,36;2,31;1,76;2,31;1,76;0;0;
18564;-16,52;-3,72;-16,52;-3,72;2,09;1,93;2,09;1,93;0;0;
18579;-12,94;-10,35;-12,94;-10,35;2,18;1,95;2,18;1,95;0;0;
18595;-18,06;-9,36;-18,06;-9,36;2,04;2,09;2,04;2,09;0;0;
18611;-18,06;-9,36;-18,06;-9,36;2,02;2,35;2,02;2,35;0;0;
18627;-18,33;-7,71;-18,33;-7,71;2,22;2,49;2,22;2,49;0;0;
18641;-16,57;-5,42;-16,57;-5,42;2;2,19;2;2,19;0;0;
18659;-15,55;-6,2;-15,55;-6,2;1,91;2,24;1,91;2,24;0;0;
18676;-13,77;-4,41;-13,77;-4,41;1,83;2,33;1,83;2,33;0;0;
18692;-20,42;-8,92;-20,42;-8,92;1,81;2,11;1,81;2,11;0;0;
18707;-20,42;-8,92;-20,42;-8,92;1,76;1,82;1,76;1,82;0;0;
18723;-13,63;-5,32;-13,63;-5,32;2,01;1,97;2,01;1,97;0;0;
18739;-17,57;-11,9;-17,57;-11,9;2,06;1,81;2,06;1,81;0;0;
18754;-18,46;-8,03;-18,46;-8,03;2,1;1,75;2,1;1,75;0;0;
18769;-18,46;-8,03;-18,46;-8,03;2,14;1,84;2,14;1,84;0;0;
18783;-15,04;-7,28;-15,04;-7,28;2,09;2,02;2,09;2,02;0;0;
18800;-18,11;-10,01;-18,11;-10,01;2;2,04;2;2,04;0;0;
18815;-17,07;-7,41;-17,07;-7,41;1,75;1,89;1,75;1,89;0;0;
18837;-15,04;-7,6;-15,04;-7,6;1,67;1,79;1,67;1,79;0;0;
18852;-17,97;-8,4;-17,97;-8,4;1,57;1,59;1,57;1,59;0;0;
18870;-17,97;-8,4;-17,97;-8,4;1,53;1,39;1,53;1,39;0;0;
18885;-16,42;-4,71;-16,42;-4,71;1,39;1,43;1,39;1,43;0;0;
18902;-19,25;-6,06;-19,25;-6,06;1,44;1,31;1,44;1,31;0;0;
18917;-18;-0,83;-18;-0,83;1,51;1,39;1,51;1,39;0;0;
18934;-17,34;-8,39;-17,34;-8,39;1,4;1,49;1,4;1,49;0;0;
18949;-17,34;-8,39;-17,34;-8,39;1,33;1,66;1,33;1,66;0;0;
18965;-19,33;-6,37;-19,33;-6,37;1,63;1,58;1,63;1,58;0;0;
18980;-14,03;-6,22;-14,03;-6,22;1,75;1,84;1,75;1,84;0;0;
18998;-15,61;-6,04;-15,61;-6,04;1,6;1,88;1,6;1,88;0;0;
19016;-12,83;-7,4;-12,83;-7,4;1,83;1,88;1,83;1,88;0;0;
19030;-15,6;-8,42;-15,6;-8,42;2,08;1,96;2,08;1,96;0;0;
19046;-15,6;-8,42;-15,6;-8,42;2,26;2,16;2,26;2,16;0;0;
19061;-17,59;-6,56;-17,59;-6,56;2,05;2;2,05;2;0;0;
19078;-19,94;-8,08;-19,94;-8,08;2,07;1,86;2,07;1,86;0;0;
19094;-15,88;-5,88;-15,88;-5,88;2,22;1,78;2,22;1,78;0;0;
19109;-15,88;-5,88;-15,88;-5,88;2,12;1,67;2,12;1,67;0;0;
19125;-15,84;-7,3;-15,84;-7,3;2,06;1,59;2,06;1,59;0;0;
19140;-17,98;-4,49;-17,98;-4,49;2,08;1,48;2,08;1,48;0;0;
19156;-20,52;-3,93;-20,52;-3,93;2,39;1,71;2,39;1,71;0;0;
19172;-18,56;-2,89;-18,56;-2,89;2,23;2,01;2,23;2,01;0;0;
19188;-18,56;-2,89;-18,56;-2,89;2,06;2,26;2,06;2,26;0;0;
19205;-18,27;-6,99;-18,27;-6,99;2,07;2,21;2,07;2,21;0;0;
19222;-12,65;-6,05;-12,65;-6,05;2,58;2,33;2,58;2,33;0;0;
19236;-91,2;-3,08;-91,2;-3,08;8,17;2,48;8,17;2,48;0;0;
19252;34,08;-5,57;34,08;-5,57;21,58;2,56;21,58;2,56;0;0;
19269;34,08;-5,57;34,08;-5,57;35,14;2,52;35,14;2,52;0;0;
19286;193,9;-6,15;193,9;-6,15;50,63;2,29;50,63;2,29;0;0;
19303;56,83;-3,22;56,83;-3,22;60,81;2,28;60,81;2,28;0;0;
19319;-33,52;-7,2;-33,52;-7,2;69,59;2,19;69,59;2,19;0;0;
19337;-124,86;-5,72;-124,86;-5,72;73,49;2;73,49;2;1;0;
19356;-252,27;-6,78;-252,27;-6,78;74,78;1,91;74,78;1,91;1;0;
19372;175,78;-6,93;175,78;-6,93;82,36;1,85;82,36;1,85;1;0;
19388;175,78;-6,93;175,78;-6,93;88,22;1,91;88,22;1,91;1;0;
19404;-420,25;-5,71;-420,25;-5,71;100,72;2,28;100,72;2,28;1;0;
19419;91,91;-19,02;91,91;-19,02;128,55;2,72;128,55;2,72;1;0;
19436;221,51;-2,74;221,51;-2,74;175,71;2,76;175,71;2,76;1;0;
19454;-321,91;-20,32;-321,91;-20,32;195,95;3,13;195,95;3,13;1;0;
19475;560,81;-12,27;560,81;-12,27;202,01;6,97;202,01;6,97;0;0;
19495;-203,98;-4,86;-203,98;-4,86;234;6,98;234;6,98;0;0;
19515;-287,58;-6,89;-287,58;-6,89;231,24;6,99;231,24;6,99;0;0;
19534;190,72;-9,39;190,72;-9,39;213,74;6,61;213,74;6,61;0;0;
19554;123;-8,04;123;-8,04;190,4;6,45;190,4;6,45;0;0;
19569;123;-8,04;123;-8,04;157,63;3,69;157,63;3,69;0;0;
19584;61,23;-2,89;61,23;-2,89;136,53;1,96;136,53;1,96;0;0;
19603;419,93;-4,03;419,93;-4,03;141;1,56;141;1,56;0;0;
19622;74,75;-2,63;74,75;-2,63;138,35;1,67;138,35;1,67;0;0;
19637;-287,63;-8,72;-287,63;-8,72;135,68;1,5;135,68;1,5;0;0;
19653;51,74;-7,34;51,74;-7,34;152,14;1,54;152,14;1,54;0;0;
19671;67,07;-9,76;67,07;-9,76;156,71;1,66;156,71;1,66;0;0;
19687;67,07;-9,76;67,07;-9,76;139,42;1,59;139,42;1,59;0;0;
19701;-89,57;-4,29;-89,57;-4,29;99,34;1,73;99,34;1,73;0;0;
19718;28,74;-9,85;28,74;-9,85;111,71;1,75;111,71;1,75;0;0;
19737;50,66;-9,92;50,66;-9,92;93,29;1,94;93,29;1,94;0;0;
19752;-34,54;-8,02;-34,54;-8,02;78,34;1,87;78,34;1,87;0;0;
19770;-34,54;-8,02;-34,54;-8,02;61,14;1,85;61,14;1,85;0;0;
19785;-22,57;-5,87;-22,57;-5,87;45,13;1,71;45,13;1,71;0;0;
19803;-16,9;-7,15;-16,9;-7,15;35,03;1,98;35,03;1,98;0;0;
19818;-18,1;-4,1;-18,1;-4,1;11,38;1,99;11,38;1,99;0;0;
19836;-24,08;-7,56;-24,08;-7,56;6,29;1,84;6,29;1,84;0;0;
19851;-13,64;-4,27;-13,64;-4,27;4,77;2,02;4,77;2,02;0;0;
19868;-13,64;-4,27;-13,64;-4,27;4,45;2,25;4,45;2,25;0;0;
19882;-16,44;-4,84;-16,44;-4,84;3,8;2,38;3,8;2,38;0;0;
19898;-15,5;-5,72;-15,5;-5,72;2,65;2,07;2,65;2,07;0;0;
19914;-23,69;-5,05;-23,69;-5,05;2,86;2,02;2,86;2,02;0;0;
19931;-17,44;-4,3;-17,44;-4,3;2,56;2,02;2,56;2,02;0;0;
19947;-17,44;-4,3;-17,44;-4,3;2,5;1,89;2,5;1,89;0;0;
19963;-14,45;-6,79;-14,45;-6,79;2,97;1,78;2,97;1,78;0;0;
19980;-22,25;-5,63;-22,25;-5,63;3,44;1,67;3,44;1,67;0;0;
19996;-20,5;-4,18;-20,5;-4,18;3,44;1,66;3,44;1,66;0;0;
20013;-13,51;-6,04;-13,51;-6,04;3,4;1,74;3,4;1,74;0;0;
20030;-13,51;-6,04;-13,51;-6,04;3,5;1,84;3,5;1,84;0;0;
20045;-15,9;-7,18;-15,9;-7,18;3,3;1,91;3,3;1,91;0;0;
20062;-14,68;-10,7;-14,68;-10,7;3,01;1,97;3,01;1,97;0;0;
20077;-17,68;-2,58;-17,68;-2,58;2,53;2,12;2,53;2,12;0;0;
20094;-16,19;-2,04;-16,19;-2,04;2,34;2,38;2,34;2,38;0;0;
20111;-22,09;-6,07;-22,09;-6,07;2,37;2,35;2,37;2,35;0;0;
20127;-22,09;-6,07;-22,09;-6,07;2,59;2,34;2,59;2,34;0;0;
20143;-14,41;-7,26;-14,41;-7,26;2,71;2,26;2,71;2,26;0;0;
20160;-14,95;-8,57;-14,95;-8,57;2,8;1,92;2,8;1,92;0;0;
20177;-15,35;-7,94;-15,35;-7,94;2,83;2,02;2,83;2,02;0;0;
20194;-16,87;-10,18;-16,87;-10,18;2,61;1,77;2,61;1,77;0;0;
20211;-16,89;-6,51;-16,89;-6,51;2,21;1,76;2,21;1,76;0;0;
20227;-16,89;-6,51;-16,89;-6,51;1,87;1,87;1,87;1,87;0;0;
20241;-15,78;-5,2;-15,78;-5,2;1,77;2,07;1,77;2,07;0;0;
20258;-18,29;-9,78;-18,29;-9,78;1,53;2,07;1,53;2,07;0;0;
20275;-14,42;-4,96;-14,42;-4,96;1,43;1,87;1,43;1,87;0;0;
20293;-16,66;-7,2;-16,66;-7,2;1,51;2,06;1,51;2,06;0;0;
20307;-16,66;-7,2;-16,66;-7,2;1,55;2,28;1,55;2,28;0;0;
20324;-17,14;-3,55;-17,14;-3,55;1,69;2,33;1,69;2,33;0;0;
20344;-21,02;-12,39;-21,02;-12,39;1,64;2,41;1,64;2,41;0;0;
20359;-18,64;-7,78;-18,64;-7,78;1,87;2,71;1,87;2,71;0;0;
20375;-12,58;-8,62;-12,58;-8,62;2,1;2,71;2,1;2,71;0;0;
20392;-14,76;-8,43;-14,76;-8,43;2,18;2,54;2,18;2,54;0;0;
20410;-14,76;-8,43;-14,76;-8,43;2,24;2,51;2,24;2,51;0;0;
20426;-18,57;-5,54;-18,57;-5,54;2,25;2,82;2,25;2,82;0;0;
20441;-15,82;-2,26;-15,82;-2,26;2,15;2,88;2,15;2,88;0;0;
20459;-13,8;-7,42;-13,8;-7,42;1,9;2,69;1,9;2,69;0;0;
20478;-16,14;-3,23;-16,14;-3,23;1,67;2,8;1,67;2,8;0;0;
20497;-21,11;-5,69;-21,11;-5,69;1,66;2,56;1,66;2,56;0;0;
20512;-15,48;-9,52;-15,48;-9,52;1,74;2,16;1,74;2,16;0;0;
20528;-15,48;-9,52;-15,48;-9,52;1,67;2,11;1,67;2,11;0;0;
20544;-16,43;-3,13;-16,43;-3,13;1,73;1,9;1,73;1,9;0;0;
20559;-17,12;-7,24;-17,12;-7,24;1,75;2,03;1,75;2,03;0;0;
20576;-15,41;-10,24;-15,41;-10,24;1,78;1,98;1,78;1,98;0;0;
20591;-20,03;-9,62;-20,03;-9,62;1,74;1,92;1,74;1,92;0;0;
20607;-20,03;-9,62;-20,03;-9,62;1,77;1,8;1,77;1,8;0;0;
20624;-17,77;-7,04;-17,77;-7,04;1,74;1,79;1,74;1,79;0;0;
20639;-16,06;-12,32;-16,06;-12,32;1,81;1,61;1,81;1,61;0;0;
20656;-17,06;-9,97;-17,06;-9,97;1,84;1,58;1,84;1,58;0;0;
20673;-20,44;-5,2;-20,44;-5,2;1,85;1,69;1,85;1,69;0;0;
20689;-20,44;-5,2;-20,44;-5,2;1,87;1,81;1,87;1,81;0;0;
20704;-21,79;-5,08;-21,79;-5,08;2,12;1,78;2,12;1,78;0;0;
20719;-16,86;-5,64;-16,86;-5,64;2,14;1,93;2,14;1,93;0;0;
20740;-20,55;-11,15;-20,55;-11,15;2,09;2;2,09;2;0;0;
20758;-19,67;-5,56;-19,67;-5,56;2,04;2,21;2,04;2,21;0;0;
20774;-16,78;-7,4;-16,78;-7,4;2,22;2,05;2,22;2,05;0;0;
20793;-16,78;-7,4;-16,78;-7,4;2,47;2,03;2,47;2,03;0;0;
20810;-16,78;-7,4;-16,78;-7,4;2,42;1,99;2,42;1,99;0;0;
20827;-18,16;-3,84;-18,16;-3,84;2,42;2,03;2,42;2,03;0;0;
20842;-18,94;-8,35;-18,94;-8,35;2,37;1,85;2,37;1,85;0;0;
20859;-14,58;-8,56;-14,58;-8,56;1,98;1,64;1,98;1,64;0;0;
20876;-19,59;-3;-19,59;-3;2,02;1,7;2,02;1,7;0;0;
20893;-10,96;-3,96;-10,96;-3,96;1,91;1,85;1,91;1,85;0;0;
20909;-10,96;-3,96;-10,96;-3,96;2,11;1,93;2,11;1,93;0;0;
20924;-12,6;-4,71;-12,6;-4,71;2,19;1,86;2,19;1,86;0;0;
20941;-5,69;-0,95;-5,69;-0,95;3,54;1,88;3,54;1,88;0;0;
20957;78,97;-6,87;78,97;-6,87;12,87;2,05;12,87;2,05;0;0;
20975;-10,43;-2,92;-10,43;-2,92;29,37;2,12;29,37;2,12;0;0;
20990;-10,43;-2,92;-10,43;-2,92;45,88;2,15;45,88;2,15;0;0;
21009;17,03;-6,12;17,03;-6,12;63,28;2,14;63,28;2,14;0;0;
21026;-5,34;-6,7;-5,34;-6,7;82,31;2,02;82,31;2,02;0;0;
21043;53,18;-5,68;53,18;-5,68;89,3;1,86;89,3;1,86;0;0;
21059;88,38;-2,03;88,38;-2,03;92,44;2,03;92,44;2,03;0;0;
21077;65,12;-9,56;65,12;-9,56;92,33;1,93;92,33;1,93;0;0;
21093;216,3;-6,42;216,3;-6,42;97,87;1,69;97,87;1,69;0;0;
21109;216,3;-6,42;216,3;-6,42;105,09;1,71;105,09;1,71;0;0;
21127;21,39;-5,19;21,39;-5,19;114,78;1,91;114,78;1,91;0;0;
21144;177,79;-6,7;177,79;-6,7;122,16;1,72;122,16;1,72;0;0;
21159;140,17;-6,56;140,17;-6,56;138,89;1,49;138,89;1,49;0;0;
21175;-60,22;-4,73;-60,22;-4,73;140,01;1,76;140,01;1,76;0;0;
21193;-51,51;-7,55;-51,51;-7,55;140,18;2;140,18;2;1;0;
21208;-51,51;-7,55;-51,51;-7,55;139,04;2,22;139,04;2,22;1;0;
21223;-511,24;-9,02;-511,24;-9,02;180,17;2,1;180,17;2,1;1;0;
21242;80,88;-5,55;80,88;-5,55;182,72;2,13;182,72;2,13;1;0;
21261;329,66;-5,83;329,66;-5,83;207,01;2,21;207,01;2,21;1;0;
21279;155,13;-8,85;155,13;-8,85;210,46;1,95;210,46;1,95;0;0;
21299;150,06;-4,18;150,06;-4,18;235,67;1,78;235,67;1,78;0;0;
21314;-379,59;-8,19;-379,59;-8,19;243,46;1,87;243,46;1,87;0;0;
21332;-68,95;-3,5;-68,95;-3,5;224,52;1,98;224,52;1,98;0;0;
21346;-68,95;-3,5;-68,95;-3,5;211,23;1,89;211,23;1,89;0;0;
21361;-63,22;-7,08;-63,22;-7,08;182,93;1,99;182,93;1,99;0;0;
21377;-191,26;-8,15;-191,26;-8,15;165,07;1,91;165,07;1,91;0;0;
21394;227,03;-9,27;227,03;-9,27;142,24;1,68;142,24;1,68;0;0;
21411;191,74;-5,6;191,74;-5,6;129,35;1,77;129,35;1,77;0;0;
21429;191,74;-5,6;191,74;-5,6;120,69;1,87;120,69;1,87;0;0;
21447;-66,61;-11,6;-66,61;-11,6;106,56;1,84;106,56;1,84;0;0;
21463;139,84;-7,29;139,84;-7,29;107,37;1,87;107,37;1,87;0;0;
21479;-148,84;-9,31;-148,84;-9,31;129,75;1,97;129,75;1,97;0;0;
21496;44,45;-4,44;44,45;-4,44;128,15;2,07;128,15;2,07;0;0;
21515;135,52;-3,99;135,52;-3,99;141,18;2,11;141,18;2,11;0;0;
21532;26,82;-9,15;26,82;-9,15;150,9;1,95;150,9;1,95;0;0;
21548;26,82;-9,15;26,82;-9,15;170,58;1,73;170,58;1,73;0;0;
21564;-20,53;-7,52;-20,53;-7,52;158,92;1,9;158,92;1,9;0;0;
21579;90,73;-10,93;90,73;-10,93;129,68;1,85;129,68;1,85;0;0;
21598;-41,4;-12,59;-41,4;-12,59;116,5;1,71;116,5;1,71;0;0;
21614;-11,25;-7,4;-11,25;-7,4;83,44;1,96;83,44;1,96;0;0;
21629;-11,25;-7,4;-11,25;-7,4;54,89;2,29;54,89;2,29;0;0;
21644;-18,07;-8,4;-18,07;-8,4;35,09;2,3;35,09;2,3;0;0;
21659;-18,07;-8,4;-18,07;-8,4;21,08;2,22;21,08;2,22;0;0;
21676;-14,93;-6,69;-14,93;-6,69;6,17;2,42;6,17;2,42;0;0;
21693;-14,03;-7,84;-14,03;-7,84;3,64;2,33;3,64;2,33;0;0;
21708;-14,03;-7,84;-14,03;-7,84;2,88;2,1;2,88;2,1;0;0;
21724;-15,45;-7,33;-15,45;-7,33;2,55;2,04;2,55;2,04;0;0;
21740;-21,05;-6,33;-21,05;-6,33;2,56;2;2,56;2;0;0;
21756;-20,81;-6,63;-20,81;-6,63;2,78;1,89;2,78;1,89;0;0;
21772;-13,44;-5,64;-13,44;-5,64;2,6;1,93;2,6;1,93;0;0;
21788;-13,44;-5,64;-13,44;-5,64;2,57;2,07;2,57;2,07;0;0;
21805;-13,56;-4,97;-13,56;-4,97;2,61;2,23;2,61;2,23;0;0;
21821;-12,18;-10,82;-12,18;-10,82;2,84;2,18;2,84;2,18;0;0;
21838;-18,56;-3,95;-18,56;-3,95;2,65;2,28;2,65;2,28;0;0;
21859;-23,14;-10,35;-23,14;-10,35;2,74;2,27;2,74;2,27;0;0;
21877;-16,48;-9,54;-16,48;-9,54;2,63;2,07;2,63;2,07;0;0;
21894;-12,24;-8,46;-12,24;-8,46;2,46;1,92;2,46;1,92;0;0;
21910;-12,24;-8,46;-12,24;-8,46;2,21;1,87;2,21;1,87;0;0;
21927;-18,26;-4,84;-18,26;-4,84;2,12;1,97;2,12;1,97;0;0;
21943;-21,78;-11,72;-21,78;-11,72;2,08;1,87;2,08;1,87;0;0;
21960;-18,75;-4,73;-18,75;-4,73;1,89;1,89;1,89;1,89;0;0;
21975;-15,79;-5,58;-15,79;-5,58;2,12;1,8;2,12;1,8;0;0;
21994;-22,46;-3,37;-22,46;-3,37;2,28;1,88;2,28;1,88;0;0;
22010;-22,46;-3,37;-22,46;-3,37;2,23;2,06;2,23;2,06;0;0;
22026;-16,58;-4;-16,58;-4;2,09;2,01;2,09;2,01;0;0;
22043;-19,29;-6,57;-19,29;-6,57;2,06;2,11;2,06;2,11;0;0;
22059;-17,52;-6,89;-17,52;-6,89;1,88;2,22;1,88;2,22;0;0;
22077;-21,27;-6,51;-21,27;-6,51;1,92;2,21;1,92;2,21;0;0;
22093;-17,77;-6,87;-17,77;-6,87;1,91;2,04;1,91;2,04;0;0;
22108;-17,77;-6,87;-17,77;-6,87;1,89;1,78;1,89;1,78;0;0;
22124;-13,11;-8,42;-13,11;-8,42;1,97;1,78;1,97;1,78;0;0;
22141;-17,26;-11,87;-17,26;-11,87;2,01;1,69;2,01;1,69;0;0;
22158;-18,88;-4,38;-18,88;-4,38;1,96;1,92;1,96;1,92;0;0;
22173;-11,97;-10,37;-11,97;-10,37;2,05;1,98;2,05;1,98;0;0;
22189;-11,97;-10,37;-11,97;-10,37;2,15;2,07;2,15;2,07;0;0;
22207;-16,79;-8,3;-16,79;-8,3;1,95;2,25;1,95;2,25;0;0;
22225;-16,44;-6,66;-16,44;-6,66;2;2,37;2;2,37;0;0;
22241;-17,29;-5,45;-17,29;-5,45;2,13;2,23;2,13;2,23;0;0;
22259;-14,22;-11,59;-14,22;-11,59;2,11;1,93;2,11;1,93;0;0;
22276;-15,85;-5,19;-15,85;-5,19;1,95;1,89;1,95;1,89;0;0;
22292;-16,29;-5,46;-16,29;-5,46;1,99;1,91;1,99;1,91;0;0;
22309;-16,29;-5,46;-16,29;-5,46;2,09;1,83;2,09;1,83;0;0;
22326;-11;-12,7;-11;-12,7;2,17;2,04;2,17;2,04;0;0;
22342;-13,44;-7,04;-13,44;-7,04;2,14;2,02;2,14;2,02;0;0;
22358;-20,67;-1,06;-20,67;-1,06;2,23;2,1;2,23;2,1;0;0;
22374;-16,61;-9,41;-16,61;-9,41;2,31;2,29;2,31;2,29;0;0;
22392;-14,77;-9,36;-14,77;-9,36;2,28;2,3;2,28;2,3;0;0;
22408;-14,77;-9,36;-14,77;-9,36;2,22;2,11;2,22;2,11;0;0;
22425;-15,42;-7,81;-15,42;-7,81;2,05;2,19;2,05;2,19;0;0;
22441;-19,73;-6,2;-19,73;-6,2;2,29;2,39;2,29;2,39;0;0;
22458;-15,56;-10,84;-15,56;-10,84;2,25;2,35;2,25;2,35;0;0;
22474;-17,62;-5,45;-17,62;-5,45;2,34;2,49;2,34;2,49;0;0;
22489;-17,62;-5,45;-17,62;-5,45;2,39;2,56;2,39;2,56;0;0;
22504;-15,99;-8,8;-15,99;-8,8;2,48;2,47;2,48;2,47;0;0;
22521;-22,33;-6,62;-22,33;-6,62;2,63;2,25;2,63;2,25;0;0;
22538;-16,72;-8,05;-16,72;-8,05;2,53;2,18;2,53;2,18;0;0;
22554;-14,66;-9,89;-14,66;-9,89;2,12;2,02;2,12;2,02;0;0;
22568;-14,66;-9,89;-14,66;-9,89;1,92;1,9;1,92;1,9;0;0;
22582;-13,85;-6,25;-13,85;-6,25;1,94;1,58;1,94;1,58;0;0;
22598;-14,51;-5,23;-14,51;-5,23;1,87;1,61;1,87;1,61;0;0;
22614;-16,97;-3,6;-16,97;-3,6;1,69;1,82;1,69;1,82;0;0;
22629;-16,97;-3,6;-16,97;-3,6;1,65;1,83;1,65;1,83;0;0;
22645;-21;-4,37;-21;-4,37;1,77;2,07;1,77;2,07;0;0;
22664;-14,51;-8,74;-14,51;-8,74;1,89;2,05;1,89;2,05;0;0;
22681;-19,66;-9,5;-19,66;-9,5;1,89;2,22;1,89;2,22;0;0;
22698;-21,4;-4,71;-21,4;-4,71;1,91;2,38;1,91;2,38;0;0;
22715;-11,26;-5,7;-11,26;-5,7;2,09;2,27;2,09;2,27;0;0;
22732;-14,73;-7,37;-14,73;-7,37;1,98;2,19;1,98;2,19;0;0;
22747;-14,73;-7,37;-14,73;-7,37;1,76;1,92;1,76;1,92;0;0;
22763;-15,13;-10,28;-15,13;-10,28;1,93;2,06;1,93;2,06;0;0;
22779;-20,32;-6,31;-20,32;-6,31;1,85;1,91;1,85;1,91;0;0;
22798;-17,15;-8,2;-17,15;-8,2;2,45;1,79;2,45;1,79;0;0;
22814;28,68;-6,43;28,68;-6,43;11,48;2,01;11,48;2,01;0;0;
22830;28,68;-6,43;28,68;-6,43;20,69;2,28;20,69;2,28;0;0;
22845;-101,06;-5,81;-101,06;-5,81;35,88;2,38;35,88;2,38;0;0;
22861;-149,68;-7,09;-149,68;-7,09;52,05;2,29;52,05;2,29;0;0;
22877;104,57;-9,81;104,57;-9,81;68,45;2,34;68,45;2,34;0;0;
22893;-89,43;-13,39;-89,43;-13,39;80,85;2,37;80,85;2,37;0;0;
22909;-89,43;-13,39;-89,43;-13,39;89,18;2,17;89,18;2,17;0;0;
22926;171,17;-9,91;171,17;-9,91;85,46;2,67;85,46;2,67;0;0;
22941;-36,23;-4,9;-36,23;-4,9;86,16;2,63;86,16;2,63;1;0;
22961;-100,54;-7,06;-100,54;-7,06;83,3;2,63;83,3;2,63;1;0;
22978;-64,54;-3,52;-64,54;-3,52;93,52;2,6;93,52;2,6;1;0;
22996;159;-4,48;159;-4,48;96,99;2,64;96,99;2,64;1;0;
23014;-504,74;-8,21;-504,74;-8,21;122,31;2,27;122,31;2,27;1;0;
23029;-504,74;-8,21;-504,74;-8,21;143,72;2,18;143,72;2,18;1;0;
23044;199,25;-7,51;199,25;-7,51;176,66;2,05;176,66;2,05;1;0;
23062;-33,42;-4,96;-33,42;-4,96;173,57;2,15;173,57;2,15;1;0;
23079;234,07;-4,61;234,07;-4,61;177,36;2,02;177,36;2,02;1;0;
23096;178,57;-7,48;178,57;-7,48;183,59;2;183,59;2;1;0;
23113;-87,6;-9,47;-87,6;-9,47;168,87;1,86;168,87;1,86;0;0;
23133;-36,97;-10,61;-36,97;-10,61;129,37;1,95;129,37;1,95;0;0;
23150;-36,97;-10,61;-36,97;-10,61;114,48;2,09;114,48;2,09;0;0;
23170;-122,97;-8,4;-122,97;-8,4;104,34;2,1;104,34;2,1;0;0;
23188;-165;-8,39;-165;-8,39;91,98;1,92;91,98;1,92;0;0;
23203;-23,67;-8,59;-23,67;-8,59;79,07;1,78;79,07;1,78;0;0;
23219;-174,28;-3,16;-174,28;-3,16;76,28;1,93;76,28;1,93;0;0;
23237;34,63;-8,71;34,63;-8,71;69,95;1,92;69,95;1,92;0;0;
23252;-95,62;-11,25;-95,62;-11,25;74,39;1,76;74,39;1,76;0;0;
23271;-180,41;-0,07;-180,41;-0,07;75,29;1,92;75,29;1,92;0;0;
23286;-180,41;-0,07;-180,41;-0,07;70,46;2,29;70,46;2,29;0;0;
23305;-295,59;-6,72;-295,59;-6,72;114,78;2,28;114,78;2,28;0;0;
23321;-59,91;-8,16;-59,91;-8,16;123,36;2,37;123,36;2,37;0;0;
23339;101,79;-4,71;101,79;-4,71;153,52;2,33;153,52;2,33;0;0;
23357;-88,95;-8,16;-88,95;-8,16;157,47;2,29;157,47;2,29;0;0;
23376;49,72;-3,97;49,72;-3,97;152,28;2,24;152,28;2,24;0;0;
23392;16,64;-6,18;16,64;-6,18;141,56;2,23;141,56;2,23;0;0;
23408;16,64;-6,18;16,64;-6,18;99,14;2,19;99,14;2,19;0;0;
23427;-15,19;-5,47;-15,19;-5,47;64,43;2,35;64,43;2,35;0;0;
23444;-16,16;-8,01;-16,16;-8,01;36,6;2,31;36,6;2,31;0;0;
23461;-13,13;-5,94;-13,13;-5,94;24,2;2,14;24,2;2,14;0;0;
23476;-17,1;-7,9;-17,1;-7,9;14,97;2,01;14,97;2,01;0;0;
23492;-15,8;-7,63;-15,8;-7,63;6,07;1,88;6,07;1,88;0;0;
23506;-15,8;-7,63;-15,8;-7,63;2,14;1,83;2,14;1,83;0;0;
23523;-6,19;-6,31;-6,19;-6,31;2,56;1,57;2,56;1,57;0;0;
23542;-16,15;-11,1;-16,15;-11,1;2,75;1,69;2,75;1,69;0;0;
23558;-14,7;-9,34;-14,7;-9,34;2,65;1,83;2,65;1,83;0;0;
23573;-17,65;-7,9;-17,65;-7,9;2,45;1,72;2,45;1,72;0;0;
23588;-17,65;-7,9;-17,65;-7,9;2,33;1,63;2,33;1,63;0;0;
23605;-13,32;-8,04;-13,32;-8,04;2,51;1,78;2,51;1,78;0;0;
23620;-11,63;-10,01;-11,63;-10,01;2,48;1,74;2,48;1,74;0;0;
23635;-19,14;-4,73;-19,14;-4,73;2,91;1,72;2,91;1,72;0;0;
23650;-19,14;-4,73;-19,14;-4,73;3,19;1,8;3,19;1,8;0;0;
23668;-13,59;-7,92;-13,59;-7,92;3,33;1,76;3,33;1,76;0;0;
23685;-16,61;-4,99;-16,61;-4,99;3,35;1,85;3,35;1,85;0;0;
23702;-20,69;-8,14;-20,69;-8,14;2,99;2,04;2,99;2,04;0;0;
23721;-17,5;-5,98;-17,5;-5,98;2,49;2,23;2,49;2,23;0;0;
23738;-15,93;-8,29;-15,93;-8,29;2,13;2,2;2,13;2,2;0;0;
23753;-22,63;-7,02;-22,63;-7,02;2,01;2,17;2,01;2,17;0;0;
23772;-17,61;-6,85;-17,61;-6,85;1,73;2,19;1,73;2,19;0;0;
23790;-17,61;-6,85;-17,61;-6,85;1,8;2,05;1,8;2,05;0;0;
23808;-17,09;-7,55;-17,09;-7,55;1,77;2,04;1,77;2,04;0;0;
23824;-19,63;-9,5;-19,63;-9,5;1,74;1,89;1,74;1,89;0;0;
23838;-13,97;-8,6;-13,97;-8,6;1,98;1,86;1,98;1,86;0;0;
23854;-22,43;-4,15;-22,43;-4,15;2,1;1,8;2,1;1,8;0;0;
23871;-22,28;-10,01;-22,28;-10,01;2,98;1,97;2,98;1,97;0;0;
23886;-22,28;-10,01;-22,28;-10,01;3,89;2,01;3,89;2,01;0;0;
23902;-24,32;-5,06;-24,32;-5,06;4,32;2,08;4,32;2,08;0;0;
23917;-15,84;-3,75;-15,84;-3,75;4,28;2,05;4,28;2,05;0;0;
23935;-18,72;-8,13;-18,72;-8,13;4,24;2,18;4,24;2,18;0;0;
23952;-14,63;-6,4;-14,63;-6,4;4,01;2,19;4,01;2,19;0;0;
23970;-14,63;-6,4;-14,63;-6,4;3,57;2,23;3,57;2,23;0;0;
23989;-17,49;-10,62;-17,49;-10,62;3,13;2,12;3,13;2,12;0;0;
24005;-10,88;-8,4;-10,88;-8,4;2,61;2,21;2,61;2,21;0;0;
24021;-11,83;-8,83;-11,83;-8,83;2,61;2,27;2,61;2,27;0;0;
24038;-17,37;-8,4;-17,37;-8,4;2,64;2,02;2,64;2,02;0;0;
24055;-14,22;-8,12;-14,22;-8,12;2,23;1,69;2,23;1,69;0;0;
24072;-14,54;-5,35;-14,54;-5,35;2,06;1,51;2,06;1,51;0;0;
24089;-14,54;-5,35;-14,54;-5,35;1,96;1,45;1,96;1,45;0;0;
24104;-14,04;-9,23;-14,04;-9,23;2,03;1,44;2,03;1,44;0;0;
24120;-17,6;-5,1;-17,6;-5,1;1,93;1,55;1,93;1,55;0;0;
24140;-15,71;-6,71;-15,71;-6,71;1,89;1,5;1,89;1,5;0;0;
24159;-21,28;-10,38;-21,28;-10,38;2,02;1,64;2,02;1,64;0;0;
24178;-9,95;-5,77;-9,95;-5,77;2,35;1,91;2,35;1,91;0;0;
24195;-19,86;-7,85;-19,86;-7,85;2,16;1,9;2,16;1,9;0;0;
24211;-11,86;-5,04;-11,86;-5,04;2,17;1,96;2,17;1,96;0;0;
24228;-11,86;-5,04;-11,86;-5,04;2,23;2,07;2,23;2,07;0;0;
24245;-18,21;-9,42;-18,21;-9,42;2,14;2,13;2,14;2,13;0;0;
24260;-18,25;-10,29;-18,25;-10,29;1,88;1,86;1,88;1,86;0;0;
24277;-12,04;-6,42;-12,04;-6,42;2,04;1,67;2,04;1,67;0;0;
24294;-19,98;-5,79;-19,98;-5,79;2,11;1,64;2,11;1,64;0;0;
24312;-17,1;-4,55;-17,1;-4,55;2,25;1,57;2,25;1,57;0;0;
24328;-17,1;-4,55;-17,1;-4,55;2,43;1,6;2,43;1,6;0;0;
24345;-18,49;-3,49;-18,49;-3,49;2,33;1,88;2,33;1,88;0;0;
24362;-17,43;-12,79;-17,43;-12,79;2,26;1,98;2,26;1,98;0;0;
24379;-16,3;-4,68;-16,3;-4,68;1,89;2,16;1,89;2,16;0;0;
24395;-20,11;-4,6;-20,11;-4,6;1,8;2,08;1,8;2,08;0;0;
24412;-17,83;-6,72;-17,83;-6,72;1,64;2,04;1,64;2,04;0;0;
24431;-14,01;-8,52;-14,01;-8,52;1,62;1,88;1,62;1,88;0;0;
24447;-14,01;-8,52;-14,01;-8,52;1,59;1,58;1,59;1,58;0;0;
24464;-13,16;-4,52;-13,16;-4,52;1,95;1,55;1,95;1,55;0;0;
24482;-15,94;-7,62;-15,94;-7,62;2,08;1,63;2,08;1,63;0;0;
24498;-16,73;-6,87;-16,73;-6,87;2,18;1,62;2,18;1,62;0;0;
24514;-17,64;-4,65;-17,64;-4,65;2,14;2,02;2,14;2,02;0;0;
24533;-20,33;-10,58;-20,33;-10,58;2,21;2,17;2,21;2,17;0;0;
24548;-20,33;-10,58;-20,33;-10,58;2,17;2,41;2,17;2,41;0;0;
24564;-20,5;-4,11;-20,5;-4,11;1,97;2,5;1,97;2,5;0;0;
24580;-14,66;-9,39;-14,66;-9,39;2,2;2,47;2,2;2,47;0;0;
24596;-15,43;-8,06;-15,43;-8,06;2,35;2,64;2,35;2,64;0;0;
24612;-14,76;-4,46;-14,76;-4,46;2,36;2,27;2,36;2,27;0;0;
24628;-14,76;-4,46;-14,76;-4,46;2,28;2,15;2,28;2,15;0;0;
24642;-5,87;-4,34;-5,87;-4,34;4,49;1,98;4,49;1,98;0;0;
24658;86,3;-8,47;86,3;-8,47;15,68;2,02;15,68;2,02;0;0;
24675;17,51;-7,3;17,51;-7,3;24,03;2,12;24,03;2,12;0;0;
24690;17,51;-7,3;17,51;-7,3;32,63;2,17;32,63;2,17;0;0;
24706;-12,19;-19,72;-12,19;-19,72;44,87;3;44,87;3;0;0;
24721;-70,81;3,63;-70,81;3,63;89,18;9,24;89,18;9,24;0;0;
24738;222,82;-19,05;222,82;-19,05;112,31;13,42;112,31;13,42;1;0;
24755;277,03;-6,55;277,03;-6,55;138,29;13,99;138,29;13,99;1;0;
24772;-100,87;-8,38;-100,87;-8,38;161,7;13,8;161,7;13,8;1;0;
24792;226,87;-5,09;226,87;-5,09;178,43;14,16;178,43;14,16;1;0;
24808;226,87;-5,09;226,87;-5,09;178,08;9,78;178,08;9,78;1;0;
24823;76,94;-9,12;76,94;-9,12;152,53;5,67;152,53;5,67;1;0;
24840;-407,49;-7,88;-407,49;-7,88;145,44;2,81;145,44;2,81;1;0;
24855;142,34;-10,98;142,34;-10,98;140,05;2,8;140,05;2,8;1;0;
24872;-103,45;-9,6;-103,45;-9,6;135,47;2,78;135,47;2,78;1;0;
24892;295,5;-9,11;295,5;-9,11;149,55;2,27;149,55;2,27;1;0;
24910;295,5;-9,11;295,5;-9,11;166,97;2,02;166,97;2,02;1;0;
24927;51,13;-5,63;51,13;-5,63;168,35;2,23;168,35;2,23;1;0;
24944;-130,53;-9,49;-130,53;-9,49;155,64;2,05;155,64;2,05;1;0;
24963;-141,51;-7,79;-141,51;-7,79;141,45;1,73;141,45;1,73;1;0;
24979;-156,6;-9,73;-156,6;-9,73;126,92;1,51;126,92;1,51;1;0;
24996;81,2;-4,92;81,2;-4,92;105,95;1,61;105,95;1,61;1;0;
25014;163,34;-4,2;163,34;-4,2;104,19;1,56;104,19;1,56;1;0;
25030;163,34;-4,2;163,34;-4,2;121,77;1,58;121,77;1,58;1;0;
25046;-54,81;-9,38;-54,81;-9,38;117,4;1,65;117,4;1,65;1;0;
25062;-54,81;-9,38;-54,81;-9,38;115,69;1,75;115,69;1,75;1;0;
25078;60,05;-5,86;60,05;-5,86;113,69;1,76;113,69;1,76;1;0;
25096;51,05;-5,63;51,05;-5,63;103,93;1,7;103,93;1,7;0;0;
25111;-187,38;-7,64;-187,38;-7,64;95,67;1,54;95,67;1,54;0;0;
25127;-187,38;-7,64;-187,38;-7,64;96,3;1,38;96,3;1,38;0;0;
25143;-9,89;-4,26;-9,89;-4,26;97,36;1,55;97,36;1,55;0;0;
25161;10,17;-9,6;10,17;-9,6;89,76;1,8;89,76;1,8;0;0;
25178;-15,43;-7,12;-15,43;-7,12;78,41;1,9;78,41;1,9;0;0;
25199;-23,05;-11,36;-23,05;-11,36;63,84;1,96;63,84;1,96;0;0;
25217;-19,07;-6,31;-19,07;-6,31;43,27;2,13;43,27;2,13;0;0;
25236;-13,73;-4,48;-13,73;-4,48;24,98;2,17;24,98;2,17;0;0;
25251;-28,17;-6,41;-28,17;-6,41;8,22;1,81;8,22;1,81;0;0;
25267;-28,17;-6,41;-28,17;-6,41;4,86;1,66;4,86;1,66;0;0;
25284;-13,81;-5,71;-13,81;-5,71;5,01;1,56;5,01;1,56;0;0;
25300;-16,87;-5,07;-16,87;-5,07;4,5;1,64;4,5;1,64;0;0;
25317;-18,44;-7,43;-18,44;-7,43;3,88;1,54;3,88;1,54;0;0;
25335;-15,99;-8,44;-15,99;-8,44;3,41;1,54;3,41;1,54;0;0;
25350;-15,99;-8,44;-15,99;-8,44;2,78;1,5;2,78;1,5;0;0;
25367;-14,48;-5,62;-14,48;-5,62;2,18;1,62;2,18;1,62;0;0;
25383;-16,53;-10,64;-16,53;-10,64;2,29;1,78;2,29;1,78;0;0;
25399;-20,42;-8,34;-20,42;-8,34;2,39;1,79;2,39;1,79;0;0;
25416;-13,96;-8,63;-13,96;-8,63;2,52;1,97;2,52;1,97;0;0;
25433;-23,21;-7,66;-23,21;-7,66;2,71;2,02;2,71;2,02;0;0;
25447;-23,21;-7,66;-23,21;-7,66;2,97;2,07;2,97;2,07;0;0;
25465;-11,89;-8,04;-11,89;-8,04;3,11;1,93;3,11;1,93;0;0;
25481;-20,48;-6,9;-20,48;-6,9;2,85;1,77;2,85;1,77;0;0;
25497;-16,03;-9,24;-16,03;-9,24;2,81;1,68;2,81;1,68;0;0;
25513;-19,6;-9,13;-19,6;-9,13;3,11;1,61;3,11;1,61;0;0;
25529;-19,6;-9,13;-19,6;-9,13;3,25;1,6;3,25;1,6;0;0;
25545;-17,95;-5,21;-17,95;-5,21;2,98;1,71;2,98;1,71;0;0;
25562;-19,33;-6,09;-19,33;-6,09;2,91;1,7;2,91;1,7;0;0;
25577;-17,17;-11,07;-17,17;-11,07;2,84;1,65;2,84;1,65;0;0;
25593;-13,39;-5,17;-13,39;-5,17;2,8;1,8;2,8;1,8;0;0;
25609;-13,39;-5,17;-13,39;-5,17;2,54;1,93;2,54;1,93;0;0;
25624;-15,19;-6,85;-15,19;-6,85;2,21;2,08;2,21;2,08;0;0;
25639;-15,19;-6,85;-15,19;-6,85;1,93;2,14;1,93;2,14;0;0;
25654;-17,5;-4,37;-17,5;-4,37;1,87;2,43;1,87;2,43;0;0;
25670;-17,5;-4,37;-17,5;-4,37;1,93;2,67;1,93;2,67;0;0;
25685;-22,2;-6,56;-22,2;-6,56;2,05;2,72;2,05;2,72;0;0;
25702;-20,77;-7,67;-20,77;-7,67;2,31;2,82;2,31;2,82;0;0;
25720;-12,95;-6,53;-12,95;-6,53;2,88;2,58;2,88;2,58;0;0;
25738;-25,09;-6,67;-25,09;-6,67;3,18;2,34;3,18;2,34;0;0;
25753;-12,39;-4,44;-12,39;-4,44;3,37;2,07;3,37;2,07;0;0;
25770;-12,39;-4,44;-12,39;-4,44;3,3;1,85;3,3;1,85;0;0;
25785;-28,57;-6,36;-28,57;-6,36;3,94;1,58;3,94;1,58;0;0;
25803;-13,23;-5,08;-13,23;-5,08;5,55;1,74;5,55;1,74;0;0;
25818;-5,81;-4,84;-5,81;-4,84;6,68;1,78;6,68;1,78;0;0;
25835;3,31;-5,59;3,31;-5,59;10,21;1,92;10,21;1,92;0;0;
25851;-8,79;-8,49;-8,79;-8,49;11,67;1,97;11,67;1,97;0;0;
25869;-8,79;-8,49;-8,79;-8,49;13,39;1,93;13,39;1,93;0;0;
25886;-14,92;-2,98;-14,92;-2,98;11,64;1,89;11,64;1,89;0;0;
25902;-21,12;-5,7;-21,12;-5,7;10,33;1,91;10,33;1,91;0;0;
25919;-16,57;-3,74;-16,57;-3,74;7,08;1,78;7,08;1,78;0;0;
25936;-17,03;-4,62;-17,03;-4,62;5,23;1,83;5,23;1,83;0;0;
25952;-13,7;-6,85;-13,7;-6,85;3,53;1,78;3,53;1,78;0;0;
25969;-13,7;-6,85;-13,7;-6,85;2,3;1,76;2,3;1,76;0;0;
25987;-18,04;-6,43;-18,04;-6,43;2,24;1,6;2,24;1,6;0;0;
26004;-12,75;-5,82;-12,75;-5,82;2,06;1,79;2,06;1,79;0;0;
26045;-10,37;-8,56;-10,37;-8,56;2,44;1,71;2,44;1,71;0;0;
26061;-20,18;-8,88;-20,18;-8,88;2,27;1,64;2,27;1,64;0;0;
26077;-18,44;-6,78;-18,44;-6,78;2,3;1,58;2,3;1,58;0;0;
26093;-18,85;-6,31;-18,85;-6,31;2,46;1,54;2,46;1,54;0;0;
26109;-18,85;-6,31;-18,85;-6,31;2,64;1,41;2,64;1,41;0;0;
26124;-17,11;-8,29;-17,11;-8,29;2,63;1,48;2,63;1,48;0;0;
26142;-16,3;-6,52;-16,3;-6,52;2,3;1,48;2,3;1,48;0;0;
26159;-17,12;-5,08;-17,12;-5,08;2,26;1,55;2,26;1,55;0;0;
26175;0,41;-6,07;0,41;-6,07;2,92;1,55;2,92;1,55;0;0;
26190;0,41;-6,07;0,41;-6,07;3,52;1,57;3,52;1,57;0;0;
26207;0,33;-4,73;0,33;-4,73;4,79;1,6;4,79;1,6;0;0;
26222;-22,66;-8,34;-22,66;-8,34;6,53;1,54;6,53;1,54;0;0;
26237;-22,03;-3,63;-22,03;-3,63;7,72;1,68;7,72;1,68;0;0;
26252;-16,16;-7,92;-16,16;-7,92;7,88;1,81;7,88;1,81;0;0;
26268;-16,16;-7,92;-16,16;-7,92;7,39;1,99;7,39;1,99;0;0;
26282;-8,67;-9,38;-8,67;-9,38;6,94;2,04;6,94;2,04;0;0;
26298;-42,11;-5,7;-42,11;-5,7;7,96;1,92;7,96;1,92;0;0;
26313;-10,78;-4,42;-10,78;-4,42;7,75;2,18;7,75;2,18;0;0;
26330;-10,78;-4,42;-10,78;-4,42;8,85;2,22;8,85;2,22;0;0;
26347;-17,53;-7,06;-17,53;-7,06;8,51;2,03;8,51;2,03;0;0;
26364;-14,78;-9;-14,78;-9;8,06;1,87;8,06;1,87;0;0;
26380;-18,89;-5,46;-18,89;-5,46;6,03;1,87;6,03;1,87;0;0;
26399;34,6;-7,22;34,6;-7,22;8,18;1,8;8,18;1,8;0;0;
26423;-283,35;-6,05;-283,35;-6,05;31,01;1,55;31,01;1,55;0;0;
26439;207,06;-8,01;207,06;-8,01;57,06;1,43;57,06;1,43;0;0;
26455;34,16;-8,18;34,16;-8,18;92,19;1,68;92,19;1,68;0;0;
26471;-288,9;-8,86;-288,9;-8,86;119,85;1,85;119,85;1,85;0;0;
26487;-288,9;-8,86;-288,9;-8,86;145,66;1,91;145,66;1,91;0;0;
26503;-48,61;-5,16;-48,61;-5,16;149,99;1,88;149,99;1,88;1;0;
26518;-481,21;-5,7;-481,21;-5,7;146,76;1,8;146,76;1,8;1;0;
26535;151,81;-8,41;151,81;-8,41;163,63;1,97;163,63;1,97;1;0;
26551;-343,77;-7,68;-343,77;-7,68;152,77;1,75;152,77;1,75;1;0;
26567;-343,77;-7,68;-343,77;-7,68;153,36;1,63;153,36;1,63;1;0;
26584;-135,83;-8,5;-135,83;-8,5;169,87;1,68;169,87;1,68;1;0;
26602;51,39;-7,79;51,39;-7,79;193,16;1,73;193,16;1,73;1;0;
26619;130,94;-4,41;130,94;-4,41;172,8;1,65;172,8;1,65;0;0;
26638;-182,5;-8,9;-182,5;-8,9;163,09;1,7;163,09;1,7;0;0;
26655;82,1;-11,59;82,1;-11,59;159,71;1,63;159,71;1,63;0;0;
26672;310,27;-5,07;310,27;-5,07;175,95;1,88;175,95;1,88;0;0;
26688;310,27;-5,07;310,27;-5,07;185,05;2,01;185,05;2,01;0;0;
26704;-37,08;-9,86;-37,08;-9,86;165,89;2,03;165,89;2,03;0;0;
26718;13,74;-7,5;13,74;-7,5;144,59;1,99;144,59;1,99;0;0;
26734;-13,28;-2,25;-13,28;-2,25;118,73;2,19;118,73;2,19;0;0;
26750;-13,28;-2,25;-13,28;-2,25;82,03;2,22;82,03;2,22;0;0;
26766;-16,93;-6,82;-16,93;-6,82;35,45;1,98;35,45;1,98;0;0;
26783;-19;-5,89;-19;-5,89;9,43;1,8;9,43;1,8;0;0;
26805;-19,13;-6,74;-19,13;-6,74;6,39;1,61;6,39;1,61;0;0;
26822;-11,38;-4,99;-11,38;-4,99;3,68;1,55;3,68;1,55;0;0;
26839;-14,56;-8,74;-14,56;-8,74;4,07;1,68;4,07;1,68;0;0;
26854;-6,92;-10,13;-6,92;-10,13;7;1,71;7;1,71;0;0;
26870;-6,92;-10,13;-6,92;-10,13;10,08;1,84;10,08;1,84;0;0;
26884;-15,56;-8,21;-15,56;-8,21;10,08;1,97;10,08;1,97;0;0;
26900;-16,47;-8,76;-16,47;-8,76;9,71;2,02;9,71;2,02;0;0;
26914;-14,53;-3,01;-14,53;-3,01;9,41;1,75;9,41;1,75;0;0;
26929;-14,53;-3,01;-14,53;-3,01;6,06;1,51;6,06;1,51;0;0;
26947;-15,59;-8,21;-15,59;-8,21;2,76;1,46;2,76;1,46;0;0;
26963;-22,78;-8,22;-22,78;-8,22;2,16;1,37;2,16;1,37;0;0;
26977;-17,31;-7,62;-17,31;-7,62;2,08;1,5;2,08;1,5;0;0;
26995;-15,26;-6,68;-15,26;-6,68;2,19;1,51;2,19;1,51;0;0;
27012;-16,26;-8,48;-16,26;-8,48;2,17;1,57;2,17;1,57;0;0;
27029;-16,26;-8,48;-16,26;-8,48;2,16;1,51;2,16;1,51;0;0;
27044;-17,26;-5,93;-17,26;-5,93;2,18;1,56;2,18;1,56;0;0;
27060;-19,94;-11,47;-19,94;-11,47;1,63;1,75;1,63;1,75;0;0;
27076;-19,12;-6,53;-19,12;-6,53;1,84;1,68;1,84;1,68;0;0;
27092;-21,03;-8,88;-21,03;-8,88;1,93;1,73;1,93;1,73;0;0;
27108;-21,03;-8,88;-21,03;-8,88;2,14;1,78;2,14;1,78;0;0;
27124;-18,69;-6,36;-18,69;-6,36;2,37;1,85;2,37;1,85;0;0;
27141;-13,05;-5,32;-13,05;-5,32;2,46;1,83;2,46;1,83;0;0;
27158;-15,37;-10,35;-15,37;-10,35;2,32;1,71;2,32;1,71;0;0;
27174;-20,43;-7,55;-20,43;-7,55;2,37;1,68;2,37;1,68;0;0;
27192;-16,62;-6,59;-16,62;-6,59;2,1;1,78;2,1;1,78;0;0;
27209;-16,62;-6,59;-16,62;-6,59;1,67;1,81;1,67;1,81;0;0;
27226;-14,9;-5,5;-14,9;-5,5;1,45;1,82;1,45;1,82;0;0;
27241;-18,33;-8,63;-18,33;-8,63;1,47;1,69;1,47;1,69;0;0;
27258;-19,53;-8,84;-19,53;-8,84;1,47;1,59;1,47;1,59;0;0;
27275;-14,88;-1,95;-14,88;-1,95;1,62;1,76;1,62;1,76;0;0;
27293;-10,22;-11,28;-10,22;-11,28;1,81;1,74;1,81;1,74;0;0;
27312;-22,15;-2,71;-22,15;-2,71;2,12;1,73;2,12;1,73;0;0;
27329;-22,15;-2,71;-22,15;-2,71;2,4;1,75;2,4;1,75;0;0;
27345;-18,27;-9,6;-18,27;-9,6;2,4;1,74;2,4;1,74;0;0;
27361;-21,4;-8,41;-21,4;-8,41;2,27;1,61;2,27;1,61;0;0;
27376;-12,75;-2,9;-12,75;-2,9;2,09;1,65;2,09;1,65;0;0;
27393;-20,33;-9,37;-20,33;-9,37;2,13;1,72;2,13;1,72;0;0;
27410;-20,33;-9,37;-20,33;-9,37;2,3;1,84;2,3;1,84;0;0;
27425;-18,45;-8,68;-18,45;-8,68;2,11;2,11;2,11;2,11;0;0;
27440;-11,29;-9,81;-11,29;-9,81;2,22;2,14;2,22;2,14;0;0;
27458;-15,93;-6,84;-15,93;-6,84;2,28;2,27;2,28;2,27;0;0;
27474;-20,66;-6,45;-20,66;-6,45;2,17;2,27;2,17;2,27;0;0;
27489;-20,66;-6,45;-20,66;-6,45;1,94;2,28;1,94;2,28;0;0;
27505;-22,1;-8,04;-22,1;-8,04;1,87;2,27;1,87;2,27;0;0;
27520;-13,67;-4,73;-13,67;-4,73;2,23;1,92;2,23;1,92;0;0;
27538;-14,67;-6,7;-14,67;-6,7;2,19;1,81;2,19;1,81;0;0;
27554;-13,74;-9,37;-13,74;-9,37;2,32;1,67;2,32;1,67;0;0;
27573;-16,31;-10,73;-16,31;-10,73;2,2;1,76;2,2;1,76;0;0;
27588;-16,31;-10,73;-16,31;-10,73;2,06;1,81;2,06;1,81;0;0;
27606;-15,2;-7,59;-15,2;-7,59;1,76;2,02;1,76;2,02;0;0;
27623;-17,13;-9,1;-17,13;-9,1;1,73;2,06;1,73;2,06;0;0;
27639;-14,53;-9,75;-14,53;-9,75;1,6;2,17;1,6;2,17;0;0;
27654;-17,02;-2,77;-17,02;-2,77;1,62;2,16;1,62;2,16;0;0;
27671;-16,58;-7,76;-16,58;-7,76;1,83;1,84;1,83;1,84;0;0;
27686;-16,58;-7,76;-16,58;-7,76;2,02;1,48;2,02;1,48;0;0;
27702;-13,55;-3,93;-13,55;-3,93;2,15;1,72;2,15;1,72;0;0;
27718;-13,55;-3,93;-13,55;-3,93;2,13;1,9;2,13;1,9;0;0;
27735;-19,29;-8,79;-19,29;-8,79;2,24;2,11;2,24;2,11;0;0;
27751;-17,86;-2,85;-17,86;-2,85;2,33;2,04;2,33;2,04;0;0;
27767;-17,86;-2,85;-17,86;-2,85;2,3;2,18;2,3;2,18;0;0;
27781;-14,43;-5,7;-14,43;-5,7;2,13;2,2;2,13;2,2;0;0;
27798;-15,65;-3,6;-15,65;-3,6;2,16;2,01;2,16;2,01;0;0;
27814;-18,02;-9,73;-18,02;-9,73;2,04;2,06;2,04;2,06;0;0;
27831;-18;-7,13;-18;-7,13;2,09;2,23;2,09;2,23;0;0;
27847;-18;-7,13;-18;-7,13;2,11;2,46;2,11;2,46;0;0;
27863;-15,44;-8,38;-15,44;-8,38;2,1;2,34;2,1;2,34;0;0;
27878;-17,18;-8,06;-17,18;-8,06;1,82;2,41;1,82;2,41;0;0;
27898;-17,92;-10,72;-17,92;-10,72;1,8;2,33;1,8;2,33;0;0;
27914;-16,89;-3,63;-16,89;-3,63;1,71;2,39;1,71;2,39;0;0;
27931;-19,78;-8,23;-19,78;-8,23;1,67;2,14;1,67;2,14;0;0;
27946;-19,78;-8,23;-19,78;-8,23;1,65;1,8;1,65;1,8;0;0;
27962;-12,56;-6,15;-12,56;-6,15;1,82;2,03;1,82;2,03;0;0;
27977;-14,07;-8,61;-14,07;-8,61;1,98;1,95;1,98;1,95;0;0;
27992;-19,88;-4,85;-19,88;-4,85;1,97;1,75;1,97;1,75;0;0;
28008;-19,88;-4,85;-19,88;-4,85;1,82;1,62;1,82;1,62;0;0;
28026;-18,9;-11,28;-18,9;-11,28;1,99;1,62;1,99;1,62;0;0;
28042;-16,95;-4,24;-16,95;-4,24;2,09;1,54;2,09;1,54;0;0;
28058;-19,63;-7,24;-19,63;-7,24;1,87;1,4;1,87;1,4;0;0;
28075;-14,81;-6,78;-14,81;-6,78;2,03;1,57;2,03;1,57;0;0;
28091;-13,68;-5,96;-13,68;-5,96;2,1;1,77;2,1;1,77;0;0;
28107;-13,68;-5,96;-13,68;-5,96;2,09;1,95;2,09;1,95;0;0;
28123;-18,57;-5,33;-18,57;-5,33;2,18;2,03;2,18;2,03;0;0;
28140;-13,7;-8,76;-13,7;-8,76;2,12;1,99;2,12;1,99;0;0;
28155;-23,35;-5,07;-23,35;-5,07;3,71;1,94;3,71;1,94;0;0;
28170;-23,35;-5,07;-23,35;-5,07;5,46;1,74;5,46;1,74;0;0;
28185;114,84;-7,95;114,84;-7,95;33,05;1,68;33,05;1,68;0;0;
28203;-25,83;-10,73;-25,83;-10,73;60,5;1,57;60,5;1,57;0;0;
28220;-13,84;-5,45;-13,84;-5,45;73,64;1,54;73,64;1,54;0;0;
28236;-252,92;-9,27;-252,92;-9,27;88,01;1,91;88,01;1,91;0;0;
28252;-17,44;-9,26;-17,44;-9,26;110,11;1,93;110,11;1,93;0;0;
28268;-17,44;-9,26;-17,44;-9,26;118,42;1,85;118,42;1,85;0;0;
28284;81,9;-8,67;81,9;-8,67;117,08;1,86;117,08;1,86;1;0;
28302;223,06;-9,99;223,06;-9,99;126,35;1,98;126,35;1,98;1;0;
28318;484,01;-6,72;484,01;-6,72;144,84;1,79;144,84;1,79;1;0;
28335;91,04;-6,49;91,04;-6,49;180,96;1,85;180,96;1,85;1;0;
28351;91,04;-6,49;91,04;-6,49;215,37;1,96;215,37;1,96;1;0;
28368;83,91;-7,92;83,91;-7,92;255,93;2;255,93;2;0;0;
28387;-247,57;-4,11;-247,57;-4,11;267,86;2,09;267,86;2,09;0;0;
28407;137,78;-8,24;137,78;-8,24;255,7;2,11;255,7;2,11;0;0;
28428;208,13;-7,94;208,13;-7,94;214,43;1,78;214,43;1,78;0;0;
28445;84,34;-3,38;84,34;-3,38;185,55;1,7;185,55;1,7;0;0;
28464;212,25;-5,43;212,25;-5,43;150,65;1,74;150,65;1,74;0;0;
28480;144,01;-8,74;144,01;-8,74;177,54;1,79;177,54;1,79;0;0;
28496;-116,28;-10,74;-116,28;-10,74;170,34;1,74;170,34;1,74;0;0;
28515;55,54;-6,67;55,54;-6,67;173,5;1,61;173,5;1,61;0;0;
28532;-54,89;-11,74;-54,89;-11,74;151,27;1,74;151,27;1,74;0;0;
28547;-54,89;-11,74;-54,89;-11,74;123,52;1,74;123,52;1,74;0;0;
28565;-16,37;-5,79;-16,37;-5,79;89,17;1,8;89,17;1,8;0;0;
28581;-19,09;-5,96;-19,09;-5,96;44,03;1,95;44,03;1,95;0;0;
28598;-20,34;-5,58;-20,34;-5,58;28,07;2,23;28,07;2,23;0;0;
28615;-19,21;-10,25;-19,21;-10,25;10,94;2,4;10,94;2,4;0;0;
28634;-14,72;-10,69;-14,72;-10,69;5,23;2,4;5,23;2,4;0;0;
28650;-14,96;-8,77;-14,96;-8,77;2,35;2,4;2,35;2,4;0;0;
28666;-14,96;-8,77;-14,96;-8,77;2,24;2,46;2,24;2,46;0;0;
28682;-17,11;-3,97;-17,11;-3,97;2,34;2,38;2,34;2,38;0;0;
28698;-15,87;-12,1;-15,87;-12,1;2,38;2,05;2,38;2,05;0;0;
28715;-14,76;-9,56;-14,76;-9,56;2,23;2,03;2,23;2,03;0;0;
28731;-14,3;-7,06;-14,3;-7,06;2,17;2,12;2,17;2,12;0;0;
28748;-14,3;-7,06;-14,3;-7,06;2,43;2,09;2,43;2,09;0;0;
28764;-18,51;-5,72;-18,51;-5,72;2,55;1,86;2,55;1,86;0;0;
28779;-17,53;-9,4;-17,53;-9,4;2,74;1,96;2,74;1,96;0;0;
28796;-13,58;-9,5;-13,58;-9,5;2,62;1,96;2,62;1,96;0;0;
28813;-12,3;-6,18;-12,3;-6,18;2,61;2,19;2,61;2,19;0;0;
28829;-12,3;-6,18;-12,3;-6,18;2,51;2,3;2,51;2,3;0;0;
28844;-19,27;-4,2;-19,27;-4,2;2,14;2,72;2,14;2,72;0;0;
28861;-18,09;-5,7;-18,09;-5,7;2,27;2,96;2,27;2,96;0;0;
28877;-16,14;-3,61;-16,14;-3,61;2,09;3,01;2,09;3,01;0;0;
28892;-13,97;-8,35;-13,97;-8,35;1,99;2,86;1,99;2,86;0;0;
28907;-13,97;-8,35;-13,97;-8,35;1,88;2,63;1,88;2,63;0;0;
28923;-16,03;-7,5;-16,03;-7,5;1,88;2,19;1,88;2,19;0;0;
28940;-14,64;-5,45;-14,64;-5,45;1,91;1,8;1,91;1,8;0;0;
28956;-16,16;-5,55;-16,16;-5,55;1,81;1,54;1,81;1,54;0;0;
28971;-16,16;-5,55;-16,16;-5,55;1,77;1,32;1,77;1,32;0;0;
28986;-19,85;-4,86;-19,85;-4,86;1,77;1,42;1,77;1,42;0;0;
29004;-16,26;-3,79;-16,26;-3,79;1,84;1,6;1,84;1,6;0;0;
29021;-19,38;-7,65;-19,38;-7,65;2,04;1,68;2,04;1,68;0;0;
29037;-12,42;-7,43;-12,42;-7,43;2,17;1,73;2,17;1,73;0;0;
29054;-17,21;-8,36;-17,21;-8,36;2,42;1,85;2,42;1,85;0;0;
29072;-16,63;-5,7;-16,63;-5,7;2,33;1,85;2,33;1,85;0;0;
29088;-16,63;-5,7;-16,63;-5,7;2,04;1,68;2,04;1,68;0;0;
29105;-14,9;-7,66;-14,9;-7,66;1,94;1,9;1,94;1,9;0;0;
29120;-15,94;-5,08;-15,94;-5,08;1,77;2,08;1,77;2,08;0;0;
29136;-20,84;-12,14;-20,84;-12,14;1,81;2,03;1,81;2,03;0;0;
29152;-16,68;-7,25;-16,68;-7,25;1,73;1,96;1,73;1,96;0;0;
29169;-16,68;-7,25;-16,68;-7,25;1,81;1,95;1,81;1,95;0;0;
29184;-20,62;-8,66;-20,62;-8,66;2,01;2,07;2,01;2,07;0;0;
29199;-14,56;-10;-14,56;-10;2,24;1,86;2,24;1,86;0;0;
29214;-19,43;-4,73;-19,43;-4,73;2,26;1,79;2,26;1,79;0;0;
29230;-19,43;-4,73;-19,43;-4,73;2,13;1,88;2,13;1,88;0;0;
29245;-18,3;-4,3;-18,3;-4,3;2,41;1,9;2,41;1,9;0;0;
29261;-17,21;-5,08;-17,21;-5,08;2,42;1,96;2,42;1,96;0;0;
29278;-16,26;-1,89;-16,26;-1,89;2,07;1,95;2,07;1,95;0;0;
29295;-13,85;-6,69;-13,85;-6,69;2,12;2,06;2,12;2,06;0;0;
29308;-13,85;-6,69;-13,85;-6,69;2,03;2,17;2,03;2,17;0;0;
29326;-17,22;-6,05;-17,22;-6,05;1,82;2,18;1,82;2,18;0;0;
29343;-11,94;-8,92;-11,94;-8,92;1,64;2,2;1,64;2,2;0;0;
29359;-15,98;-6,06;-15,98;-6,06;1,81;2,24;1,81;2,24;0;0;
29377;-19,14;-7,19;-19,14;-7,19;1,85;1,83;1,85;1,83;0;0;
29397;-11,53;-7,15;-11,53;-7,15;1,97;1,7;1,97;1,7;0;0;
29415;-15,04;-5,83;-15,04;-5,83;1,97;1,62;1,97;1,62;0;0;
29432;-20,12;-8,06;-20,12;-8,06;2,15;1,66;2,15;1,66;0;0;
29448;-20,12;-8,06;-20,12;-8,06;2,26;1,75;2,26;1,75;0;0;
29465;-14,6;-7,58;-14,6;-7,58;2,45;1,69;2,45;1,69;0;0;
29481;-16;-9,76;-16;-9,76;2,18;1,77;2,18;1,77;0;0;
29497;-16,05;-4,25;-16,05;-4,25;2,13;1,76;2,13;1,76;0;0;
29513;-18,58;-9,85;-18,58;-9,85;2,22;1,8;2,22;1,8;0;0;
29528;-18,58;-9,85;-18,58;-9,85;2,11;1,79;2,11;1,79;0;0;
29544;-16,33;-4,22;-16,33;-4,22;2,07;1,9;2,07;1,9;0;0;
29562;-11,36;-10,05;-11,36;-10,05;1,99;1,92;1,99;1,92;0;0;
29579;-14,81;-3,49;-14,81;-3,49;1,96;2,15;1,96;2,15;0;0;
29594;-15,76;-6,15;-15,76;-6,15;2,13;2,17;2,13;2,17;0;0;
29609;-15,76;-6,15;-15,76;-6,15;2,26;2,12;2,26;2,12;0;0;
29625;-19,43;-6,69;-19,43;-6,69;2,12;2,07;2,12;2,07;0;0;
29640;-16,68;-11,13;-16,68;-11,13;1,98;2,27;1,98;2,27;0;0;
29657;-15,7;-1,35;-15,7;-1,35;1,94;2,29;1,94;2,29;0;0;
29674;-22,04;-6,2;-22,04;-6,2;2,06;2,12;2,06;2,12;0;0;
29691;-13,46;-7,4;-13,46;-7,4;2,04;2,02;2,04;2,02;0;0;
29709;-13,46;-7,4;-13,46;-7,4;1,98;1,89;1,98;1,89;0;0;
29726;-14,17;-8,03;-14,17;-8,03;2,15;1,69;2,15;1,69;0;0;
29741;-17,17;-6,93;-17,17;-6,93;2,14;1,51;2,14;1,51;0;0;
29758;-18,61;-1,57;-18,61;-1,57;2,22;1,67;2,22;1,67;0;0;
29775;-17,66;-7,4;-17,66;-7,4;2,15;1,79;2,15;1,79;0;0;
29791;-15,87;-5,75;-15,87;-5,75;2,05;1,82;2,05;1,82;0;0;
29808;-15,87;-5,75;-15,87;-5,75;2,06;1,9;2,06;1,9;0;0;
29826;-21,65;-4,67;-21,65;-4,67;1,88;2,13;1,88;2,13;0;0;
29843;-16,49;-7,28;-16,49;-7,28;1,89;2,12;1,89;2,12;0;0;
29859;-33,72;-10,71;-33,72;-10,71;3,23;1,8;3,23;1,8;0;0;
29877;-54,54;-7,51;-54,54;-7,51;7,77;1,77;7,77;1,77;0;0;
29894;9,5;-5,89;9,5;-5,89;10,28;1,82;10,28;1,82;0;0;
29909;9,5;-5,89;9,5;-5,89;12,84;1,77;12,84;1,77;0;0;
29924;-13,88;-6,93;-13,88;-6,93;14,85;1,75;14,85;1,75;0;0;
29940;-13,15;-4,44;-13,15;-4,44;14,84;2,04;14,84;2,04;0;0;
29956;-12,84;-3,8;-12,84;-3,8;14,4;2,2;14,4;2,2;0;0;
29969;-12,84;-3,8;-12,84;-3,8;12,05;2,45;12,05;2,45;0;0;
29985;-8,34;-6,42;-8,34;-6,42;11,39;2,32;11,39;2,32;0;0;
30002;-49,51;-8,17;-49,51;-8,17;11,45;2,16;11,45;2,16;0;0;
30018;-0,62;-9,01;-0,62;-9,01;18,18;2,07;18,18;2,07;0;0;
30034;-68,28;-6,69;-68,28;-6,69;22,76;1,87;22,76;1,87;0;0;
30049;-68,28;-6,69;-68,28;-6,69;27;1,47;27;1,47;0;0;
30066;4,35;-3,64;4,35;-3,64;42,97;1,2;42,97;1,2;0;0;
30081;312,62;-8,56;312,62;-8,56;72,04;1,31;72,04;1,31;1;0;
30097;-148,87;-5,43;-148,87;-5,43;90,6;1,23;90,6;1,23;1;0;
30112;51,41;-5,08;51,41;-5,08;107,26;1,48;107,26;1,48;1;0;
30127;51,41;-5,08;51,41;-5,08;124,72;1,76;124,72;1,76;1;0;
30142;169,02;-8,79;169,02;-8,79;141,74;1,78;141,74;1,78;1;0;
30157;-224,31;-7,77;-224,31;-7,77;154,04;1,82;154,04;1,82;1;0;
30173;245,24;-7,07;245,24;-7,07;148,58;1,83;148,58;1,83;1;0;
30190;245,24;-7,07;245,24;-7,07;160,62;1,64;160,62;1,64;1;0;
30207;30,11;-7,78;30,11;-7,78;177,4;1,54;177,4;1,54;1;0;
30223;99,07;-9,75;99,07;-9,75;172,45;1,59;172,45;1,59;1;0;
30242;0,61;-6,74;0,61;-6,74;171,77;1,72;171,77;1,72;1;0;
30261;125,09;-9,26;125,09;-9,26;170,16;1,7;170,16;1,7;1;0;
30280;190,61;-8,53;190,61;-8,53;191,46;1,74;191,46;1,74;1;0;
30298;-274,85;-5,7;-274,85;-5,7;197,58;1,86;197,58;1,86;0;0;
30315;47,59;-7,86;47,59;-7,86;198,84;1,88;198,84;1,88;0;0;
30335;52,59;-6,93;52,59;-6,93;182,33;1,89;182,33;1,89;0;0;
30349;52,59;-6,93;52,59;-6,93;159,81;1,98;159,81;1,98;0;0;
30365;-106,98;-10,09;-106,98;-10,09;146,43;2,2;146,43;2,2;0;0;
30382;-6,22;-7,38;-6,22;-7,38;108,83;2,35;108,83;2,35;0;0;
30399;-17,18;-7,69;-17,18;-7,69;56,86;1,95;56,86;1,95;0;0;
30415;-20,93;-6,03;-20,93;-6,03;36,59;2,08;36,59;2,08;0;0;
30433;-22,03;-7,66;-22,03;-7,66;27,61;2,06;27,61;2,06;0;0;
30450;-22,03;-7,66;-22,03;-7,66;12,74;2,03;12,74;2,03;0;0;
30472;-18,59;-6,72;-18,59;-6,72;4,13;1,82;4,13;1,82;0;0;
30489;-18,59;-6,72;-18,59;-6,72;2,34;1,95;2,34;1,95;0;0;
30503;-18,54;-4,53;-18,54;-4,53;2,42;2,09;2,42;2,09;0;0;
30521;-14,63;-8,41;-14,63;-8,41;2,5;1,97;2,5;1,97;0;0;
30538;-16,22;-6,07;-16,22;-6,07;2,68;1,94;2,68;1,94;0;0;
30553;-20,23;-8,36;-20,23;-8,36;2,51;1,84;2,51;1,84;0;0;
30571;-13,83;-7,05;-13,83;-7,05;2,26;1,71;2,26;1,71;0;0;
30588;-13,83;-7,05;-13,83;-7,05;2,1;1,63;2,1;1,63;0;0;
30604;-19,49;-5,3;-19,49;-5,3;1,86;1,54;1,86;1,54;0;0;
30619;-19,62;-10,47;-19,62;-10,47;2,14;1,62;2,14;1,62;0;0;
30636;-11,9;-9,02;-11,9;-9,02;2,38;1,92;2,38;1,92;0;0;
30650;-11,9;-9,02;-11,9;-9,02;2,8;2,07;2,8;2,07;0;0;
30667;-18,48;-9,55;-18,48;-9,55;2,87;2,11;2,87;2,11;0;0;
30683;-13,69;-9,34;-13,69;-9,34;2,96;2,1;2,96;2,1;0;0;
30700;-16;-2,47;-16;-2,47;2,83;1,99;2,83;1,99;0;0;
30716;-15,72;-3,83;-15,72;-3,83;2,48;1,83;2,48;1,83;0;0;
30734;-13,63;-7,67;-13,63;-7,67;2,05;1,66;2,05;1,66;0;0;
30748;-13,63;-7,67;-13,63;-7,67;1,64;1,71;1,64;1,71;0;0;
30764;-16,95;-8,64;-16,95;-8,64;1,68;1,85;1,68;1,85;0;0;
30779;-15,8;-5,4;-15,8;-5,4;1,55;2,04;1,55;2,04;0;0;
30796;-14,26;-5,2;-14,26;-5,2;1,61;2,23;1,61;2,23;0;0;
30812;-15,1;-8,56;-15,1;-8,56;1,63;2,26;1,63;2,26;0;0;
30826;-15,1;-8,56;-15,1;-8,56;1,56;2,27;1,56;2,27;0;0;
30842;-17,63;-7,37;-17,63;-7,37;1,73;2,18;1,73;2,18;0;0;
30858;-16,33;-4,96;-16,33;-4,96;1,82;2,08;1,82;2,08;0;0;
30875;-15;-5,98;-15;-5,98;1,88;2;1,88;2;0;0;
30897;-14,33;-9,74;-14,33;-9,74;1,88;1,84;1,88;1,84;0;0;
30912;-17,3;-4,74;-17,3;-4,74;2,01;2,01;2,01;2,01;0;0;
30927;-17,3;-4,74;-17,3;-4,74;2,13;2,28;2,13;2,28;0;0;
30945;-14,57;-7,77;-14,57;-7,77;1,89;2,21;1,89;2,21;0;0;
30962;-17,95;-6,2;-17,95;-6,2;1,89;2,25;1,89;2,25;0;0;
30977;-18,04;-7,63;-18,04;-7,63;1,88;2,08;1,88;2,08;0;0;
30992;-16,29;-9,27;-16,29;-9,27;1,74;2,13;1,74;2,13;0;0;
31008;-16,29;-9,27;-16,29;-9,27;1,57;2,04;1,57;2,04;0;0;
31023;-18,58;-9,36;-18,58;-9,36;1,54;1,91;1,54;1,91;0;0;
31040;-14,39;-3,2;-14,39;-3,2;1,61;1,9;1,61;1,9;0;0;
31056;-16,96;-7,43;-16,96;-7,43;1,52;1,86;1,52;1,86;0;0;
31075;-14,1;-4,67;-14,1;-4,67;1,76;1,85;1,76;1,85;0;0;
31089;-14,1;-4,67;-14,1;-4,67;2,08;1,69;2,08;1,69;0;0;
31104;-15,98;-7,27;-15,98;-7,27;2,11;1,48;2,11;1,48;0;0;
31119;-15,23;-4,15;-15,23;-4,15;2,07;1,39;2,07;1,39;0;0;
31136;-15,18;-4,44;-15,18;-4,44;2,05;1,41;2,05;1,41;0;0;
31150;-18,92;-6,05;-18,92;-6,05;2,03;1,46;2,03;1,46;0;0;
31167;-18,92;-6,05;-18,92;-6,05;1,97;1,53;1,97;1,53;0;0;
31181;-20,37;-8,57;-20,37;-8,57;1,84;1,69;1,84;1,69;0;0;
31197;-16,75;-6,21;-16,75;-6,21;1,88;1,93;1,88;1,93;0;0;
31215;-15,22;-6,96;-15,22;-6,96;1,94;2,09;1,94;2,09;0;0;
31231;-15,55;-9,86;-15,55;-9,86;1,87;2,01;1,87;2,01;0;0;
31247;-15,55;-9,86;-15,55;-9,86;1,69;1,94;1,69;1,94;0;0;
31263;-13,95;-5,95;-13,95;-5,95;1,71;1,98;1,71;1,98;0;0;
31278;-15,95;-6,77;-15,95;-6,77;1,78;1,88;1,78;1,88;0;0;
31295;-21,21;-7,39;-21,21;-7,39;1,98;1,82;1,98;1,82;0;0;
31309;-21,21;-7,39;-21,21;-7,39;2,14;2,01;2,14;2,01;0;0;
31326;-18,05;-4,14;-18,05;-4,14;2,23;2,28;2,23;2,28;0;0;
31343;-18,74;-9,5;-18,74;-9,5;2,26;2,12;2,26;2,12;0;0;
31359;-17,29;-8,39;-17,29;-8,39;1,93;2,19;1,93;2,19;0;0;
31377;-17,81;-8,42;-17,81;-8,42;1,97;2,16;1,97;2,16;0;0;
31393;-15,31;-6,67;-15,31;-6,67;2,05;1,99;2,05;1,99;0;0;
31409;-15,31;-6,67;-15,31;-6,67;2,09;1,86;2,09;1,86;0;0;
31425;-14,38;-5,56;-14,38;-5,56;2,33;1,8;2,33;1,8;0;0;
31441;-19,98;-10,41;-19,98;-10,41;2,55;1,73;2,55;1,73;0;0;
31457;-11,99;-7,28;-11,99;-7,28;2,43;1,76;2,43;1,76;0;0;
31474;-19,16;-4,98;-19,16;-4,98;2,25;1,81;2,25;1,81;0;0;
31489;-19,16;-4,98;-19,16;-4,98;2;1,84;2;1,84;0;0;
31505;-18,5;-9,39;-18,5;-9,39;2,06;1,87;2,06;1,87;0;0;
31521;-18,31;-8,29;-18,31;-8,29;2,05;1,76;2,05;1,76;0;0;
31538;-18,31;-8,29;-18,31;-8,29;1,88;1,72;1,88;1,72;0;0;
31553;-18,91;-5,55;-18,91;-5,55;1,85;1,73;1,85;1,73;0;0;
31569;-18,91;-5,55;-18,91;-5,55;1,85;1,82;1,85;1,82;0;0;
31584;-20,19;-5,79;-20,19;-5,79;1,73;2,1;1,73;2,1;0;0;
31604;-18,79;-7,66;-18,79;-7,66;1,65;1,97;1,65;1,97;0;0;
31618;-12,47;-8,34;-12,47;-8,34;1,61;1,9;1,61;1,9;0;0;
31634;-18,67;-7,9;-18,67;-7,9;1,63;1,78;1,63;1,78;0;0;
31648;-18,67;-7,9;-18,67;-7,9;1,69;1,68;1,69;1,68;0;0;
31664;-45,6;-4,36;-45,6;-4,36;4,25;1,74;4,25;1,74;0;0;
31682;-175,8;-9,74;-175,8;-9,74;12,97;1,57;12,97;1,57;0;0;
31699;-68,67;-7,07;-68,67;-7,07;26,2;1,71;26,2;1,71;0;0;
31714;-105,85;-7,03;-105,85;-7,03;37,98;1,64;37,98;1,64;0;0;
31731;-50,45;-9,3;-50,45;-9,3;46,42;1,86;46,42;1,86;0;0;
31748;-50,45;-9,3;-50,45;-9,3;54,33;2;54,33;2;0;0;
31765;84,09;-6,05;84,09;-6,05;74,37;2,08;74,37;2,08;0;0;
31780;-50,71;-3,95;-50,71;-3,95;78,79;2,06;78,79;2,06;0;0;
31797;-397,71;-3,76;-397,71;-3,76;100,63;2,06;100,63;2,06;0;0;
31812;47,76;-6,07;47,76;-6,07;123,13;2;123,13;2;0;0;
31828;47,76;-6,07;47,76;-6,07;146,36;1,8;146,36;1,8;0;0;
31843;-206,44;-3,55;-206,44;-3,55;147,31;1,69;147,31;1,69;0;0;
31858;-75;-9,95;-75;-9,95;145,99;1,63;145,99;1,63;0;0;
31875;-314,36;-8,17;-314,36;-8,17;167,02;1,54;167,02;1,54;1;0;
31892;154,65;-6,8;154,65;-6,8;145,76;1,65;145,76;1,65;1;0;
31907;154,65;-6,8;154,65;-6,8;138,79;1,75;138,79;1,75;1;0;
31924;121,45;-9,14;121,45;-9,14;172,82;1,68;172,82;1,68;1;0;
31943;184,12;-5,68;184,12;-5,68;195,07;1,67;195,07;1,67;1;0;
31961;246,25;-4,08;246,25;-4,08;211,58;1,72;211,58;1,72;0;0;
31979;183,88;-4,72;183,88;-4,72;205,8;1,66;205,8;1,66;0;0;
31997;-15,65;-3,49;-15,65;-3,49;201,55;1,52;201,55;1,52;0;0;
32014;265,35;-6,33;265,35;-6,33;184,44;1,59;184,44;1,59;0;0;
32029;265,35;-6,33;265,35;-6,33;139,03;1,57;139,03;1,57;0;0;
32046;23,43;-1,02;23,43;-1,02;127,94;1,67;127,94;1,67;0;0;
32065;-158,8;-8,78;-158,8;-8,78;116,97;1,81;116,97;1,81;0;0;
32083;-554,19;-7,79;-554,19;-7,79;127,34;1,75;127,34;1,75;0;0;
32101;-180,67;-6,8;-180,67;-6,8;143,44;1,81;143,44;1,81;0;0;
32115;-165,44;-6,67;-165,44;-6,67;159,2;1,82;159,2;1,82;0;0;
32132;317,71;-8,04;317,71;-8,04;156,74;1,85;156,74;1,85;0;0;
32147;317,71;-8,04;317,71;-8,04;152,13;1,61;152,13;1,61;0;0;
32162;23,83;-4,65;23,83;-4,65;149,07;1,6;149,07;1,6;0;0;
32178;72,08;-10,74;72,08;-10,74;115,95;1,68;115,95;1,68;0;0;
32193;63,13;-10,75;63,13;-10,75;106,65;1,72;106,65;1,72;0;0;
32211;-1,21;-4,69;-1,21;-4,69;91,84;1,79;91,84;1,79;0;0;
32228;-1,21;-4,69;-1,21;-4,69;85,85;1,97;85,85;1,97;0;0;
32242;-15,24;-3,18;-15,24;-3,18;61,82;2,04;61,82;2,04;0;0;
32259;-12,04;-7,84;-12,04;-7,84;51,58;1,86;51,58;1,86;0;0;
32275;-18,02;-5,69;-18,02;-5,69;29,77;1,78;29,77;1,78;0;0;
32289;-18,02;-5,69;-18,02;-5,69;21,32;1,71;21,32;1,71;0;0;
32303;-18,21;-10,71;-18,21;-10,71;9,4;1,6;9,4;1,6;0;0;
32319;-16,01;-9,28;-16,01;-9,28;1,99;1,47;1,99;1,47;0;0;
32336;-18,08;-7,74;-18,08;-7,74;1,76;1,47;1,76;1,47;0;0;
32352;-18,02;-4,25;-18,02;-4,25;1,66;1,56;1,66;1,56;0;0;
32373;-19,17;-6,8;-19,17;-6,8;1,77;1,65;1,77;1,65;0;0;
32389;-19,17;-6,8;-19,17;-6,8;1,89;1,71;1,89;1,71;0;0;
32406;-12,04;-8,18;-12,04;-8,18;2,27;1,94;2,27;1,94;0;0;
32422;-16,88;-11,69;-16,88;-11,69;2,3;1,96;2,3;1,96;0;0;
32438;-22,01;-9,31;-22,01;-9,31;2,84;2,32;2,84;2,32;0;0;
32455;8,9;-9,18;8,9;-9,18;5,7;2,36;5,7;2,36;0;0;
32472;39,29;-7,47;39,29;-7,47;16,52;2,25;16,52;2,25;0;0;
32488;39,29;-7,47;39,29;-7,47;27,04;2,09;27,04;2,09;0;0;
32505;-238,85;-8,6;-238,85;-8,6;41,31;2,05;41,31;2,05;0;0;
32519;-27,76;-7,1;-27,76;-7,1;75,78;1,84;75,78;1,84;0;0;
32537;-199,47;-9,74;-199,47;-9,74;99,96;1,85;99,96;1,85;0;0;
32556;-126,24;-9,21;-126,24;-9,21;118,71;1,99;118,71;1,99;0;0;
32572;144,37;-4,71;144,37;-4,71;147,56;2,15;147,56;2,15;0;0;
32589;144,37;-4,71;144,37;-4,71;177,64;2,28;177,64;2,28;0;0;
32606;-249,66;-5,72;-249,66;-5,72;182,68;2,36;182,68;2,36;0;0;
32621;-174,18;-8,9;-174,18;-8,9;182,63;2,27;182,63;2,27;0;0;
32637;-101,94;-11,08;-101,94;-11,08;200,62;2,4;200,62;2,4;0;0;
32655;-106,57;-6,9;-106,57;-6,9;182,73;2,43;182,73;2,43;0;0;
32672;-16,52;-9,57;-16,52;-9,57;160,82;2,23;160,82;2,23;0;0;
32689;-16,52;-9,57;-16,52;-9,57;148,77;2,09;148,77;2,09;0;0;
32705;-74,34;-4,45;-74,34;-4,45;167,12;1,96;167,12;1,96;0;0;
32721;-49,92;-9,42;-49,92;-9,42;152,79;2,1;152,79;2,1;0;0;
32738;111,64;-9,65;111,64;-9,65;158,61;1,95;158,61;1,95;0;0;
32755;-114,04;-3,72;-114,04;-3,72;159,81;2,07;159,81;2,07;0;0;
32771;373,75;-8,59;373,75;-8,59;156,62;2,19;156,62;2,19;0;0;
32786;373,75;-8,59;373,75;-8,59;140,68;2,24;140,68;2,24;0;0;
32802;-21,63;-2,68;-21,63;-2,68;121,16;2,07;121,16;2,07;1;0;
32816;-95,68;-7,84;-95,68;-7,84;105,34;2,15;105,34;2,15;1;0;
32835;57,05;-6,07;57,05;-6,07;92,75;1,87;92,75;1,87;1;0;
32850;57,05;-6,07;57,05;-6,07;99,9;1,52;99,9;1,52;1;0;
32867;-23,09;-7,1;-23,09;-7,1;86,05;1,47;86,05;1,47;1;0;
32883;11,66;-8,01;11,66;-8,01;71,99;1,54;71,99;1,54;1;0;
32902;-474,18;-5;-474,18;-5;112,03;1,58;112,03;1,58;1;0;
32917;36,33;-4,36;36,33;-4,36;111,52;1,6;111,52;1,6;1;0;
32933;-21,92;-9,22;-21,92;-9,22;89,8;1,71;89,8;1,71;1;0;
32949;-21,92;-9,22;-21,92;-9,22;81,47;1,8;81,47;1,8;1;0;
32967;-30,38;-3,01;-30,38;-3,01;84,32;1,78;84,32;1,78;1;0;
32983;-24,37;-8,33;-24,37;-8,33;70,84;1,81;70,84;1,81;1;0;
33001;-15,39;-6,2;-15,39;-6,2;22,89;1,68;22,89;1,68;1;0;
33016;-14,6;-6,54;-14,6;-6,54;11,25;1,79;11,25;1,79;1;0;
33066;-15,33;-6,06;-15,33;-6,06;9,26;1,88;9,26;1,88;1;0;
33083;-16,1;-10,12;-16,1;-10,12;4,3;2;4,3;2;1;0;
33101;-17,93;-7,42;-17,93;-7,42;2,89;2,03;2,89;2,03;1;0;
33117;-17,02;-6,94;-17,02;-6,94;2,12;1,98;2,12;1,98;1;0;
33135;-19,23;-5,34;-19,23;-5,34;2,37;1,94;2,37;1,94;1;0;
33150;-19,23;-5,34;-19,23;-5,34;2,42;1,75;2,42;1,75;1;0;
33166;-16,34;-10,92;-16,34;-10,92;2,5;1,8;2,5;1,8;0;0;
33181;-12,76;-6,18;-12,76;-6,18;2,63;1,74;2,63;1,74;0;0;
33202;-21,28;-8,06;-21,28;-8,06;2,84;1,68;2,84;1,68;0;0;
33220;-11,66;-5,81;-11,66;-5,81;3,26;1,71;3,26;1,71;0;0;
33239;-16,16;-6,24;-16,16;-6,24;3,15;1,65;3,15;1,65;0;0;
33255;-18,11;-6,2;-18,11;-6,2;2,88;1,66;2,88;1,66;0;0;
33270;-18,11;-6,2;-18,11;-6,2;2,5;1,7;2,5;1,7;0;0;
33286;-18,87;-6,77;-18,87;-6,77;2,18;1,74;2,18;1,74;0;0;
33303;-18,42;-10,37;-18,42;-10,37;1,86;1,78;1,86;1,78;0;0;
33321;-16,46;-6,43;-16,46;-6,43;1,74;1,85;1,74;1,85;0;0;
33340;0,37;-12,75;0,37;-12,75;5,57;1,93;5,57;1,93;0;0;
33358;-16,48;-4,69;-16,48;-4,69;7,02;2,01;7,02;2,01;0;0;
33373;-24,6;-5,72;-24,6;-5,72;7,35;1,92;7,35;1,92;0;0;
33388;-24,6;-5,72;-24,6;-5,72;7,62;1,74;7,62;1,74;0;0;
33403;-18,22;-6,89;-18,22;-6,89;7,61;1,54;7,61;1,54;0;0;
33420;-20,8;-3,99;-20,8;-3,99;5,38;1,62;5,38;1,62;0;0;
33436;-14,91;-8,18;-14,91;-8,18;2,82;1,75;2,82;1,75;0;0;
33453;-18,22;-10,34;-18,22;-10,34;2,45;1,72;2,45;1,72;0;0;
33469;-18,22;-10,34;-18,22;-10,34;2,13;1,78;2,13;1,78;0;0;
33484;-17,45;-6,83;-17,45;-6,83;1,8;2,08;1,8;2,08;0;0;
33501;-16,4;-4,86;-16,4;-4,86;1,82;2,1;1,82;2,1;0;0;
33518;-16,29;-5,73;-16,29;-5,73;1,58;2,03;1,58;2,03;0;0;
33534;-15,07;-10,45;-15,07;-10,45;1,5;2,04;1,5;2,04;0;0;
33550;-15,07;-10,45;-15,07;-10,45;1,45;2,17;1,45;2,17;0;0;
33566;-16,75;-6,09;-16,75;-6,09;1,49;2,21;1,49;2,21;0;0;
33581;-15,8;-10,58;-15,8;-10,58;1,71;2,21;1,71;2,21;0;0;
33597;-19,34;-4,08;-19,34;-4,08;2,51;2,11;2,51;2,11;0;0;
33614;-74,74;-6,13;-74,74;-6,13;16,41;1,91;16,41;1,91;0;0;
33629;-74,74;-6,13;-74,74;-6,13;30,34;1,8;30,34;1,8;0;0;
33645;-11,79;-5,36;-11,79;-5,36;35,84;1,73;35,84;1,73;0;0;
33662;226,16;-6,41;226,16;-6,41;63,61;1,77;63,61;1,77;0;0;
33677;-24,81;-9,51;-24,81;-9,51;88,05;1,75;88,05;1,75;0;0;
33692;74,88;-8,61;74,88;-8,61;93,61;1,79;93,61;1,79;0;0;
33709;74,88;-8,61;74,88;-8,61;91,93;1,79;91,93;1,79;0;0;
33725;15,16;-9,12;15,16;-9,12;103,4;1,7;103,4;1,7;0;0;
33741;-83,52;-2,38;-83,52;-2,38;107,38;1,9;107,38;1,9;0;0;
33757;104,81;-6,32;104,81;-6,32;104,87;1,92;104,87;1,92;0;0;
33773;-99,89;-9,3;-99,89;-9,3;102,16;1,96;102,16;1,96;0;0;
33790;-99,89;-9,3;-99,89;-9,3;100,42;2,02;100,42;2,02;0;0;
33808;-94,76;-5,45;-94,76;-5,45;105,09;1,95;105,09;1,95;0;0;
33823;-94,76;-5,45;-94,76;-5,45;107,86;1,89;107,86;1,89;0;0;
33839;114,57;-4,01;114,57;-4,01;133,02;1,76;133,02;1,76;0;0;
33856;-120,55;-8,03;-120,55;-8,03;143,81;1,67;143,81;1,67;0;0;
33872;96,55;-7,15;96,55;-7,15;149,58;1,78;149,58;1,78;0;0;
33894;96,55;-7,15;96,55;-7,15;149,49;1,92;149,49;1,92;0;0;
33911;-45,46;-7,64;-45,46;-7,64;155,44;1,81;155,44;1,81;1;0;
33926;-181,92;-5,33;-181,92;-5,33;128,19;1,84;128,19;1,84;1;0;
33942;125,73;-6,68;125,73;-6,68;121,69;1,78;121,69;1,78;1;0;
33960;-104,73;-10,36;-104,73;-10,36;118,1;1,77;118,1;1,77;1;0;
33975;-34;-4,17;-34;-4,17;134,86;1,79;134,86;1,79;1;0;
33991;-36,05;-5,3;-36,05;-5,3;133,66;1,71;133,66;1,71;1;0;
34007;-36,05;-5,3;-36,05;-5,3;124,48;1,74;124,48;1,74;1;0;
34025;-13,68;-8,26;-13,68;-8,26;117,11;1,65;117,11;1,65;1;0;
34040;100,11;-11,47;100,11;-11,47;146,39;1,78;146,39;1,78;1;0;
34055;156,34;-6,06;156,34;-6,06;151,33;1,83;151,33;1,83;1;0;
34073;213,42;-5,17;213,42;-5,17;137,28;1,87;137,28;1,87;1;0;
34087;213,42;-5,17;213,42;-5,17;140,03;2,03;140,03;2,03;1;0;
34103;-28,21;-6,07;-28,21;-6,07;140,92;2,07;140,92;2,07;1;0;
34120;-25,98;-7,76;-25,98;-7,76;156,18;2,1;156,18;2,1;1;0;
34139;-254,46;-8,91;-254,46;-8,91;129,16;2,03;129,16;2,03;1;0;
34154;124,53;-8,91;124,53;-8,91;111,48;1,9;111,48;1,9;1;0;
34172;124,53;-8,91;124,53;-8,91;102,86;1,67;102,86;1,67;1;0;
34186;124,53;-8,91;124,53;-8,91;98,38;1,4;98,38;1,4;1;0;
34203;-66,52;-7,8;-66,52;-7,8;90,98;1,44;90,98;1,44;1;0;
34220;46,09;-8,5;46,09;-8,5;82,14;1,47;82,14;1,47;1;0;
34236;-374,15;-5,34;-374,15;-5,34;83,95;1,48;83,95;1,48;1;0;
34249;-374,15;-5,34;-374,15;-5,34;85,48;1,49;85,48;1,49;1;0;
34266;-0,25;-9,24;-0,25;-9,24;72,93;1,57;72,93;1,57;0;0;
34283;-16,64;-8,76;-16,64;-8,76;63,2;1,77;63,2;1,77;0;0;
34301;-17,07;-7,65;-17,07;-7,65;52,64;1,92;52,64;1,92;0;0;
34317;-5,32;-5,92;-5,32;-5,92;40,21;1,99;40,21;1,99;0;0;
34336;-16,24;-8,05;-16,24;-8,05;23,46;2,07;23,46;2,07;0;0;
34350;-16,24;-8,05;-16,24;-8,05;5,78;1,97;5,78;1,97;0;0;
34365;-18,36;-8,54;-18,36;-8,54;3,13;1,79;3,13;1,79;0;0;
34382;-16,06;-9,25;-16,06;-9,25;2,94;1,77;2,94;1,77;0;0;
34399;-14,67;-5,7;-14,67;-5,7;2,97;1,78;2,97;1,78;0;0;
34415;-15,02;-7,23;-15,02;-7,23;2,54;1,65;2,54;1,65;0;0;
34432;-17,5;-6,37;-17,5;-6,37;2,49;1,65;2,49;1,65;0;0;
34447;-17,5;-6,37;-17,5;-6,37;2,3;1,69;2,3;1,69;0;0;
34468;-15,01;-9,04;-15,01;-9,04;2;1,65;2;1,65;0;0;
34485;-17,73;-7,8;-17,73;-7,8;2,19;1,71;2,19;1,71;0;0;
34502;-19,31;-8,43;-19,31;-8,43;2,07;1,77;2,07;1,77;0;0;
34519;-18,86;-2,03;-18,86;-2,03;2,08;1,81;2,08;1,81;0;0;
34536;-15,76;-8,85;-15,76;-8,85;1,93;1,88;1,93;1,88;0;0;
34551;-14,91;-8,77;-14,91;-8,77;1,84;1,9;1,84;1,9;1;0;
34568;-14,91;-8,77;-14,91;-8,77;1,66;1,93;1,66;1,93;1;0;
34585;-27,93;-5,34;-27,93;-5,34;2,56;2,06;2,56;2,06;1;0;
34604;31,39;-5,44;31,39;-5,44;13,51;2,13;13,51;2,13;1;0;
34621;178,9;-9,18;178,9;-9,18;42,17;2,06;42,17;2,06;1;0;
34637;53,05;-10,63;53,05;-10,63;52,12;2,03;52,12;2,03;1;0;
34652;-254,06;-5,01;-254,06;-5,01;70,31;2,1;70,31;2,1;1;0;
34670;-254,06;-5,01;-254,06;-5,01;88,13;2,1;88,13;2,1;1;0;
34687;71,45;-6,79;71,45;-6,79;115,36;2,02;115,36;2,02;1;0;
34703;236,11;-10,1;236,11;-10,1;114,93;2;114,93;2;1;0;
34722;126,53;-6,08;126,53;-6,08;122,16;2,04;122,16;2,04;1;0;
34738;59,96;-6,05;59,96;-6,05;138,48;1,97;138,48;1,97;1;0;
34754;96,18;-7,66;96,18;-7,66;139,02;1,8;139,02;1,8;1;0;
34769;96,18;-7,66;96,18;-7,66;126,23;1,78;126,23;1,78;1;0;
34784;-195,81;-7,77;-195,81;-7,77;127,16;1,83;127,16;1,83;1;0;
34801;-186,59;-9,85;-186,59;-9,85;151,73;1,83;151,73;1,83;1;0;
34815;322,1;-5,33;322,1;-5,33;142,48;1,96;142,48;1,96;1;0;
34831;-227,2;-5,08;-227,2;-5,08;154,65;2,22;154,65;2,22;1;0;
34845;-227,2;-5,08;-227,2;-5,08;170,38;2,53;170,38;2,53;1;0;
34860;-360,32;-9,76;-360,32;-9,76;195,55;2,52;195,55;2,52;1;0;
34878;31,76;-5,98;31,76;-5,98;166,57;2,48;166,57;2,48;0;0;
34898;-116,31;-6,92;-116,31;-6,92;179,51;2,43;179,51;2,43;0;0;
34918;-25,11;-3,33;-25,11;-3,33;155,12;2,31;155,12;2,31;0;0;
34937;-20,09;-6,67;-20,09;-6,67;122,05;2,2;122,05;2,2;0;0;
34955;-17,22;-7,72;-17,22;-7,72;89,55;2,06;89,55;2,06;0;0;
34970;-17,22;-7,72;-17,22;-7,72;60,4;2,05;60,4;2,05;0;0;
34987;-20,24;-4,51;-20,24;-4,51;41,31;1,99;41,31;1,99;0;0;
35005;-19,13;-8,78;-19,13;-8,78;6,36;1,91;6,36;1,91;0;0;
35023;-21,52;-5,52;-21,52;-5,52;3,19;1,75;3,19;1,75;0;0;
35040;-13,61;-6,6;-13,61;-6,6;2,8;1,55;2,8;1,55;0;0;
35056;-17,09;-6,71;-17,09;-6,71;2,66;1,59;2,66;1,59;0;0;
35073;-18,13;-6,29;-18,13;-6,29;2,51;1,74;2,51;1,74;0;0;
35092;-16,98;-3,76;-16,98;-3,76;2,3;1,72;2,3;1,72;0;0;
35107;-16,98;-3,76;-16,98;-3,76;2,12;1,75;2,12;1,75;0;0;
35122;-9,37;-2,57;-9,37;-2,57;2,27;1,87;2,27;1,87;0;0;
35139;-10,02;-6,68;-10,02;-6,68;2,28;2;2,28;2;0;0;
35154;-20,54;-8,24;-20,54;-8,24;2,4;1,97;2,4;1,97;0;0;
35169;-20,54;-8,24;-20,54;-8,24;2,58;1,88;2,58;1,88;0;0;
35184;-21,9;-6,69;-21,9;-6,69;2,53;1,95;2,53;1,95;0;0;
35202;-16,61;-11,47;-16,61;-11,47;2,56;1,93;2,56;1,93;0;0;
35217;-12,62;-6,55;-12,62;-6,55;2,2;1,74;2,2;1,74;0;0;
35235;-17,23;-8,56;-17,23;-8,56;2,2;1,83;2,2;1,83;0;0;
35249;-17,23;-8,56;-17,23;-8,56;2,23;1,97;2,23;1,97;0;0;
35264;-13,07;-10,58;-13,07;-10,58;2,28;1,92;2,28;1,92;0;0;
35282;-19,81;-11,33;-19,81;-11,33;2,06;1,87;2,06;1,87;0;0;
35298;-0,01;-5,93;-0,01;-5,93;2,61;1,93;2,61;1,93;0;0;
35313;-37,41;-7,24;-37,41;-7,24;11,87;1,7;11,87;1,7;0;0;
35330;-37,41;-7,24;-37,41;-7,24;21,08;1,62;21,08;1,62;0;0;
35349;-77,59;-4,53;-77,59;-4,53;39,96;1,67;39,96;1,67;0;0;
35366;-103,28;-7,67;-103,28;-7,67;49,43;1,62;49,43;1,62;0;0;
35387;-225,1;-4,81;-225,1;-4,81;63,14;1,7;63,14;1,7;0;0;
35404;-55,38;-6,72;-55,38;-6,72;86,73;1,68;86,73;1,68;0;0;
35420;-113,75;-7,18;-113,75;-7,18;98,49;1,58;98,49;1,58;0;0;
35437;216,01;-8,25;216,01;-8,25;114,76;1,63;114,76;1,63;0;0;
35452;-148,19;-5,58;-148,19;-5,58;125,26;1,55;125,26;1,55;1;0;
35470;-148,19;-5,58;-148,19;-5,58;143,68;1,52;143,68;1,52;1;0;
35487;-42,45;-4,86;-42,45;-4,86;138,14;1,38;138,14;1,38;1;0;
35503;-184,3;-4,57;-184,3;-4,57;144,86;1,46;144,86;1,46;1;0;
35519;199,98;-9,38;199,98;-9,38;146,63;1,56;146,63;1,56;1;0;
35536;104,9;-6,17;104,9;-6,17;155,92;1,59;155,92;1,59;1;0;
35550;104,9;-6,17;104,9;-6,17;158,23;1,63;158,23;1,63;1;0;
35566;-3,72;-7,78;-3,72;-7,78;137,1;1,8;137,1;1,8;1;0;
35584;-25,9;-11,26;-25,9;-11,26;124,17;1,77;124,17;1,77;1;0;
35600;-21,19;-7,67;-21,19;-7,67;89,64;1,65;89,64;1,65;1;0;
35616;-15,69;-9,57;-15,69;-9,57;54,94;1,74;54,94;1,74;1;0;
35632;-11,07;-7,54;-11,07;-7,54;24,41;1,86;24,41;1,86;1;0;
35647;-11,07;-7,54;-11,07;-7,54;5,2;1,9;5,2;1,9;1;0;
35662;-13,79;-6,74;-13,79;-6,74;3,74;2;3,74;2;1;0;
