Time;EMG1;EMG2;EMG3;EMG4;EMG1_F;EMG2_F;EMG3_F;EMG4_F;Note_R;Note_V;;Level 1;Joueur;Score;Notes hit;% Reussite R;Offset EMG1;Onset EMG1;% Reussite V;Offset EMG2;Onset EMG2
7;0;0;0;0;0;0;0;20,01;0;0;;;1;0;0;0;1023;0,65;0;0;233,0344
19;0;0;0;0;0;0;0;17,34;0;0;;;2;0;0;0;0;0,65;0;0;0,65
29;0;0;0;0;0;0;0;14,66;0;0;
37;0;0;0;0;0;0;0;12,94;0;0;
46;0;0;0;0;0;0;0;11,29;0;0;
53;0;0;0;0;0;0;0;9,64;0;0;
61;0;0;0;0;0;0;0;8,04;0;0;
68;0;0;0;0;0;0;0;7,09;0;0;
79;0;0;0;0;0;0;0;6,14;0;0;
89;0;0;0;0;0;0;0;5,19;0;0;
97;0;0;0;0;0;0;0;4,64;0;0;
105;0;0;0;0;0;0;0;3,92;0;0;
112;0;0;0;0;0;0;0;3,2;0;0;
123;0;0;0;0;0;0;0;2,88;0;0;
132;0;0;0;0;0;0;0;2,68;0;0;
140;0;0;0;0;0;0;0;2,48;0;0;
147;0;0;0;0;0;0;0;2,8;0;0;
155;0;0;0;0;0;0;0;3,12;0;0;
165;0;0;0;0;0;0;0;3,44;0;0;
172;0;0;0;0;0;0;0;3,91;0;0;
185;0;0;0;0;0;0;0;4,39;0;0;
194;0;0;0;0;0;0;0;5,06;0;0;
202;0;0;0;0;0;0;0;5,73;0;0;
210;0;0;0;0;0;0;0;6,2;0;0;
217;0;0;0;0;0;0;0;6,6;0;0;
226;0;0;0;0;0;0;0;7;0;0;
233;0;0;0;0;0;0;0;7,05;0;0;
241;0;0;0;0;0;0;0;7,1;0;0;
249;0;0;0;0;0;0;0;7,15;0;0;
259;0;0;0;0;0;0;0;7;0;0;
266;0;0;0;0;0;0;0;6,85;0;0;
276;0;0;0;0;0;0;0;6,9;0;0;
284;0;0;0;0;0;0;0;6,95;0;0;
295;0;0;0;0;0;0;0;7;0;0;
302;0;0;0;0;0;0;0;7,28;0;0;
311;0;0;0;0;0;0;0;7,56;0;0;
319;0;0;0;0;0;0;0;7,21;0;0;
327;0;0;0;0;0;0;0;6,86;0;0;
337;0;0;0;0;0;0;0;6,66;0;0;
344;0;0;0;0;0;0;0;6,21;0;0;
353;0;0;0;0;0;0;0;5,76;0;0;
360;0;0;0;0;0;0;0;5,86;0;0;
368;0;0;0;0;0;0;0;5,96;0;0;
378;0;0;0;0;0;0;0;6,26;0;0;
386;0;0;0;0;0;0;0;13,71;0;0;
393;0;0;0;0;0;0;0;21,16;0;0;
402;0;0;0;0;0;0;0;31,96;0;0;
411;0;0;0;0;0;0;0;42,76;0;0;
419;0;0;0;0;0;0;0;53,56;0;0;
426;0;0;0;0;0;0;0;65,76;0;0;
435;0;0;0;0;0;0;0;77,96;0;0;
443;0;0;0;0;0;0;0;88,68;0;0;
450;0;0;0;0;0;0;0;99,4;0;0;
458;0;0;0;0;0;0;0;110,12;0;0;
468;0;0;0;0;0;0;0;117,24;0;0;
478;0;0;0;0;0;0;0;124,36;0;0;
486;0;0;0;0;0;0;0;132,56;0;0;
498;0;0;0;0;0;0;0;140,76;0;0;
507;0;0;0;0;0;0;0;148,81;0;0;
514;0;0;0;0;0;0;0;156,31;0;0;
521;0;0;0;0;0;0;0;163,81;0;0;
530;0;0;0;0;0;0;0;171,31;0;0;
539;0;0;0;0;0;0;0;178,81;0;0;
548;0;0;0;0;0;0;0;186,31;0;0;
556;0;0;0;0;0;0;0;188,96;0;0;
564;0;0;0;0;0;0;0;191,61;0;0;
572;0;0;0;0;0;0;0;190,46;0;0;
580;0;0;0;0;0;0;0;189,31;0;0;
588;0;0;0;0;0;0;0;188,16;0;0;
596;0;0;0;0;0;0;0;184,46;0;0;
605;0;0;0;0;0;0;0;180,76;0;0;
614;0;0;0;0;0;0;0;176,26;0;0;
622;0;0;0;0;0;0;0;171,76;0;0;
631;0;0;0;0;0;0;0;167,26;0;0;
640;0;0;0;0;0;0;0;163,81;0;0;
647;0;0;0;0;0;0;0;160,36;0;0;
657;0;0;0;0;0;0;0;156,16;0;0;
665;0;0;0;0;0;0;0;150,51;0;0;
673;0;0;0;0;0;0;0;144,86;0;0;
681;0;0;0;0;0;0;0;139,06;0;0;
690;0;0;0;0;0;0;0;133,26;0;0;
701;0;0;0;0;0;0;0;126,61;0;0;
709;0;0;0;0;0;0;0;119,96;0;0;
717;0;0;0;0;0;0;0;113,31;0;0;
726;0;0;0;0;0;0;0;103,91;0;0;
735;0;0;0;0;0;0;0;94,51;0;0;
743;0;0;0;0;0;0;0;85,31;0;0;
749;0;0;0;0;0;0;0;76,11;0;0;
760;0;0;0;0;0;0;0;66,91;0;0;
770;0;0;0;0;0;0;0;58,76;0;0;
780;0;0;0;0;0;0;0;50,61;0;0;
788;0;0;0;0;0;0;0;44,86;0;0;
796;0;0;0;0;0;0;0;39,11;0;0;
806;0;0;0;0;0;0;0;33,36;0;0;
815;0;0;0;0;0;0;0;30,06;0;0;
824;0;0;0;0;0;0;0;26,76;0;0;
831;0;0;0;0;0;0;0;23,51;0;0;
839;0;0;0;0;0;0;0;21,71;0;0;
849;0;0;0;0;0;0;0;19,76;0;0;
857;0;0;0;0;0;0;0;18,51;0;0;
868;0;0;0;0;0;0;0;17,26;0;0;
876;0;0;0;0;0;0;0;15,96;0;0;
883;0;0;0;0;0;0;0;14,66;0;0;
891;0;0;0;0;0;0;0;13,11;0;0;
901;0;0;0;0;0;0;0;12,01;0;0;
910;0;0;0;0;0;0;0;10,91;0;0;
919;0;0;0;0;0;0;0;10,29;0;0;
927;0;0;0;0;0;0;0;9,67;0;0;
934;0;0;0;0;0;0;0;9,25;0;0;
942;0;0;0;0;0;0;0;9,13;0;0;
952;0;0;0;0;0;0;0;9,01;0;0;
960;0;0;0;0;0;0;0;8,94;0;0;
968;0;0;0;0;0;0;0;8,86;0;0;
977;0;0;0;0;0;0;0;8,84;0;0;
986;0;0;0;0;0;0;0;8,57;0;0;
996;0;0;0;0;0;0;0;8,3;0;0;
1004;0;0;0;0;0;0;0;7,78;0;0;
1011;0;0;0;0;0;0;0;7,26;0;0;
1022;0;0;0;0;0;0;0;6,64;0;0;
1034;0;0;0;0;0;0;0;6,01;0;0;
1046;0;0;0;0;0;0;0;5,41;0;0;
1053;0;0;0;0;0;0;0;5,11;0;0;
1061;0;0;0;0;0;0;0;4,74;0;0;
1069;0;0;0;0;0;0;0;4,62;0;0;
1079;0;0;0;0;0;0;0;4,5;0;0;
1087;0;0;0;0;0;0;0;4,58;0;0;
1095;0;0;0;0;0;0;0;4,73;0;0;
1106;0;0;0;0;0;0;0;4,7;0;0;
1115;0;0;0;0;0;0;0;4,47;0;0;
1124;0;0;0;0;0;0;0;4,24;0;0;
1131;0;0;0;0;0;0;0;4,36;0;0;
1139;0;0;0;0;0;0;0;4,29;0;0;
1148;0;0;0;0;0;0;0;4,46;0;0;
1156;0;0;0;0;0;0;0;4,58;0;0;
1165;0;0;0;0;0;0;0;4,7;0;0;
1173;0;0;0;0;0;0;0;4,77;0;0;
1185;0;0;0;0;0;0;0;5,04;0;0;
1193;0;0;0;0;0;0;0;5,16;0;0;
1200;0;0;0;0;0;0;0;5,54;0;0;
1211;0;0;0;0;0;0;0;5,91;0;0;
1218;0;0;0;0;0;0;0;6,01;0;0;
1227;0;0;0;0;0;0;0;6,11;0;0;
1235;0;0;0;0;0;0;0;6,13;0;0;
1243;0;0;0;0;0;0;0;6,15;0;0;
1251;0;0;0;0;0;0;0;6,17;0;0;
1259;0;0;0;0;0;0;0;6,07;0;0;
1267;0;0;0;0;0;0;0;5,97;0;0;
1276;0;0;0;0;0;0;0;6,15;0;0;
1284;0;0;0;0;0;0;0;6,33;0;0;
1291;0;0;0;0;0;0;0;6,51;0;0;
1300;0;0;0;0;0;0;0;6,49;0;0;
1310;0;0;0;0;0;0;0;6,46;0;0;
1319;0;0;0;0;0;0;0;5,99;0;0;
1329;0;0;0;0;0;0;0;5,52;0;0;
1337;0;0;0;0;0;0;0;5,07;0;0;
1345;0;0;0;0;0;0;0;4,67;0;0;
1355;0;0;0;0;0;0;0;4,27;0;0;
1362;0;0;0;0;0;0;0;4,32;0;0;
1369;0;0;0;0;0;0;0;4,37;0;0;
1377;0;0;0;0;0;0;0;4,42;0;0;
1385;0;0;0;0;0;0;0;4,67;0;0;
1393;0;0;0;0;0;0;0;4,92;0;0;
1401;0;0;0;0;0;0;0;5,32;0;0;
1409;0;0;0;0;0;0;0;5,52;0;0;
1417;0;0;0;0;0;0;0;5,72;0;0;
1425;0;0;0;0;0;0;0;5,89;0;0;
1433;0;0;0;0;0;0;0;6,06;0;0;
1442;0;0;0;0;0;0;0;6,14;0;0;
1450;0;0;0;0;0;0;0;6,56;0;0;
1460;0;0;0;0;0;0;0;6,98;0;0;
1468;0;0;0;0;0;0;0;7,6;0;0;
1476;0;0;0;0;0;0;0;8,22;0;0;
1486;0;0;0;0;0;0;0;9,04;0;0;
1496;0;0;0;0;0;0;0;9,86;0;0;
1505;0;0;0;0;0;0;0;10,66;0;0;
1515;0;0;0;0;0;0;0;11,26;0;0;
1522;0;0;0;0;0;0;0;11,86;0;0;
1537;0;0;0;0;0;0;0;11,86;0;0;
1550;0;0;0;0;0;0;0;11,86;0;0;
1558;0;0;0;0;0;0;0;11,61;0;0;
1566;0;0;0;0;0;0;0;11,41;0;0;
1573;0;0;0;0;0;0;0;11,01;0;0;
1582;0;0;0;0;0;0;0;10,61;0;0;
1591;0;0;0;0;0;0;0;10,41;0;0;
1600;0;0;0;0;0;0;0;10,34;0;0;
1608;0;0;0;0;0;0;0;10,22;0;0;
1617;0;0;0;0;0;0;0;10,25;0;0;
1626;0;0;0;0;0;0;0;10,28;0;0;
1635;0;0;0;0;0;0;0;9,96;0;0;
1644;0;0;0;0;0;0;0;9,59;0;0;
1651;0;0;0;0;0;0;0;8,86;0;0;
1664;0;0;0;0;0;0;0;7,91;0;0;
1679;0;0;0;0;0;0;0;6,96;0;0;
1690;0;0;0;0;0;0;0;6,31;0;0;
1698;0;0;0;0;0;0;0;5,66;0;0;
1706;0;0;0;0;0;0;0;5,26;0;0;
1714;0;0;0;0;0;0;0;4,86;0;0;
1721;0;0;0;0;0;0;0;4,51;0;0;
1728;0;0;0;0;0;0;0;4,16;0;0;
1738;0;0;0;0;0;0;0;4,06;0;0;
1746;0;0;0;0;0;0;0;3,96;0;0;
1753;0;0;0;0;0;0;0;4,06;0;0;
1762;0;0;0;0;0;0;0;4,16;0;0;
1769;0;0;0;0;0;0;0;4,51;0;0;
1780;0;0;0;0;0;0;0;4,74;0;0;
1791;0;0;0;0;0;0;0;5,31;0;0;
1799;0;0;0;0;0;0;0;5,73;0;0;
1807;0;0;0;0;0;0;0;6,35;0;0;
1815;0;0;0;0;0;0;0;6,97;0;0;
1825;0;0;0;0;0;0;0;7,64;0;0;
1832;0;0;0;0;0;0;0;8,21;0;0;
1841;0;0;0;0;0;0;0;9,01;0;0;
1851;0;0;0;0;0;0;0;9,61;0;0;
1859;0;0;0;0;0;0;0;9,91;0;0;
1868;0;0;0;0;0;0;0;10,21;0;0;
1877;0;0;0;0;0;0;0;10,16;0;0;
1886;0;0;0;0;0;0;0;10,11;0;0;
1895;0;0;0;0;0;0;0;10,11;0;0;
1906;0;0;0;0;0;0;0;10,11;0;0;
1913;0;0;0;0;0;0;0;9,99;0;0;
1922;0;0;0;0;0;0;0;9,87;0;0;
1931;0;0;0;0;0;0;0;9,75;0;0;
1940;0;0;0;0;0;0;0;9,83;0;0;
1948;0;0;0;0;0;0;0;9,66;0;0;
1956;0;0;0;0;0;0;0;9,54;0;0;
1965;0;0;0;0;0;0;0;9,06;0;0;
1977;0;0;0;0;0;0;0;8,59;0;0;
1985;0;0;0;0;0;0;0;7,72;0;0;
1993;0;0;0;0;0;0;0;6,85;0;0;
2001;0;0;0;0;0;0;0;6,15;0;0;
2013;0;0;0;0;0;0;0;5,55;0;0;
2023;0;0;0;0;0;0;0;5,1;0;0;
2031;0;0;0;0;0;0;0;4,85;0;0;
2040;0;0;0;0;0;0;0;4,6;0;0;
2049;0;0;0;0;0;0;0;4,15;0;0;
2063;0;0;0;0;0;0;0;4;0;0;
2073;0;0;0;0;0;0;0;3,75;0;0;
2080;0;0;0;0;0;0;0;3,7;0;0;
2087;0;0;0;0;0;0;0;3,9;0;0;
2096;0;0;0;0;0;0;0;4,22;0;0;
2105;0;0;0;0;0;0;0;4,89;0;0;
2112;0;0;0;0;0;0;0;5,56;0;0;
2121;0;0;0;0;0;0;0;6,04;0;0;
2130;0;0;0;0;0;0;0;6,76;0;0;
2139;0;0;0;0;0;0;0;7,43;0;0;
2148;0;0;0;0;0;0;0;8;0;0;
2156;0;0;0;0;0;0;0;8,57;0;0;
2166;0;0;0;0;0;0;0;9,34;0;0;
2178;0;0;0;0;0;0;0;9,91;0;0;
2187;0;0;0;0;0;0;0;10,31;0;0;
2196;0;0;0;0;0;0;0;10,51;0;0;
2205;0;0;0;0;0;0;0;10,56;0;0;
2211;0;0;0;0;0;0;0;10,31;0;0;
2220;0;0;0;0;0;0;0;10,06;0;0;
2231;0;0;0;0;0;0;0;10,01;0;0;
2239;0;0;0;0;0;0;0;9,89;0;0;
2247;0;0;0;0;0;0;0;9,87;0;0;
2254;0;0;0;0;0;0;0;10;0;0;
2261;0;0;0;0;0;0;0;9,88;0;0;
2270;0;0;0;0;0;0;0;9,76;0;0;
2281;0;0;0;0;0;0;0;9,44;0;0;
2293;0;0;0;0;0;0;0;9,11;0;0;
2301;0;0;0;0;0;0;0;8,64;0;0;
2312;0;0;0;0;0;0;0;7,92;0;0;
2319;0;0;0;0;0;0;0;7,02;0;0;
2328;0;0;0;0;0;0;0;6,22;0;0;
2339;0;0;0;0;0;0;0;5,42;0;0;
2347;0;0;0;0;0;0;0;4,87;0;0;
2357;0;0;0;0;0;0;0;4,52;0;0;
2365;0;0;0;0;0;0;0;4,12;0;0;
2373;0;0;0;0;0;0;0;3,92;0;0;
2381;0;0;0;0;0;0;0;3,52;0;0;
2390;0;0;0;0;0;0;0;3,42;0;0;
2399;0;0;0;0;0;0;0;3,32;0;0;
2407;0;0;0;0;0;0;0;3,37;0;0;
2415;0;0;0;0;0;0;0;3,49;0;0;
2425;0;0;0;0;0;0;0;3,91;0;0;
2432;0;0;0;0;0;0;0;4,19;0;0;
2441;0;0;0;0;0;0;0;4,46;0;0;
2449;0;0;0;0;0;0;0;5,03;0;0;
2458;0;0;0;0;0;0;0;5,45;0;0;
2466;0;0;0;0;0;0;0;5,87;0;0;
2475;0;0;0;0;0;0;0;6,44;0;0;
2486;0;0;0;0;0;0;0;7,01;0;0;
2494;0;0;0;0;0;0;0;7,61;0;0;
2503;0;0;0;0;0;0;0;8,21;0;0;
2511;0;0;0;0;0;0;0;8,56;0;0;
2520;0;0;0;0;0;0;0;8,66;0;0;
2529;0;0;0;0;0;0;0;8,76;0;0;
2540;0;0;0;0;0;0;0;8,71;0;0;
2549;0;0;0;0;0;0;0;8,66;0;0;
2557;0;0;0;0;0;0;0;8,64;0;0;
2566;0;0;0;0;0;0;0;8,62;0;0;
2580;0;0;0;0;0;0;0;8,8;0;0;
2590;0;0;0;0;0;0;0;8,83;0;0;
2601;0;0;0;0;0;0;0;9,01;0;0;
2608;0;0;0;0;0;0;0;8,89;0;0;
2615;0;0;0;0;0;0;0;8,71;0;0;
2624;0;0;0;0;0;0;0;8,54;0;0;
2633;0;0;0;0;0;0;0;8,07;0;0;
2641;0;0;0;0;0;0;0;7,35;0;0;
2648;0;0;0;0;0;0;0;6,63;0;0;
2656;0;0;0;0;0;0;0;5,91;0;0;
2665;0;0;0;0;0;0;0;5,41;0;0;
2672;0;0;0;0;0;0;0;5,06;0;0;
2680;0;0;0;0;0;0;0;4,71;0;0;
2688;0;0;0;0;0;0;0;4,61;0;0;
2698;0;0;0;0;0;0;0;4,51;0;0;
2705;0;0;0;0;0;0;0;4,21;0;0;
2713;0;0;0;0;0;0;0;4,11;0;0;
2722;0;0;0;0;0;0;0;4,01;0;0;
2733;0;0;0;0;0;0;0;4,08;0;0;
2745;0;0;0;0;0;0;0;4,15;0;0;
2754;0;0;0;0;0;0;0;4,32;0;0;
2763;0;0;0;0;0;0;0;4,49;0;0;
2771;0;0;0;0;0;0;0;4,86;0;0;
2780;0;0;0;0;0;0;0;5,24;0;0;
2787;0;0;0;0;0;0;0;5,76;0;0;
2795;0;0;0;0;0;0;0;6,28;0;0;
2807;0;0;0;0;0;0;0;6,8;0;0;
2816;0;0;0;0;0;0;0;7,42;0;0;
2825;0;0;0;0;0;0;0;8,04;0;0;
2832;0;0;0;0;0;0;0;8,46;0;0;
2840;0;0;0;0;0;0;0;8,66;0;0;
2850;0;0;0;0;0;0;0;8,86;0;0;
2858;0;0;0;0;0;0;0;8,86;0;0;
2868;0;0;0;0;0;0;0;8,86;0;0;
2880;0;0;0;0;0;0;0;8,71;0;0;
2889;0;0;0;0;0;0;0;8,76;0;0;
2898;0;0;0;0;0;0;0;8,69;0;0;
2906;0;0;0;0;0;0;0;8,62;0;0;
2913;0;0;0;0;0;0;0;8,75;0;0;
2921;0;0;0;0;0;0;0;8,88;0;0;
2932;0;0;0;0;0;0;0;8,71;0;0;
2940;0;0;0;0;0;0;0;8,54;0;0;
2949;0;0;0;0;0;0;0;8,01;0;0;
2957;0;0;0;0;0;0;0;7,29;0;0;
2967;0;0;0;0;0;0;0;6,47;0;0;
2976;0;0;0;0;0;0;0;5,65;0;0;
2983;0;0;0;0;0;0;0;5,05;0;0;
2991;0;0;0;0;0;0;0;4,6;0;0;
3001;0;0;0;0;0;0;0;4,3;0;0;
3009;0;0;0;0;0;0;0;4,2;0;0;
3018;0;0;0;0;0;0;0;4,1;0;0;
3026;0;0;0;0;0;0;0;3,9;0;0;
3034;0;0;0;0;0;0;0;3,9;0;0;
3042;0;0;0;0;0;0;0;4;0;0;
3049;0;0;0;0;0;0;0;4,25;0;0;
3058;0;0;0;0;0;0;0;4,5;0;0;
3065;0;0;0;0;0;0;0;5,07;0;0;
3073;0;0;0;0;0;0;0;5,64;0;0;
3083;0;0;0;0;0;0;0;6,01;0;0;
3092;0;0;0;0;0;0;0;8,34;0;0;
3106;0;0;0;0;0;0;0;10,66;0;0;
3115;0;0;0;0;0;0;0;15,73;0;0;
3127;0;0;0;0;0;0;0;20,8;0;0;
3134;0;0;0;0;0;0;0;23,47;0;0;
3147;0;0;0;0;0;0;0;26,14;0;0;
3167;0;0;0;0;0;0;0;32,11;0;0;
3174;0;0;0;0;0;0;0;37,86;0;0;
3187;0;0;0;0;0;0;0;45,76;0;0;
3195;0;0;0;0;0;0;0;53,51;0;0;
3201;0;0;0;0;0;0;0;62,81;0;0;
3209;0;0;0;0;0;0;0;72,11;0;0;
3216;0;0;0;0;0;0;0;79,21;0;0;
3223;0;0;0;0;0;0;0;86,31;0;0;
3230;0;0;0;0;0;0;0;93,31;0;0;
3237;0;0;0;0;0;0;0;97,66;0;0;
3245;0;0;0;0;0;0;0;102,01;0;0;
3252;0;0;0;0;0;0;0;106,16;0;0;
3259;0;0;0;0;0;0;0;109,26;0;0;
3265;0;0;0;0;0;0;0;112,36;0;0;
3275;0;0;0;0;0;0;0;113,51;0;0;
3286;0;0;0;0;0;0;0;113,66;0;0;
3297;0;0;0;0;0;0;0;111,06;0;0;
3305;0;0;0;0;0;0;0;107,91;0;0;
3312;0;0;0;0;0;0;0;107,36;0;0;
3318;0;0;0;0;0;0;0;106,46;0;0;
3327;0;0;0;0;0;0;0;102,26;0;0;
3336;0;0;0;0;0;0;0;98,06;0;0;
3343;0;0;0;0;0;0;0;91,21;0;0;
3349;0;0;0;0;0;0;0;84,36;0;0;
3360;0;0;0;0;0;0;0;75,96;0;0;
3366;0;0;0;0;0;0;0;67,11;0;0;
3372;0;0;0;0;0;0;0;60,56;0;0;
3379;0;0;0;0;0;0;0;54,01;0;0;
3385;0;0;0;0;0;0;0;47,46;0;0;
3390;0;0;0;0;0;0;0;43,56;0;0;
3398;0;0;0;0;0;0;0;39,66;0;0;
3404;0;0;0;0;0;0;0;36,01;0;0;
3411;0;0;0;0;0;0;0;33,41;0;0;
3418;0;0;0;0;0;0;0;30,81;0;0;
3423;0;0;0;0;0;0;0;28,36;0;0;
3428;0;0;0;0;0;0;0;26,91;0;0;
3435;0;0;0;0;0;0;0;25,46;0;0;
3442;0;0;0;0;0;0;0;24,56;0;0;
3448;0;0;0;0;0;0;0;23,51;0;0;
3453;0;0;0;0;0;0;0;22,81;0;0;
3460;0;0;0;0;0;0;0;22,11;0;0;
3466;0;0;0;0;0;0;0;21,11;0;0;
3471;0;0;0;0;0;0;0;20,61;0;0;
3479;0;0;0;0;0;0;0;20,11;0;0;
3487;0;0;0;0;0;0;0;19,61;0;0;
3494;0;0;0;0;0;0;0;19,26;0;0;
3502;0;0;0;0;0;0;0;18,91;0;0;
3511;0;0;0;0;0;0;0;18,41;0;0;
3519;0;0;0;0;0;0;0;17,91;1;0;
3529;0;0;0;0;0;0;0;17,41;1;0;
3536;0;0;0;0;0;0;0;16,76;1;0;
3549;0;0;0;0;0;0;0;15,86;1;0;
3557;0;0;0;0;0;0;0;14,89;1;0;
3567;0;0;0;0;0;0;0;13,92;1;0;
3576;0;0;0;0;0;0;0;14,27;1;0;
3583;0;0;0;0;0;0;0;14,62;1;0;
3591;0;0;0;0;0;0;0;14,97;1;0;
3599;0;0;0;0;0;0;0;18,97;1;0;
3606;0;0;0;0;0;0;0;23,12;1;0;
3616;0;0;0;0;0;0;0;27,27;1;0;
3629;0;0;0;0;0;0;0;33,12;1;0;
3635;0;0;0;0;0;0;0;39,27;1;0;
3642;0;0;0;0;0;0;0;44,62;1;0;
3648;0;0;0;0;0;0;0;49,97;1;0;
3658;0;0;0;0;0;0;0;55,32;1;0;
3666;0;0;0;0;0;0;0;62,07;1;0;
3676;0;0;0;0;0;0;0;68,82;1;0;
3683;0;0;0;0;0;0;0;75,87;1;0;
3691;0;0;0;0;0;0;0;82,92;1;0;
3700;0;0;0;0;0;0;0;89,97;1;0;
3708;0;0;0;0;0;0;0;96,42;1;0;
3716;0;0;0;0;0;0;0;102,87;1;0;
3724;0;0;0;0;0;0;0;110,44;1;0;
3731;0;0;0;0;0;0;0;118,01;1;0;
3739;0;0;0;0;0;0;0;124,11;1;0;
3748;0;0;0;0;0;0;0;130,91;1;0;
3755;0;0;0;0;0;0;0;137,71;1;0;
3764;0;0;0;0;0;0;0;140,86;1;0;
3773;0;0;0;0;0;0;0;142,81;1;0;
3782;0;0;0;0;0;0;0;144,76;1;0;
3789;0;0;0;0;0;0;0;142,86;1;0;
3797;0;0;0;0;0;0;0;140,96;1;0;
3807;0;0;0;0;0;0;0;139,86;1;0;
3816;0;0;0;0;0;0;0;137,26;1;0;
3825;0;0;0;0;0;0;0;134,66;1;0;
3832;0;0;0;0;0;0;0;129,66;1;0;
3840;0;0;0;0;0;0;0;124,66;1;0;
3848;0;0;0;0;0;0;0;119,51;1;0;
3856;0;0;0;0;0;0;0;113,56;0;0;
3864;0;0;0;0;0;0;0;107,61;0;0;
3872;0;0;0;0;0;0;0;101,91;0;0;
3881;0;0;0;0;0;0;0;96,21;0;0;
3890;0;0;0;0;0;0;0;89,46;0;0;
3899;0;0;0;0;0;0;0;82,26;0;0;
3906;0;0;0;0;0;0;0;75,06;0;0;
3918;0;0;0;0;0;0;0;66,96;0;0;
3925;0;0;0;0;0;0;0;58,86;0;0;
3936;0;0;0;0;0;0;0;50,76;0;0;
3944;0;0;0;0;0;0;0;43,96;0;0;
3952;0;0;0;0;0;0;0;37,16;0;0;
3960;0;0;0;0;0;0;0;32,76;0;0;
3967;0;0;0;0;0;0;0;28,36;0;0;
3980;0;0;0;0;0;0;0;23,96;0;0;
3988;0;0;0;0;0;0;0;20,96;0;0;
3997;0;0;0;0;0;0;0;17,96;0;0;
4005;0;0;0;0;0;0;0;16,06;0;0;
4013;0;0;0;0;0;0;0;14,16;0;0;
4021;0;0;0;0;0;0;0;12,16;0;0;
4030;0;0;0;0;0;0;0;10,96;0;0;
4041;0;0;0;0;0;0;0;9,76;0;0;
4050;0;0;0;0;0;0;0;9,31;0;0;
4059;0;0;0;0;0;0;0;8,86;0;0;
4067;0;0;0;0;0;0;0;8,81;0;0;
4075;0;0;0;0;0;0;0;9,21;0;0;
4083;0;0;0;0;0;0;0;9,61;0;0;
4092;0;0;0;0;0;0;0;10,36;0;0;
4101;0;0;0;0;0;0;0;11,11;0;0;
4110;0;0;0;0;0;0;0;11,71;0;0;
4125;0;0;0;0;0;0;0;12,21;0;0;
4136;0;0;0;0;0;0;0;12,46;0;0;
4149;0;0;0;0;0;0;0;12,46;0;0;
4155;0;0;0;0;0;0;0;12,21;0;0;
4162;0;0;0;0;0;0;0;11,96;0;0;
4169;0;0;0;0;0;0;0;11,61;0;0;
4178;0;0;0;0;0;0;0;11,26;0;0;
4187;0;0;0;0;0;0;0;11,11;0;0;
4197;0;0;0;0;0;0;0;10,79;0;0;
4204;0;0;0;0;0;0;0;10,57;0;0;
4212;0;0;0;0;0;0;0;10,65;0;0;
4220;0;0;0;0;0;0;0;10,73;0;0;
4229;0;0;0;0;0;0;0;10,56;0;0;
4236;0;0;0;0;0;0;0;10,59;0;0;
4243;0;0;0;0;0;0;0;10,21;0;0;
4252;0;0;0;0;0;0;0;9,84;0;0;
4263;0;0;0;0;0;0;0;9,22;0;0;
4270;0;0;0;0;0;0;0;8,45;0;0;
4279;0;0;0;0;0;0;0;8,8;0;0;
4286;0;0;0;0;0;0;0;9,3;0;0;
4295;0;0;0;0;0;0;0;9,8;0;0;
4303;0;0;0;0;0;0;0;13,4;0;0;
4310;0;0;0;0;0;0;0;17;0;0;
4318;0;0;0;0;0;0;0;20,85;0;0;
4326;0;0;0;0;0;0;0;26,45;0;0;
4333;0;0;0;0;0;0;0;32,25;0;0;
4341;0;0;0;0;0;0;0;38,05;0;0;
4348;0;0;0;0;0;0;0;43,4;0;0;
4356;0;0;0;0;0;0;0;48,92;0;0;
4365;0;0;0;0;0;0;0;53,49;0;0;
4373;0;0;0;0;0;0;0;57,76;0;0;
4382;0;0;0;0;0;0;0;62,04;0;0;
4390;0;0;0;0;0;0;0;67,91;0;0;
4397;0;0;0;0;0;0;0;73,58;0;0;
4405;0;0;0;0;0;0;0;77,9;0;0;
4413;0;0;0;0;0;0;0;82,22;0;0;
4423;0;0;0;0;0;0;0;86,79;0;0;
4431;0;0;0;0;0;0;0;96,76;0;0;
4439;0;0;0;0;0;0;0;105,61;0;0;
4447;0;0;0;0;0;0;0;119,41;0;0;
4457;0;0;0;0;0;0;0;133,21;0;0;
4465;0;0;0;0;0;0;0;144,16;0;0;
4472;0;0;0;0;0;0;0;151,06;0;0;
4481;0;0;0;0;0;0;0;157,96;0;0;
4489;0;0;0;0;0;0;0;163,11;0;0;
4497;0;0;0;0;0;0;0;166,16;0;0;
4505;0;0;0;0;0;0;0;169,21;0;0;
4514;0;0;0;0;0;0;0;170,36;0;0;
4521;0;0;0;0;0;0;0;171,51;0;0;
4530;0;0;0;0;0;0;0;173,61;0;0;
4537;0;0;0;0;0;0;0;173,11;0;0;
4544;0;0;0;0;0;0;0;172,61;0;0;
4553;0;0;0;0;0;0;0;170,51;0;0;
4561;0;0;0;0;0;0;0;166,91;0;0;
4570;0;0;0;0;0;0;0;164,66;0;0;
4578;0;0;0;0;0;0;0;161,81;0;0;
4588;0;0;0;0;0;0;0;158,96;0;0;
4596;0;0;0;0;0;0;0;150,71;0;0;
4603;0;0;0;0;0;0;0;142,16;0;0;
4610;0;0;0;0;0;0;0;128,66;0;0;
4619;0;0;0;0;0;0;0;114,91;0;0;
4627;0;0;0;0;0;0;0;101,16;0;0;
4636;0;0;0;0;0;0;0;91,46;0;0;
4644;0;0;0;0;0;0;0;81,41;0;0;
4653;0;0;0;0;0;0;0;71,36;0;0;
4665;0;0;0;0;0;0;0;63,01;0;0;
4676;0;0;0;0;0;0;0;54,66;0;0;
4684;0;0;0;0;0;0;0;48,46;0;0;
4691;0;0;0;0;0;0;0;42,26;0;0;
4699;0;0;0;0;0;0;0;36,06;0;0;
4707;0;0;0;0;0;0;0;32,76;0;0;
4715;0;0;0;0;0;0;0;29,46;0;0;
4724;0;0;0;0;0;0;0;26,51;0;0;
4731;0;0;0;0;0;0;0;25,06;0;0;
4741;0;0;0;0;0;0;0;23,61;0;0;
4748;0;0;0;0;0;0;0;22,66;0;0;
4756;0;0;0;0;0;0;0;21,71;0;0;
4766;0;0;0;0;0;0;0;20,76;0;0;
4774;0;0;0;0;0;0;0;19,91;0;0;
4781;0;0;0;0;0;0;0;19,06;0;0;
4792;0;0;0;0;0;0;0;18,11;0;0;
4800;0;0;0;0;0;0;0;17,16;0;0;
4808;0;0;0;0;0;0;0;16,21;0;0;
4816;0;0;0;0;0;0;0;15,46;0;0;
4824;0;0;0;0;0;0;0;14,71;0;0;
4832;0;0;0;0;0;0;0;14,21;0;0;
4839;0;0;0;0;0;0;0;13,71;0;0;
4850;0;0;0;0;0;0;0;13,41;0;0;
4857;0;0;0;0;0;0;0;12,94;0;0;
4865;0;0;0;0;0;0;0;12,47;0;0;
4873;0;0;0;0;0;0;0;11,85;0;0;
4881;0;0;0;0;0;0;0;11,23;0;0;
4891;0;0;0;0;0;0;0;10,26;0;0;
4901;0;0;0;0;0;0;0;9,24;0;0;
4910;0;0;0;0;0;0;0;8,21;0;0;
4919;0;0;0;0;0;0;0;7,51;0;0;
4928;0;0;0;0;0;0;0;6,81;0;0;
4936;0;0;0;0;0;0;0;6,11;0;0;
4945;0;0;0;0;0;0;0;6,06;0;0;
4951;0;0;0;0;0;0;0;6,01;0;0;
4960;0;0;0;0;0;0;0;6,31;0;0;
4967;0;0;0;0;0;0;0;6,61;0;0;
4978;0;0;0;0;0;0;0;6,91;0;0;
4985;0;0;0;0;0;0;0;8,16;0;0;
4995;0;0;0;0;0;0;0;9,41;0;0;
5002;0;0;0;0;0;0;0;11,36;0;0;
5009;0;0;0;0;0;0;0;13,31;0;0;
5019;0;0;0;0;0;0;0;15,26;0;0;
5026;0;0;0;0;0;0;0;19,84;0;0;
5035;0;0;0;0;0;0;0;24,41;0;0;
5045;0;0;0;0;0;0;0;28,78;0;0;
5052;0;0;0;0;0;0;0;33,15;0;0;
5061;0;0;0;0;0;0;0;37,52;0;0;
5069;0;0;0;0;0;0;0;45,49;0;0;
5078;0;0;0;0;0;0;0;53,46;0;0;
5091;0;0;0;0;0;0;0;66,96;0;0;
5100;0;0;0;0;0;0;0;80,46;0;0;
5108;0;0;0;0;0;0;0;93,96;0;0;
5117;0;0;0;0;0;0;0;111,81;0;0;
5125;0;0;0;0;0;0;0;129,66;0;0;
5133;0;0;0;0;0;0;0;149,51;0;0;
5141;0;0;0;0;0;0;0;169,36;0;0;
5149;0;0;0;0;0;0;0;189,21;0;0;
5157;0;0;0;0;0;0;0;211,46;0;0;
5167;0;0;0;0;0;0;0;233,71;0;0;
5181;0;0;0;0;0;0;0;251,61;0;0;
5190;0;0;0;0;0;0;0;269,51;0;0;
5198;0;0;0;0;0;0;0;284,76;0;0;
5205;0;0;0;0;0;0;0;297,56;0;0;
5212;0;0;0;0;0;0;0;310,36;0;0;
5220;0;0;0;0;0;0;0;322,86;0;0;
5227;0;0;0;0;0;0;0;335,36;0;0;
5235;0;0;0;0;0;0;0;347,01;0;0;
5245;0;0;0;0;0;0;0;355,11;0;0;
5253;0;0;0;0;0;0;0;363,21;0;0;
5261;0;0;0;0;0;0;0;363,61;0;0;
5270;0;0;0;0;0;0;0;364,01;0;0;
5278;0;0;0;0;0;0;0;361,71;0;0;
5287;0;0;0;0;0;0;0;354,61;0;0;
5296;0;0;0;0;0;0;0;347,51;0;0;
5305;0;0;0;0;0;0;0;334,91;0;0;
5313;0;0;0;0;0;0;0;322,31;0;0;
5322;0;0;0;0;0;0;0;307,16;0;0;
5329;0;0;0;0;0;0;0;288,81;0;0;
5337;0;0;0;0;0;0;0;270,46;0;0;
5345;0;0;0;0;0;0;0;254,46;0;0;
5353;0;0;0;0;0;0;0;238,46;0;0;
5362;0;0;0;0;0;0;0;225,11;0;0;
5371;0;0;0;0;0;0;0;210,91;0;0;
5380;0;0;0;0;0;0;0;196,71;0;0;
5388;0;0;0;0;0;0;0;182,31;0;0;
5396;0;0;0;0;0;0;0;167,91;0;0;
5406;0;0;0;0;0;0;0;154,36;0;0;
5413;0;0;0;0;0;0;0;140,31;0;0;
5420;0;0;0;0;0;0;0;126,26;0;0;
5430;0;0;0;0;0;0;0;113,51;0;0;
5437;0;0;0;0;0;0;0;100,76;0;0;
5446;0;0;0;0;0;0;0;90,71;0;0;
5452;0;0;0;0;0;0;0;80,06;0;0;
5460;0;0;0;0;0;0;0;69,41;0;0;
5468;0;0;0;0;0;0;0;62,26;0;0;
5477;0;0;0;0;0;0;0;54,66;0;0;
5484;0;0;0;0;0;0;0;49,61;0;0;
5492;0;0;0;0;0;0;0;44,26;0;0;
5501;0;0;0;0;0;0;0;38,91;0;0;
5509;0;0;0;0;0;0;0;35,01;0;0;
5517;0;0;0;0;0;0;0;31,09;0;0;
5525;0;0;0;0;0;0;0;27,17;0;0;
5534;0;0;0;0;0;0;0;24,1;0;0;
5541;0;0;0;0;0;0;0;21,23;0;0;
5548;0;0;0;0;0;0;0;18,91;0;0;
5557;0;0;0;0;0;0;0;16,34;0;0;
5565;0;0;0;0;0;0;0;13,76;0;0;
5573;0;0;0;0;0;0;0;11,69;0;0;
5582;0;0;0;0;0;0;0;9,84;0;0;
5591;0;0;0;0;0;0;0;8,64;0;0;
5599;0;0;0;0;0;0;0;7,64;0;0;
5609;0;0;0;0;0;0;0;6,64;0;0;
5619;0;0;0;0;0;0;0;6,24;0;0;
5632;0;0;0;0;0;0;0;5,69;0;0;
5640;0;0;0;0;0;0;0;5,14;1;0;
5648;0;0;0;0;0;0;0;4,84;1;0;
5656;0;0;0;0;0;0;0;4,54;1;0;
5666;0;0;0;0;0;0;0;4,74;1;0;
5679;0;0;0;0;0;0;0;4,94;1;0;
5686;0;0;0;0;0;0;0;6,04;1;0;
5694;0;0;0;0;0;0;0;7,16;1;0;
5703;0;0;0;0;0;0;0;8,29;1;0;
5710;0;0;0;0;0;0;0;9,66;1;0;
5717;0;0;0;0;0;0;0;10,83;1;0;
5726;0;0;0;0;0;0;0;12,75;1;0;
5735;0;0;0;0;0;0;0;14,92;1;0;
5744;0;0;0;0;0;0;0;17,09;1;0;
5752;0;0;0;0;0;0;0;19,21;1;0;
5759;0;0;0;0;0;0;0;21,11;1;0;
5767;0;0;0;0;0;0;0;23,01;1;0;
5775;0;0;0;0;0;0;0;25,51;1;0;
5782;0;0;0;0;0;0;0;28,01;1;0;
5791;0;0;0;0;0;0;0;31,06;1;0;
5800;0;0;0;0;0;0;0;34,26;1;0;
5808;0;0;0;0;0;0;0;37,46;1;0;
5819;0;0;0;0;0;0;0;44,96;1;0;
5825;0;0;0;0;0;0;0;52,46;1;0;
5833;0;0;0;0;0;0;0;61,01;1;0;
5841;0;0;0;0;0;0;0;69,56;1;0;
5850;0;0;0;0;0;0;0;77,21;1;0;
5858;0;0;0;0;0;0;0;87,16;1;0;
5866;0;0;0;0;0;0;0;97,11;1;0;
5874;0;0;0;0;0;0;0;107,91;1;0;
5884;0;0;0;0;0;0;0;118,71;1;0;
5896;0;0;0;0;0;0;0;128,76;1;0;
5902;0;0;0;0;0;0;0;139,31;1;0;
5911;0;0;0;0;0;0;0;149,86;1;0;
5920;0;0;0;0;0;0;0;161,36;1;0;
5927;0;0;0;0;0;0;0;172,86;1;0;
5937;0;0;0;0;0;0;0;184,36;1;0;
5945;0;0;0;0;0;0;0;193,51;1;0;
5952;0;0;0;0;0;0;0;202,66;1;0;
5960;0;0;0;0;0;0;0;211,16;1;0;
5968;0;0;0;0;0;0;0;219,66;1;0;
5978;0;0;0;0;0;0;0;228,16;0;0;
5985;0;0;0;0;0;0;0;231,61;0;0;
5995;0;0;0;0;0;0;0;235,06;0;0;
6004;0;0;0;0;0;0;0;236,86;0;0;
6010;0;0;0;0;0;0;0;238,66;0;0;
6022;0;0;0;0;0;0;0;240,46;0;0;
6030;0;0;0;0;0;0;0;237,21;0;0;
6038;0;0;0;0;0;0;0;233,96;0;0;
6046;0;0;0;0;0;0;0;226,86;0;0;
6055;0;0;0;0;0;0;0;219,76;0;0;
6068;0;0;0;0;0;0;0;212,66;0;0;
6081;0;0;0;0;0;0;0;203,86;0;0;
6089;0;0;0;0;0;0;0;195,06;0;0;
6096;0;0;0;0;0;0;0;184,06;0;0;
6104;0;0;0;0;0;0;0;173,06;0;0;
6113;0;0;0;0;0;0;0;161,21;0;0;
6120;0;0;0;0;0;0;0;150,91;0;0;
6131;0;0;0;0;0;0;0;140,61;0;0;
6139;0;0;0;0;0;0;0;129,66;0;0;
6147;0;0;0;0;0;0;0;118,71;0;0;
6155;0;0;0;0;0;0;0;107,21;0;0;
6168;0;0;0;0;0;0;0;96,66;0;0;
6181;0;0;0;0;0;0;0;86,11;0;0;
6187;0;0;0;0;0;0;0;75,96;0;0;
6196;0;0;0;0;0;0;0;65,61;0;0;
6206;0;0;0;0;0;0;0;55,26;0;0;
6214;0;0;0;0;0;0;0;47,66;0;0;
6224;0;0;0;0;0;0;0;40,06;0;0;
6231;0;0;0;0;0;0;0;35,21;0;0;
6240;0;0;0;0;0;0;0;30,41;0;0;
6247;0;0;0;0;0;0;0;25,61;0;0;
6257;0;0;0;0;0;0;0;22,01;0;0;
6266;0;0;0;0;0;0;0;18,46;0;0;
6273;0;0;0;0;0;0;0;16,21;0;0;
6281;0;0;0;0;0;0;0;13,71;0;0;
6288;0;0;0;0;0;0;0;12,06;0;0;
6297;0;0;0;0;0;0;0;10,41;0;0;
6305;0;0;0;0;0;0;0;8,91;0;0;
6313;0;0;0;0;0;0;0;8,16;0;0;
6321;0;0;0;0;0;0;0;7,41;0;0;
6329;0;0;0;0;0;0;0;7,36;0;0;
6337;0;0;0;0;0;0;0;7,31;0;0;
6345;0;0;0;0;0;0;0;7,71;0;0;
6355;0;0;0;0;0;0;0;8,11;0;0;
6364;0;0;0;0;0;0;0;8,71;0;0;
6370;0;0;0;0;0;0;0;9,46;0;0;
6381;0;0;0;0;0;0;0;10,21;0;0;
6388;0;0;0;0;0;0;0;10,91;0;0;
6396;0;0;0;0;0;0;0;11,61;0;0;
6404;0;0;0;0;0;0;0;12,26;0;0;
6411;0;0;0;0;0;0;0;12,81;0;0;
6419;0;0;0;0;0;0;0;13,36;0;0;
6430;0;0;0;0;0;0;0;16,61;0;0;
6441;0;0;0;0;0;0;0;19,86;0;0;
6449;0;0;0;0;0;0;0;22,16;0;0;
6457;0;0;0;0;0;0;0;24,46;0;0;
6466;0;0;0;0;0;0;0;26,76;0;0;
6473;0;0;0;0;0;0;0;28,06;0;0;
6481;0;0;0;0;0;0;0;29,36;0;0;
6492;0;0;0;0;0;0;0;30,66;0;0;
6501;0;0;0;0;0;0;0;31,91;0;0;
6510;0;0;0;0;0;0;0;33,16;0;0;
6517;0;0;0;0;0;0;0;37,86;0;0;
6525;0;0;0;0;0;0;0;42,56;0;0;
6535;0;0;0;0;0;0;0;47,26;0;0;
6543;0;0;0;0;0;0;0;54,16;0;0;
6551;0;0;0;0;0;0;0;61,06;0;0;
6558;0;0;0;0;0;0;0;68,16;0;0;
6567;0;0;0;0;0;0;0;75,26;0;0;
6575;0;0;0;0;0;0;0;82,36;0;0;
6583;0;0;0;0;0;0;0;91,36;0;0;
6590;0;0;0;0;0;0;0;100,36;0;0;
6600;0;0;0;0;0;0;0;108,46;0;0;
6608;0;0;0;0;0;0;0;116,56;0;0;
6620;0;0;0;0;0;0;0;125,86;0;0;
6630;0;0;0;0;0;0;0;138,56;0;0;
6641;0;0;0;0;0;0;0;151,26;0;0;
6649;0;0;0;0;0;0;0;163,16;0;0;
6658;0;0;0;0;0;0;0;175,06;0;0;
6672;0;0;0;0;0;0;0;189,11;0;0;
6687;0;0;0;0;0;0;0;203,06;0;0;
6695;0;0;0;0;0;0;0;217,81;0;0;
6703;0;0;0;0;0;0;0;228,66;0;0;
6712;0;0;0;0;0;0;0;238,61;0;0;
6722;0;0;0;0;0;0;0;248,56;0;0;
6729;0;0;0;0;0;0;0;252,91;0;0;
6737;0;0;0;0;0;0;0;257,26;0;0;
6746;0;0;0;0;0;0;0;261,46;0;0;
6753;0;0;0;0;0;0;0;262,41;0;0;
6760;0;0;0;0;0;0;0;263,36;0;0;
6768;0;0;0;0;0;0;0;260,61;0;0;
6777;0;0;0;0;0;0;0;257,86;0;0;
6784;0;0;0;0;0;0;0;253,26;0;0;
6792;0;0;0;0;0;0;0;246,21;0;0;
6800;0;0;0;0;0;0;0;239,16;0;0;
6810;0;0;0;0;0;0;0;228,71;0;0;
6819;0;0;0;0;0;0;0;216,81;0;0;
6827;0;0;0;0;0;0;0;206,56;0;0;
6836;0;0;0;0;0;0;0;195,11;0;0;
6845;0;0;0;0;0;0;0;181,51;0;0;
6854;0;0;0;0;0;0;0;167,41;0;0;
6862;0;0;0;0;0;0;0;152,51;0;0;
6871;0;0;0;0;0;0;0;137,61;0;0;
6879;0;0;0;0;0;0;0;123,06;0;0;
6889;0;0;0;0;0;0;0;108,51;0;0;
6898;0;0;0;0;0;0;0;97,11;0;0;
6906;0;0;0;0;0;0;0;85,71;0;0;
6915;0;0;0;0;0;0;0;74,31;0;0;
6923;0;0;0;0;0;0;0;65,96;0;0;
6932;0;0;0;0;0;0;0;57,61;0;0;
6940;0;0;0;0;0;0;0;50,86;0;0;
6949;0;0;0;0;0;0;0;44,11;0;0;
6960;0;0;0;0;0;0;0;37,36;0;0;
6968;0;0;0;0;0;0;0;33,26;0;0;
6976;0;0;0;0;0;0;0;29,16;0;0;
6984;0;0;0;0;0;0;0;25,56;0;0;
6991;0;0;0;0;0;0;0;23,41;0;0;
7000;0;0;0;0;0;0;0;21,26;0;0;
7009;0;0;0;0;0;0;0;20,51;0;0;
7016;0;0;0;0;0;0;0;19,76;0;0;
7025;0;0;0;0;0;0;0;19,76;0;0;
7032;0;0;0;0;0;0;0;19,76;0;0;
7043;0;0;0;0;0;0;0;19,76;0;0;
7051;0;0;0;0;0;0;0;19,96;0;0;
7059;0;0;0;0;0;0;0;20,16;0;0;
7067;0;0;0;0;0;0;0;19,46;0;0;
7079;0;0;0;0;0;0;0;18,76;0;0;
7090;0;0;0;0;0;0;0;17,84;0;0;
7098;0;0;0;0;0;0;0;17,12;0;0;
7106;0;0;0;0;0;0;0;16,4;0;0;
7113;0;0;0;0;0;0;0;15,98;0;0;
7121;0;0;0;0;0;0;0;15,56;0;0;
7129;0;0;0;0;0;0;0;15,14;0;0;
7136;0;0;0;0;0;0;0;14,89;0;0;
7144;0;0;0;0;0;0;0;14,64;0;0;
7152;0;0;0;0;0;0;0;13,69;0;0;
7159;0;0;0;0;0;0;0;12,74;0;0;
7169;0;0;0;0;0;0;0;11,79;0;0;
7184;0;0;0;0;0;0;0;10,54;0;0;
7191;0;0;0;0;0;0;0;9,29;0;0;
7198;0;0;0;0;0;0;0;8,04;0;0;
7205;0;0;0;0;0;0;0;6,79;0;0;
7215;0;0;0;0;0;0;0;5,54;0;0;
7222;0;0;0;0;0;0;0;5,04;0;0;
7230;0;0;0;0;0;0;0;4,54;0;0;
7238;0;0;0;0;0;0;0;5,34;0;0;
7249;0;0;0;0;0;0;0;6,14;0;0;
7257;0;0;0;0;0;0;0;7,16;0;0;
7265;0;0;0;0;0;0;0;8,48;0;0;
7273;0;0;0;0;0;0;0;9,8;0;0;
7280;0;0;0;0;0;0;0;10,97;0;0;
7288;0;0;0;0;0;0;0;12,14;0;0;
7297;0;0;0;0;0;0;0;13,31;0;0;
7305;0;0;0;0;0;0;0;15,16;0;0;
7312;0;0;0;0;0;0;0;17,01;0;0;
7321;0;0;0;0;0;0;0;19,06;0;0;
7329;0;0;0;0;0;0;0;23,06;0;0;
7337;0;0;0;0;0;0;0;27,06;0;0;
7345;0;0;0;0;0;0;0;35,11;0;0;
7352;0;0;0;0;0;0;0;43,16;0;0;
7361;0;0;0;0;0;0;0;50,96;0;0;
7369;0;0;0;0;0;0;0;64,36;0;0;
7377;0;0;0;0;0;0;0;77,76;0;0;
7386;0;0;0;0;0;0;0;90,76;0;0;
7393;0;0;0;0;0;0;0;104,51;0;0;
7402;0;0;0;0;0;0;0;117,96;0;0;
7409;0;0;0;0;0;0;0;133,16;0;0;
7417;0;0;0;0;0;0;0;148,36;0;0;
7425;0;0;0;0;0;0;0;163,26;0;0;
7432;0;0;0;0;0;0;0;178,16;0;0;
7441;0;0;0;0;0;0;0;193,21;0;0;
7451;0;0;0;0;0;0;0;208,26;0;0;
7461;0;0;0;0;0;0;0;222,61;0;0;
7469;0;0;0;0;0;0;0;235,91;0;0;
7478;0;0;0;0;0;0;0;247,96;0;0;
7485;0;0;0;0;0;0;0;260,01;0;0;
7493;0;0;0;0;0;0;0;265,71;0;0;
7501;0;0;0;0;0;0;0;271,41;0;0;
7512;0;0;0;0;0;0;0;273,16;0;0;
7520;0;0;0;0;0;0;0;273,06;0;0;
7527;0;0;0;0;0;0;0;272,96;0;0;
7537;0;0;0;0;0;0;0;267,66;0;0;
7546;0;0;0;0;0;0;0;262,36;0;0;
7553;0;0;0;0;0;0;0;257,06;0;0;
7561;0;0;0;0;0;0;0;249,76;1;0;
7569;0;0;0;0;0;0;0;242,46;1;0;
7578;0;0;0;0;0;0;0;233,41;1;0;
7586;0;0;0;0;0;0;0;222,31;1;0;
7593;0;0;0;0;0;0;0;211,21;1;0;
7601;0;0;0;0;0;0;0;199,41;1;0;
7610;0;0;0;0;0;0;0;187,61;1;0;
7620;0;0;0;0;0;0;0;175,81;1;0;
7629;0;0;0;0;0;0;0;163,61;1;0;
7638;0;0;0;0;0;0;0;151,41;1;0;
7647;0;0;0;0;0;0;0;140,06;1;0;
7657;0;0;0;0;0;0;0;128,71;1;0;
7666;0;0;0;0;0;0;0;121,21;1;0;
7679;0;0;0;0;0;0;0;113,71;1;0;
7686;0;0;0;0;0;0;0;105,81;1;0;
7693;0;0;0;0;0;0;0;99,76;1;0;
7703;0;0;0;0;0;0;0;93,71;1;0;
7711;0;0;0;0;0;0;0;86,61;1;0;
7718;0;0;0;0;0;0;0;79,51;1;0;
7728;0;0;0;0;0;0;0;71,91;1;0;
7736;0;0;0;0;0;0;0;65,56;1;0;
7745;0;0;0;0;0;0;0;59,21;1;0;
7753;0;0;0;0;0;0;0;52,51;1;0;
7761;0;0;0;0;0;0;0;47,86;1;0;
7771;0;0;0;0;0;0;0;43,01;1;0;
7779;0;0;0;0;0;0;0;38,86;1;0;
7788;0;0;0;0;0;0;0;34,71;1;0;
7798;0;0;0;0;0;0;0;30,36;1;0;
7805;0;0;0;0;0;0;0;27,11;1;0;
7814;0;0;0;0;0;0;0;23,79;1;0;
7822;0;0;0;0;0;0;0;20,87;1;0;
7832;0;0;0;0;0;0;0;17,95;1;0;
7839;0;0;0;0;0;0;0;15,7;1;0;
7848;0;0;0;0;0;0;0;13,45;1;0;
7858;0;0;0;0;0;0;0;11,95;1;0;
7865;0;0;0;0;0;0;0;10,45;1;0;
7875;0;0;0;0;0;0;0;8,95;1;0;
7883;0;0;0;0;0;0;0;8,25;1;0;
7892;0;0;0;0;0;0;0;7,55;1;0;
7900;0;0;0;0;0;0;0;7,25;0;0;
7909;0;0;0;0;0;0;0;6,95;0;0;
7918;0;0;0;0;0;0;0;6,65;0;0;
7926;0;0;0;0;0;0;0;6,5;0;0;
7933;0;0;0;0;0;0;0;6,35;0;0;
7942;0;0;0;0;0;0;0;6,55;0;0;
7950;0;0;0;0;0;0;0;6,75;0;0;
7959;0;0;0;0;0;0;0;6,95;0;0;
7967;0;0;0;0;0;0;0;7,7;0;0;
7975;0;0;0;0;0;0;0;8,45;0;0;
7984;0;0;0;0;0;0;0;9,52;0;0;
7993;0;0;0;0;0;0;0;10,59;0;0;
8002;0;0;0;0;0;0;0;11,66;0;0;
8010;0;0;0;0;0;0;0;12,61;0;0;
8018;0;0;0;0;0;0;0;13,56;0;0;
8026;0;0;0;0;0;0;0;13,91;0;0;
8034;0;0;0;0;0;0;0;14,26;0;0;
8042;0;0;0;0;0;0;0;14,61;0;0;
8049;0;0;0;0;0;0;0;14,66;0;0;
8063;0;0;0;0;0;0;0;14,71;0;0;
8073;0;0;0;0;0;0;0;14,76;0;0;
8084;0;0;0;0;0;0;0;14,81;0;0;
8093;0;0;0;0;0;0;0;14,76;0;0;
8101;0;0;0;0;0;0;0;14,91;0;0;
8109;0;0;0;0;0;0;0;15,06;0;0;
8117;0;0;0;0;0;0;0;14,91;0;0;
8128;0;0;0;0;0;0;0;14,76;0;0;
8135;0;0;0;0;0;0;0;14,31;0;0;
8145;0;0;0;0;0;0;0;13,51;0;0;
8153;0;0;0;0;0;0;0;12,76;0;0;
8162;0;0;0;0;0;0;0;11,76;0;0;
8171;0;0;0;0;0;0;0;10,76;0;0;
8183;0;0;0;0;0;0;0;10,76;0;0;
8192;0;0;0;0;0;0;0;10,76;0;0;
8198;0;0;0;0;0;0;0;10,81;0;0;
8207;0;0;0;0;0;0;0;11,11;0;0;
8217;0;0;0;0;0;0;0;11,41;0;0;
8224;0;0;0;0;0;0;0;12,81;0;0;
8231;0;0;0;0;0;0;0;14,36;0;0;
8239;0;0;0;0;0;0;0;17,31;0;0;
8246;0;0;0;0;0;0;0;20,36;0;0;
8256;0;0;0;0;0;0;0;23,41;0;0;
8267;0;0;0;0;0;0;0;26,06;0;0;
8277;0;0;0;0;0;0;0;28,71;0;0;
8285;0;0;0;0;0;0;0;34,66;0;0;
8292;0;0;0;0;0;0;0;40,76;0;0;
8302;0;0;0;0;0;0;0;46,86;0;0;
8312;0;0;0;0;0;0;0;53,26;0;0;
8321;0;0;0;0;0;0;0;59,66;0;0;
8329;0;0;0;0;0;0;0;73,56;0;0;
8338;0;0;0;0;0;0;0;87,46;0;0;
8346;0;0;0;0;0;0;0;103,61;0;0;
8354;0;0;0;0;0;0;0;118,76;0;0;
8363;0;0;0;0;0;0;0;133,91;0;0;
8371;0;0;0;0;0;0;0;146,31;0;0;
8379;0;0;0;0;0;0;0;158,71;0;0;
8388;0;0;0;0;0;0;0;171,36;0;0;
8397;0;0;0;0;0;0;0;182,91;0;0;
8406;0;0;0;0;0;0;0;194,46;0;0;
8415;0;0;0;0;0;0;0;203,71;0;0;
8424;0;0;0;0;0;0;0;212,96;0;0;
8432;0;0;0;0;0;0;0;223,91;0;0;
8439;0;0;0;0;0;0;0;235,36;0;0;
8449;0;0;0;0;0;0;0;246,81;0;0;
8457;0;0;0;0;0;0;0;255,16;0;0;
8467;0;0;0;0;0;0;0;263,51;0;0;
8473;0;0;0;0;0;0;0;269,66;0;0;
8480;0;0;0;0;0;0;0;275,81;0;0;
8491;0;0;0;0;0;0;0;281,96;0;0;
8499;0;0;0;0;0;0;0;279,11;1;0;
8506;0;0;0;0;0;0;0;276,26;1;0;
8517;0;0;0;0;0;0;0;271,16;1;0;
8525;0;0;0;0;0;0;0;266,06;1;0;
8533;0;0;0;0;0;0;0;260,96;1;0;
8542;0;0;0;0;0;0;0;255,01;1;0;
8549;0;0;0;0;0;0;0;249,06;1;0;
8559;0;0;0;0;0;0;0;242,86;1;0;
8567;0;0;0;0;0;0;0;234,31;1;0;
8576;0;0;0;0;0;0;0;225,76;1;0;
8584;0;0;0;0;0;0;0;216,46;1;0;
8591;0;0;0;0;0;0;0;207,16;1;0;
8599;0;0;0;0;0;0;0;196,16;1;0;
8607;0;0;0;0;0;0;0;184,41;1;0;
8616;0;0;0;0;0;0;0;172,66;1;0;
8624;0;0;0;0;0;0;0;160,31;1;0;
8631;0;0;0;0;0;0;0;147,96;1;0;
8640;0;0;0;0;0;0;0;137,81;1;0;
8648;0;0;0;0;0;0;0;127,21;1;0;
8657;0;0;0;0;0;0;0;116,61;1;0;
8670;0;0;0;0;0;0;0;106,86;1;0;
8679;0;0;0;0;0;0;0;97,11;1;0;
8687;0;0;0;0;0;0;0;86,91;1;0;
8701;0;0;0;0;0;0;0;76,71;1;0;
8708;0;0;0;0;0;0;0;66,26;1;0;
8715;0;0;0;0;0;0;0;59,36;1;0;
8723;0;0;0;0;0;0;0;52,46;1;0;
8730;0;0;0;0;0;0;0;45,26;1;0;
8737;0;0;0;0;0;0;0;40,41;1;0;
8746;0;0;0;0;0;0;0;35,56;1;0;
8753;0;0;0;0;0;0;0;32,11;1;0;
8761;0;0;0;0;0;0;0;28,66;1;0;
8768;0;0;0;0;0;0;0;25,21;1;0;
8777;0;0;0;0;0;0;0;22,46;1;0;
8785;0;0;0;0;0;0;0;19,71;1;0;
8794;0;0;0;0;0;0;0;17,39;1;0;
8801;0;0;0;0;0;0;0;15,07;1;0;
8812;0;0;0;0;0;0;0;12,75;1;0;
8819;0;0;0;0;0;0;0;10,9;1;0;
8827;0;0;0;0;0;0;0;9,05;1;0;
8835;0;0;0;0;0;0;0;8,1;0;0;
8843;0;0;0;0;0;0;0;7,15;0;0;
8854;0;0;0;0;0;0;0;6,65;0;0;
8861;0;0;0;0;0;0;0;6,25;0;0;
8871;0;0;0;0;0;0;0;6,1;0;0;
8879;0;0;0;0;0;0;0;5,75;0;0;
8887;0;0;0;0;0;0;0;5,4;0;0;
8897;0;0;0;0;0;0;0;5,35;0;0;
8904;0;0;0;0;0;0;0;5,2;0;0;
8911;0;0;0;0;0;0;0;5,05;0;0;
8921;0;0;0;0;0;0;0;5,45;0;0;
8928;0;0;0;0;0;0;0;5,85;0;0;
8939;0;0;0;0;0;0;0;6,25;0;0;
8947;0;0;0;0;0;0;0;7,2;0;0;
8954;0;0;0;0;0;0;0;8,15;0;0;
8963;0;0;0;0;0;0;0;9,07;0;0;
8970;0;0;0;0;0;0;0;9,84;0;0;
8978;0;0;0;0;0;0;0;10,61;0;0;
8986;0;0;0;0;0;0;0;12,36;0;0;
8997;0;0;0;0;0;0;0;14,11;0;0;
9007;0;0;0;0;0;0;0;15,16;0;0;
9014;0;0;0;0;0;0;0;16,21;0;0;
9024;0;0;0;0;0;0;0;17,26;0;0;
9032;0;0;0;0;0;0;0;21,06;0;0;
9040;0;0;0;0;0;0;0;24,86;0;0;
9052;0;0;0;0;0;0;0;31,71;0;0;
9062;0;0;0;0;0;0;0;38,56;0;0;
9072;0;0;0;0;0;0;0;52,11;0;0;
9080;0;0;0;0;0;0;0;65,76;0;0;
9089;0;0;0;0;0;0;0;79,41;0;0;
9097;0;0;0;0;0;0;0;93,16;0;0;
9105;0;0;0;0;0;0;0;106,91;0;0;
9113;0;0;0;0;0;0;0;119,76;0;0;
9121;0;0;0;0;0;0;0;132,11;0;0;
9131;0;0;0;0;0;0;0;144,46;0;0;
9139;0;0;0;0;0;0;0;156,81;0;0;
9148;0;0;0;0;0;0;0;169,31;0;0;
9155;0;0;0;0;0;0;0;181,01;0;0;
9163;0;0;0;0;0;0;0;191,71;0;0;
9172;0;0;0;0;0;0;0;202,41;0;0;
9181;0;0;0;0;0;0;0;211,81;0;0;
9188;0;0;0;0;0;0;0;221,21;0;0;
9197;0;0;0;0;0;0;0;230,61;0;0;
9207;0;0;0;0;0;0;0;237,41;0;0;
9220;0;0;0;0;0;0;0;244,21;0;0;
9228;0;0;0;0;0;0;0;250,11;0;0;
9234;0;0;0;0;0;0;0;256,01;0;0;
9241;0;0;0;0;0;0;0;253,96;0;0;
9249;0;0;0;0;0;0;0;251,91;0;0;
9259;0;0;0;0;0;0;0;249,86;0;0;
9267;0;0;0;0;0;0;0;244,51;0;0;
9277;0;0;0;0;0;0;0;239,16;0;0;
9285;0;0;0;0;0;0;0;233,51;0;0;
9292;0;0;0;0;0;0;0;227,86;0;0;
9301;0;0;0;0;0;0;0;222,21;0;0;
9309;0;0;0;0;0;0;0;214,21;0;0;
9317;0;0;0;0;0;0;0;206,21;0;0;
9324;0;0;0;0;0;0;0;197,41;0;0;
9331;0;0;0;0;0;0;0;188,61;0;0;
9341;0;0;0;0;0;0;0;179,81;0;0;
9349;0;0;0;0;0;0;0;171,56;0;0;
9357;0;0;0;0;0;0;0;163,31;0;0;
9367;0;0;0;0;0;0;0;155,06;0;0;
9375;0;0;0;0;0;0;0;145,66;0;0;
9383;0;0;0;0;0;0;0;136,26;0;0;
9388;0;0;0;0;0;0;0;124,31;0;0;
9398;0;0;0;0;0;0;0;112,36;0;0;
9406;0;0;0;0;0;0;0;101,66;0;0;
9415;0;0;0;0;0;0;0;90,51;0;0;
9422;0;0;0;0;0;0;0;79,36;0;0;
9431;0;0;0;0;0;0;0;70,76;0;0;
9438;0;0;0;0;0;0;0;62,16;0;0;
9447;0;0;0;0;0;0;0;54,76;0;0;
9454;0;0;0;0;0;0;0;47,11;0;0;
9461;0;0;0;0;0;0;0;39,46;0;0;
9471;0;0;0;0;0;0;0;34,16;0;0;
9482;0;0;0;0;0;0;0;29,06;0;0;
9489;0;0;0;0;0;0;0;25,56;0;0;
9497;0;0;0;0;0;0;0;22,11;0;0;
9506;0;0;0;0;0;0;0;18,66;0;0;
9515;0;0;0;0;0;0;0;16,36;0;0;
9523;0;0;0;0;0;0;0;14,16;0;0;
9531;0;0;0;0;0;0;0;11,96;0;0;
9539;0;0;0;0;0;0;0;10,51;0;0;
9547;0;0;0;0;0;0;0;9,06;0;0;
9557;0;0;0;0;0;0;0;8,21;0;0;
9564;0;0;0;0;0;0;0;7,51;0;0;
9572;0;0;0;0;0;0;0;6,81;0;0;
9580;0;0;0;0;0;0;0;6,96;0;0;
9589;0;0;0;0;0;0;0;7,11;0;0;
9599;0;0;0;0;0;0;0;7,61;0;0;
9606;0;0;0;0;0;0;0;8,41;0;0;
9612;0;0;0;0;0;0;0;9,21;0;0;
9623;0;0;0;0;0;0;0;10,26;0;0;
9630;0;0;0;0;0;0;0;11,31;0;0;
9638;0;0;0;0;0;0;0;12,36;0;0;
9646;0;0;0;0;0;0;0;13,11;0;0;
9652;0;0;0;0;0;0;0;13,86;0;0;
9662;0;0;0;0;0;0;0;14,56;0;0;
9670;0;0;0;0;0;0;0;14,91;0;0;
9682;0;0;0;0;0;0;0;15,26;0;0;
9691;0;0;0;0;0;0;0;15,46;0;0;
9700;0;0;0;0;0;0;0;15,66;0;0;
9716;0;0;0;0;0;0;0;15,86;0;0;
9724;0;0;0;0;0;0;0;16,06;0;0;
9731;0;0;0;0;0;0;0;19,86;0;0;
9738;0;0;0;0;0;0;0;23,51;0;0;
9745;0;0;0;0;0;0;0;27,16;0;0;
9752;0;0;0;0;0;0;0;30,61;0;0;
9761;0;0;0;0;0;0;0;34,06;0;0;
9769;0;0;0;0;0;0;0;37,51;0;0;
9777;0;0;0;0;0;0;0;39,06;0;0;
9784;0;0;0;0;0;0;0;40,61;0;0;
9794;0;0;0;0;0;0;0;43,36;0;0;
9802;0;0;0;0;0;0;0;46,11;0;0;
9811;0;0;0;0;0;0;0;48,86;0;0;
9818;0;0;0;0;0;0;0;51,76;0;0;
9826;0;0;0;0;0;0;0;54,66;0;0;
9834;0;0;0;0;0;0;0;57,56;0;0;
9842;0;0;0;0;0;0;0;62,11;0;0;
9851;0;0;0;0;0;0;0;66,66;0;0;
9859;0;0;0;0;0;0;0;72,86;0;0;
9868;0;0;0;0;0;0;0;79,06;0;0;
9876;0;0;0;0;0;0;0;85,41;0;0;
9887;0;0;0;0;0;0;0;91,46;0;0;
9895;0;0;0;0;0;0;0;93,91;0;0;
9904;0;0;0;0;0;0;0;96,46;0;0;
9911;0;0;0;0;0;0;0;99,01;0;0;
9921;0;0;0;0;0;0;0;102,36;0;0;
9928;0;0;0;0;0;0;0;105,71;0;0;
9937;0;0;0;0;0;0;0;109,06;0;0;
9946;0;0;0;0;0;0;0;113,61;0;0;
9954;0;0;0;0;0;0;0;118,16;0;0;
9965;0;0;0;0;0;0;0;121,51;0;0;
9973;0;0;0;0;0;0;0;124,26;0;0;
9980;0;0;0;0;0;0;0;127,01;0;0;
9990;0;0;0;0;0;0;0;134,91;0;0;
9997;0;0;0;0;0;0;0;142,81;0;0;
10006;0;0;0;0;0;0;0;150,71;0;0;
10015;0;0;0;0;0;0;0;154,31;0;0;
10024;0;0;0;0;0;0;0;157,91;0;0;
10031;0;0;0;0;0;0;0;159,41;0;0;
10045;0;0;0;0;0;0;0;160,91;0;0;
10051;0;0;0;0;0;0;0;160,86;0;0;
10059;0;0;0;0;0;0;0;161,11;0;0;
10068;0;0;0;0;0;0;0;161,36;0;0;
10076;0;0;0;0;0;0;0;160,26;0;0;
10085;0;0;0;0;0;0;0;159,16;0;0;
10092;0;0;0;0;0;0;0;155,31;0;0;
10099;0;0;0;0;0;0;0;151,46;0;0;
10108;0;0;0;0;0;0;0;147,61;0;0;
10116;0;0;0;0;0;0;0;144,11;0;0;
10124;0;0;0;0;0;0;0;140,61;0;0;
10132;0;0;0;0;0;0;0;137,11;0;0;
10140;0;0;0;0;0;0;0;133,36;0;0;
10150;0;0;0;0;0;0;0;129,61;0;0;
10157;0;0;0;0;0;0;0;119,81;0;0;
10165;0;0;0;0;0;0;0;110,01;0;0;
10172;0;0;0;0;0;0;0;100,21;0;0;
10180;0;0;0;0;0;0;0;92,76;0;0;
10188;0;0;0;0;0;0;0;85,31;0;0;
10196;0;0;0;0;0;0;0;78,36;0;0;
10209;0;0;0;0;0;0;0;71,06;0;0;
10218;0;0;0;0;0;0;0;65,31;0;0;
10225;0;0;0;0;0;0;0;59,51;0;0;
10232;0;0;0;0;0;0;0;53,71;0;0;
10241;0;0;0;0;0;0;0;49,26;0;0;
10248;0;0;0;0;0;0;0;44,81;0;0;
10259;0;0;0;0;0;0;0;42,11;0;0;
10267;0;0;0;0;0;0;0;39,36;0;0;
10274;0;0;0;0;0;0;0;36,61;0;0;
10284;0;0;0;0;0;0;0;33,91;0;0;
10293;0;0;0;0;0;0;0;31,16;0;0;
10301;0;0;0;0;0;0;0;28,41;0;0;
10308;0;0;0;0;0;0;0;26,16;0;0;
10316;0;0;0;0;0;0;0;23,91;0;0;
10325;0;0;0;0;0;0;0;22,51;0;0;
10333;0;0;0;0;0;0;0;20,91;0;0;
10341;0;0;0;0;0;0;0;19,31;0;0;
10349;0;0;0;0;0;0;0;18,06;0;0;
10356;0;0;0;0;0;0;0;16,81;0;0;
10365;0;0;0;0;0;0;0;15,56;0;0;
10372;0;0;0;0;0;0;0;14,54;0;0;
10381;0;0;0;0;0;0;0;13,52;0;0;
10389;0;0;0;0;0;0;0;12,55;0;0;
10397;0;0;0;0;0;0;0;11,73;0;0;
10404;0;0;0;0;0;0;0;10,81;0;0;
10411;0;0;0;0;0;0;0;9,99;0;0;
10419;0;0;0;0;0;0;0;9,16;0;0;
10428;0;0;0;0;0;0;0;8,39;0;0;
10435;0;0;0;0;0;0;0;7,39;0;0;
10443;0;0;0;0;0;0;0;6,39;0;0;
10451;0;0;0;0;0;0;0;5,44;0;0;
10459;0;0;0;0;0;0;0;4,59;0;0;
10467;0;0;0;0;0;0;0;4,09;0;0;
10475;0;0;0;0;0;0;0;3,89;0;0;
10483;0;0;0;0;0;0;0;3,69;0;0;
10494;0;0;0;0;0;0;0;3,69;0;0;
10502;0;0;0;0;0;0;0;3,59;0;0;
10511;0;0;0;0;0;0;0;3,79;0;0;
10519;0;0;0;0;0;0;0;3,79;0;0;
10525;0;0;0;0;0;0;0;3,79;0;0;
10533;0;0;0;0;0;0;0;3,91;0;0;
10541;0;0;0;0;0;0;0;3,99;0;0;
10550;0;0;0;0;0;0;0;4,06;0;0;
10558;0;0;0;0;0;0;0;3,98;0;0;
10566;0;0;0;0;0;0;0;5,65;0;0;
10574;0;0;0;0;0;0;0;7,22;0;0;
10582;0;0;0;0;0;0;0;9,34;0;0;
10589;0;0;0;0;0;0;0;11,46;0;0;
10599;0;0;0;0;0;0;0;13,81;0;0;
10607;0;0;0;0;0;0;0;19,06;0;0;
10615;0;0;0;0;0;0;0;24,31;0;0;
10624;0;0;0;0;0;0;0;29,46;0;0;
10631;0;0;0;0;0;0;0;34,06;0;0;
10640;0;0;0;0;0;0;0;38,36;0;0;
10646;0;0;0;0;0;0;0;47,81;0;0;
10653;0;0;0;0;0;0;0;57,26;0;0;
10664;0;0;0;0;0;0;0;66,81;0;0;
10671;0;0;0;0;0;0;0;75,61;0;0;
10679;0;0;0;0;0;0;0;84,61;0;0;
10688;0;0;0;0;0;0;0;93,61;0;0;
10701;0;0;0;0;0;0;0;100,51;0;0;
10712;0;0;0;0;0;0;0;107,46;0;0;
10720;0;0;0;0;0;0;0;115,56;0;0;
10728;0;0;0;0;0;0;0;123,66;0;0;
10735;0;0;0;0;0;0;0;129,16;0;0;
10742;0;0;0;0;0;0;0;134,66;0;0;
10750;0;0;0;0;0;0;0;139,61;0;0;
10757;0;0;0;0;0;0;0;143,16;0;0;
10764;0;0;0;0;0;0;0;146,71;0;0;
10772;0;0;0;0;0;0;0;147,21;0;0;
10779;0;0;0;0;0;0;0;147,71;0;0;
10787;0;0;0;0;0;0;0;148,21;0;0;
10795;0;0;0;0;0;0;0;147,91;0;0;
10801;0;0;0;0;0;0;0;147,61;0;0;
10808;0;0;0;0;0;0;0;142,16;0;0;
10818;0;0;0;0;0;0;0;136,86;0;0;
10825;0;0;0;0;0;0;0;131,56;0;0;
10833;0;0;0;0;0;0;0;127,01;0;0;
10841;0;0;0;0;0;0;0;121,51;0;0;
10848;0;0;0;0;0;0;0;116,01;0;0;
10857;0;0;0;0;0;0;0;112,61;0;0;
10865;0;0;0;0;0;0;0;108,26;0;0;
10873;0;0;0;0;0;0;0;102,76;0;0;
10880;0;0;0;0;0;0;0;96,86;0;0;
10888;0;0;0;0;0;0;0;91,81;0;0;
10898;0;0;0;0;0;0;0;86,76;0;0;
10906;0;0;0;0;0;0;0;81,41;0;0;
10913;0;0;0;0;0;0;0;77,46;0;0;
10921;0;0;0;0;0;0;0;73,16;0;0;
10929;0;0;0;0;0;0;0;69,01;0;0;
10938;0;0;0;0;0;0;0;64,86;0;0;
10946;0;0;0;0;0;0;0;60,16;0;0;
10955;0;0;0;0;0;0;0;56,81;0;0;
10963;0;0;0;0;0;0;0;53,46;0;0;
10971;0;0;0;0;0;0;0;49,86;0;0;
10978;0;0;0;0;0;0;0;46,11;0;0;
10991;0;0;0;0;0;0;0;42,36;0;0;
10999;0;0;0;0;0;0;0;39,01;0;0;
11007;0;0;0;0;0;0;0;36,61;0;0;
11016;0;0;0;0;0;0;0;33,76;0;0;
11024;0;0;0;0;0;0;0;30,91;0;0;
11033;0;0;0;0;0;0;0;29,26;0;0;
11041;0;0;0;0;0;0;0;27,61;0;0;
11049;0;0;0;0;0;0;0;26,36;0;0;
11057;0;0;0;0;0;0;0;24,46;0;0;
11065;0;0;0;0;0;0;0;22,56;0;0;
11073;0;0;0;0;0;0;0;22,66;0;0;
11081;0;0;0;0;0;0;0;22,76;0;0;
11089;0;0;0;0;0;0;0;23,21;0;0;
11099;0;0;0;0;0;0;0;23,11;0;0;
11107;0;0;0;0;0;0;0;23,01;0;0;
11116;0;0;0;0;0;0;0;23,21;0;0;
11123;0;0;0;0;0;0;0;23,41;0;0;
11130;0;0;0;0;0;0;0;23,61;0;0;
11140;0;0;0;0;0;0;0;23,81;0;0;
11148;0;0;0;0;0;0;0;24,01;0;0;
11158;0;0;0;0;0;0;0;24,21;0;0;
11165;0;0;0;0;0;0;0;23,46;0;0;
11173;0;0;0;0;0;0;0;22,71;0;0;
11180;0;0;0;0;0;0;0;22,11;0;0;
11188;0;0;0;0;0;0;0;21,51;0;0;
11197;0;0;0;0;0;0;0;20,66;0;0;
11204;0;0;0;0;0;0;0;20,06;0;0;
11216;0;0;0;0;0;0;0;19,46;0;0;
11223;0;0;0;0;0;0;0;19,76;0;0;
11230;0;0;0;0;0;0;0;20,06;0;0;
11237;0;0;0;0;0;0;0;18,66;0;0;
11245;0;0;0;0;0;0;0;18,16;0;0;
11251;0;0;0;0;0;0;0;17,66;0;0;
11261;0;0;0;0;0;0;0;17,71;0;0;
11267;0;0;0;0;0;0;0;18,56;0;0;
11275;0;0;0;0;0;0;0;19,66;0;0;
11284;0;0;0;0;0;0;0;20,76;0;0;
11291;0;0;0;0;0;0;0;21,51;0;0;
11301;0;0;0;0;0;0;0;22,51;0;0;
11308;0;0;0;0;0;0;0;24,26;0;0;
11315;0;0;0;0;0;0;0;26,01;0;0;
11325;0;0;0;0;0;0;0;28,31;0;0;
11333;0;0;0;0;0;0;0;30,61;0;0;
11341;0;0;0;0;0;0;0;33,21;0;0;
11349;0;0;0;0;0;0;0;34,91;0;0;
11357;0;0;0;0;0;0;0;36,61;0;0;
11365;0;0;0;0;0;0;0;38,06;0;0;
11375;0;0;0;0;0;0;0;38,91;0;0;
11383;0;0;0;0;0;0;0;39,51;0;0;
11391;0;0;0;0;0;0;0;42,61;0;0;
11399;0;0;0;0;0;0;0;45,71;0;0;
11409;0;0;0;0;0;0;0;47,91;0;0;
11417;0;0;0;0;0;0;0;50,06;0;0;
11425;0;0;0;0;0;0;0;52,21;0;0;
11435;0;0;0;0;0;0;0;54,96;0;0;
11444;0;0;0;0;0;0;0;57,71;0;0;
11454;0;0;0;0;0;0;0;60,46;0;0;
11462;0;0;0;0;0;0;0;65,11;0;0;
11470;0;0;0;0;0;0;0;69,76;0;0;
11477;0;0;0;0;0;0;0;75,51;0;0;
11485;0;0;0;0;0;0;0;81,26;0;0;
11494;0;0;0;0;0;0;0;87,01;0;0;
11503;0;0;0;0;0;0;0;96,66;0;0;
11510;0;0;0;0;0;0;0;106,31;0;0;
11519;0;0;0;0;0;0;0;117,51;0;0;
11526;0;0;0;0;0;0;0;128,71;0;0;
11535;0;0;0;0;0;0;0;139,91;0;0;
11543;0;0;0;0;0;0;0;150,46;0;0;
11550;0;0;0;0;0;0;0;161,01;0;0;
11559;0;0;0;0;0;0;0;169,06;0;0;
11566;0;0;0;0;0;0;0;176,51;0;0;
11573;0;0;0;0;0;0;0;183,96;0;0;
11583;0;0;0;0;0;0;0;191,46;0;0;
11590;0;0;0;0;0;0;0;197,71;0;0;
11598;0;0;0;0;0;0;0;202,56;0;0;
11605;0;0;0;0;0;0;0;207,81;0;0;
11613;0;0;0;0;0;0;0;213,06;0;0;
11623;0;0;0;0;0;0;0;216,76;0;0;
11630;0;0;0;0;0;0;0;218,66;0;0;
11638;0;0;0;0;0;0;0;218,71;0;0;
11648;0;0;0;0;0;0;0;218,76;0;0;
11656;0;0;0;0;0;0;0;216,56;0;0;
11665;0;0;0;0;0;0;0;210,46;0;0;
11672;0;0;0;0;0;0;0;203,16;0;0;
11680;0;0;0;0;0;0;0;195,21;0;0;
11690;0;0;0;0;0;0;0;187,26;0;0;
11698;0;0;0;0;0;0;0;181,21;0;0;
11708;0;0;0;0;0;0;0;176,41;0;0;
11717;0;0;0;0;0;0;0;172,76;0;0;
11730;0;0;0;0;0;0;0;169,11;0;0;
11739;0;0;0;0;0;0;0;163,56;0;0;
11745;0;0;0;0;0;0;0;158,01;0;0;
11752;0;0;0;0;0;0;0;150,81;0;0;
11760;0;0;0;0;0;0;0;144,86;0;0;
11767;0;0;0;0;0;0;0;138,91;0;0;
11776;0;0;0;0;0;0;0;131,41;0;0;
11783;0;0;0;0;0;0;0;123,91;0;0;
11789;0;0;0;0;0;0;0;116,41;0;0;
11797;0;0;0;0;0;0;0;109,46;0;0;
11804;0;0;0;0;0;0;0;102,51;0;0;
11814;0;0;0;0;0;0;0;95,56;0;0;
11821;0;0;0;0;0;0;0;89,91;0;0;
11829;0;0;0;0;0;0;0;84,26;0;0;
11837;0;0;0;0;0;0;0;79,81;0;0;
11846;0;0;0;0;0;0;0;74,96;0;0;
11852;0;0;0;0;0;0;0;70,11;0;0;
11861;0;0;0;0;0;0;0;63,76;0;0;
11868;0;0;0;0;0;0;0;57,41;0;0;
11877;0;0;0;0;0;0;0;49,91;0;0;
11885;0;0;0;0;0;0;0;42,61;0;0;
11893;0;0;0;0;0;0;0;37,81;0;0;
11903;0;0;0;0;0;0;0;33,01;0;0;
11914;0;0;0;0;0;0;0;30,06;0;0;
11921;0;0;0;0;0;0;0;27,11;0;0;
11929;0;0;0;0;0;0;0;24,01;0;0;
11936;0;0;0;0;0;0;0;22,06;0;0;
11949;0;0;0;0;0;0;0;20,11;0;0;
11957;0;0;0;0;0;0;0;17,76;0;0;
11964;0;0;0;0;0;0;0;16,66;0;0;
11971;0;0;0;0;0;0;0;15,46;0;0;
11980;0;0;0;0;0;0;0;14,26;0;0;
11987;0;0;0;0;0;0;0;13,66;0;0;
11995;0;0;0;0;0;0;0;13,06;0;0;
12003;0;0;0;0;0;0;0;12,46;0;0;
12013;0;0;0;0;0;0;0;12,39;0;0;
12020;0;0;0;0;0;0;0;12,32;0;0;
12029;0;0;0;0;0;0;0;11,85;0;0;
12037;0;0;0;0;0;0;0;11,63;0;0;
12045;0;0;0;0;0;0;0;11,41;0;0;
12052;0;0;0;0;0;0;0;10,99;0;0;
12061;0;0;0;0;0;0;0;10,56;0;0;
12070;0;0;0;0;0;0;0;10,14;0;0;
12078;0;0;0;0;0;0;0;9,27;0;0;
12085;0;0;0;0;0;0;0;8,4;0;0;
12094;0;0;0;0;0;0;0;7,5;0;0;
12101;0;0;0;0;0;0;0;6,6;0;0;
12111;0;0;0;0;0;0;0;5,7;0;0;
12123;0;0;0;0;0;0;0;5,23;0;0;
12131;0;0;0;0;0;0;0;4,76;0;0;
12139;0;0;0;0;0;0;0;4,64;0;0;
12147;0;0;0;0;0;0;0;4,51;0;0;
12155;0;0;0;0;0;0;0;4,74;0;0;
12162;0;0;0;0;0;0;0;4,92;0;0;
12170;0;0;0;0;0;0;0;5,1;0;0;
12178;0;0;0;0;0;0;0;5,15;0;0;
12186;0;0;0;0;0;0;0;4,97;0;0;
12194;0;0;0;0;0;0;0;4,79;0;0;
12202;0;0;0;0;0;0;0;4,61;0;0;
12209;0;0;0;0;0;0;0;4,44;0;0;
12217;0;0;0;0;0;0;0;4,26;0;0;
12230;0;0;0;0;0;0;0;4,13;0;0;
12239;0;0;0;0;0;0;0;4;0;0;
12246;0;0;0;0;0;0;0;3,97;0;0;
12253;0;0;0;0;0;0;0;3,94;0;0;
12263;0;0;0;0;0;0;0;4,09;0;0;
12270;0;0;0;0;0;0;0;4,17;0;0;
12278;0;0;0;0;0;0;0;4,25;0;0;
12285;0;0;0;0;0;0;0;4,3;0;0;
12292;0;0;0;0;0;0;0;4,4;0;0;
12300;0;0;0;0;0;0;0;4,25;0;0;
12307;0;0;0;0;0;0;0;5,57;0;0;
12314;0;0;0;0;0;0;0;6,89;0;0;
12324;0;0;0;0;0;0;0;8,26;0;0;
12331;0;0;0;0;0;0;0;9,79;0;0;
12339;0;0;0;0;0;0;0;11,31;0;0;
12347;0;0;0;0;0;0;0;13,06;0;0;
12356;0;0;0;0;0;0;0;17,71;0;0;
12365;0;0;0;0;0;0;0;22,11;0;0;
12372;0;0;0;0;0;0;0;28,16;0;0;
12380;0;0;0;0;0;0;0;34,21;0;0;
12390;0;0;0;0;0;0;0;40,21;0;0;
12397;0;0;0;0;0;0;0;46,86;0;0;
12405;0;0;0;0;0;0;0;53,66;0;0;
12413;0;0;0;0;0;0;0;58,91;0;0;
12420;0;0;0;0;0;0;0;64,16;0;0;
12428;0;0;0;0;0;0;0;69,48;0;0;
12436;0;0;0;0;0;0;0;75,85;0;0;
12444;0;0;0;0;0;0;0;82,22;0;0;
12452;0;0;0;0;0;0;0;88,54;0;0;
12461;0;0;0;0;0;0;0;95,21;0;0;
12468;0;0;0;0;0;0;0;100,41;0;0;
12476;0;0;0;0;0;0;0;105,61;0;0;
12484;0;0;0;0;0;0;0;110,51;0;0;
12491;0;0;0;0;0;0;0;115,26;0;0;
12499;0;0;0;0;0;0;0;120,71;0;0;
12506;0;0;0;0;0;0;0;126,16;0;0;
12516;0;0;0;0;0;0;0;128,71;1;0;
12527;0;0;0;0;0;0;0;129,01;1;0;
12536;0;0;0;0;0;0;0;127,66;1;0;
12544;0;0;0;0;0;0;0;125,21;1;0;
12550;0;0;0;0;0;0;0;122,76;1;0;
12560;0;0;0;0;0;0;0;119,66;1;0;
12567;0;0;0;0;0;0;0;115,36;1;0;
12575;0;0;0;0;0;0;0;112,61;1;0;
12584;0;0;0;0;0;0;0;110,01;1;0;
12592;0;0;0;0;0;0;0;107,41;1;0;
12602;0;0;0;0;0;0;0;103,76;1;0;
12611;0;0;0;0;0;0;0;99,16;1;0;
12619;0;0;0;0;0;0;0;94,56;1;0;
12627;0;0;0;0;0;0;0;88,71;1;0;
12634;0;0;0;0;0;0;0;82,86;1;0;
12642;0;0;0;0;0;0;0;77,01;1;0;
12651;0;0;0;0;0;0;0;70,81;1;0;
12658;0;0;0;0;0;0;0;64,61;1;0;
12668;0;0;0;0;0;0;0;57,71;1;0;
12675;0;0;0;0;0;0;0;50,59;1;0;
12683;0;0;0;0;0;0;0;43,47;1;0;
12690;0;0;0;0;0;0;0;38,75;1;0;
12699;0;0;0;0;0;0;0;34,03;1;0;
12707;0;0;0;0;0;0;0;30,41;1;0;
12716;0;0;0;0;0;0;0;26,64;1;0;
12723;0;0;0;0;0;0;0;22,86;1;0;
12738;0;0;0;0;0;0;0;20,29;1;0;
12751;0;0;0;0;0;0;0;17,64;1;0;
12758;0;0;0;0;0;0;0;14,84;1;0;
12766;0;0;0;0;0;0;0;12,14;1;0;
12773;0;0;0;0;0;0;0;9,44;1;0;
12781;0;0;0;0;0;0;0;7,57;1;0;
12789;0;0;0;0;0;0;0;5,7;1;0;
12798;0;0;0;0;0;0;0;4,93;1;0;
12805;0;0;0;0;0;0;0;4,16;1;0;
12815;0;0;0;0;0;0;0;3,39;1;0;
12824;0;0;0;0;0;0;0;3,06;1;0;
12831;0;0;0;0;0;0;0;2,74;1;0;
12839;0;0;0;0;0;0;0;2,64;1;0;
12847;0;0;0;0;0;0;0;2,76;1;0;
12857;0;0;0;0;0;0;0;2,89;0;0;
12864;0;0;0;0;0;0;0;3,11;0;0;
12873;0;0;0;0;0;0;0;3,33;0;0;
12883;0;0;0;0;0;0;0;3,55;0;0;
12890;0;0;0;0;0;0;0;3,87;0;0;
12899;0;0;0;0;0;0;0;4,19;0;0;
12907;0;0;0;0;0;0;0;4,31;0;0;
12920;0;0;0;0;0;0;0;4,51;0;0;
12929;0;0;0;0;0;0;0;4,56;0;0;
12940;0;0;0;0;0;0;0;4,51;0;0;
12948;0;0;0;0;0;0;0;4,49;0;0;
12955;0;0;0;0;0;0;0;4,59;0;0;
12964;0;0;0;0;0;0;0;4,69;0;0;
12971;0;0;0;0;0;0;0;4,79;0;0;
12981;0;0;0;0;0;0;0;4,89;0;0;
12988;0;0;0;0;0;0;0;5,14;0;0;
12996;0;0;0;0;0;0;0;5,59;0;0;
13004;0;0;0;0;0;0;0;6,04;0;0;
13014;0;0;0;0;0;0;0;5,82;0;0;
13024;0;0;0;0;0;0;0;5,6;0;0;
13032;0;0;0;0;0;0;0;5,5;0;0;
13040;0;0;0;0;0;0;0;5,15;0;0;
13049;0;0;0;0;0;0;0;4,8;0;0;
13057;0;0;0;0;0;0;0;4,9;0;0;
13065;0;0;0;0;0;0;0;5,05;0;0;
13074;0;0;0;0;0;0;0;5,4;0;0;
13082;0;0;0;0;0;0;0;5,95;0;0;
13090;0;0;0;0;0;0;0;6,5;0;0;
13099;0;0;0;0;0;0;0;7,15;0;0;
13107;0;0;0;0;0;0;0;7,8;0;0;
13116;0;0;0;0;0;0;0;8,42;0;0;
13123;0;0;0;0;0;0;0;9,29;0;0;
13131;0;0;0;0;0;0;0;10,16;0;0;
13141;0;0;0;0;0;0;0;10,89;0;0;
13149;0;0;0;0;0;0;0;11,61;0;0;
13158;0;0;0;0;0;0;0;12,18;0;0;
13165;0;0;0;0;0;0;0;12,7;0;0;
13173;0;0;0;0;0;0;0;13,22;0;0;
13181;0;0;0;0;0;0;0;14,39;0;0;
13189;0;0;0;0;0;0;0;15,56;0;0;
13197;0;0;0;0;0;0;0;16,61;0;0;
13204;0;0;0;0;0;0;0;18,11;0;0;
13213;0;0;0;0;0;0;0;19,61;0;0;
13222;0;0;0;0;0;0;0;20,66;0;0;
13230;0;0;0;0;0;0;0;21,26;0;0;
13242;0;0;0;0;0;0;0;21,66;0;0;
13250;0;0;0;0;0;0;0;21,66;0;0;
13258;0;0;0;0;0;0;0;21,66;0;0;
13264;0;0;0;0;0;0;0;21,36;0;0;
13272;0;0;0;0;0;0;0;21,06;0;0;
13280;0;0;0;0;0;0;0;20,76;1;0;
13289;0;0;0;0;0;0;0;20,06;1;0;
13297;0;0;0;0;0;0;0;19,36;1;0;
13306;0;0;0;0;0;0;0;18,61;1;0;
13314;0;0;0;0;0;0;0;17,59;1;0;
13322;0;0;0;0;0;0;0;16,57;1;0;
13329;0;0;0;0;0;0;0;15,95;1;0;
13336;0;0;0;0;0;0;0;15,33;1;0;
13349;0;0;0;0;0;0;0;14,51;1;0;
13356;0;0;0;0;0;0;0;13,69;1;0;
13364;0;0;0;0;0;0;0;12,86;1;0;
13371;0;0;0;0;0;0;0;11,31;1;0;
13379;0;0;0;0;0;0;0;9,76;1;0;
13390;0;0;0;0;0;0;0;8,21;1;0;
13400;0;0;0;0;0;0;0;7,21;1;0;
13407;0;0;0;0;0;0;0;6,21;1;0;
13416;0;0;0;0;0;0;0;5,66;1;0;
13423;0;0;0;0;0;0;0;5,11;1;0;
13432;0;0;0;0;0;0;0;4,91;1;0;
13439;0;0;0;0;0;0;0;4,61;1;0;
13447;0;0;0;0;0;0;0;4,31;1;0;
13458;0;0;0;0;0;0;0;4,16;1;0;
13466;0;0;0;0;0;0;0;4,11;1;0;
13472;0;0;0;0;0;0;0;4,06;1;0;
13480;0;0;0;0;0;0;0;4,64;1;0;
13487;0;0;0;0;0;0;0;5,21;1;0;
13497;0;0;0;0;0;0;0;5,43;1;0;
13505;0;0;0;0;0;0;0;5,9;1;0;
13512;0;0;0;0;0;0;0;6,37;1;0;
13521;0;0;0;0;0;0;0;6,89;1;0;
13529;0;0;0;0;0;0;0;7,41;1;0;
13537;0;0;0;0;0;0;0;8,21;1;0;
13549;0;0;0;0;0;0;0;8,81;1;0;
13556;0;0;0;0;0;0;0;9,41;1;0;
13564;0;0;0;0;0;0;0;9,91;1;0;
13572;0;0;0;0;0;0;0;10,11;1;0;
13581;0;0;0;0;0;0;0;10,26;1;0;
13590;0;0;0;0;0;0;0;10,21;1;0;
13598;0;0;0;0;0;0;0;10,16;1;0;
13607;0;0;0;0;0;0;0;10,06;1;0;
13615;0;0;0;0;0;0;0;9,96;0;0;
13623;0;0;0;0;0;0;0;9,86;0;0;
13631;0;0;0;0;0;0;0;9,69;0;0;
13639;0;0;0;0;0;0;0;9,52;0;0;
13648;0;0;0;0;0;0;0;9;0;0;
13655;0;0;0;0;0;0;0;8,63;0;0;
13663;0;0;0;0;0;0;0;8,26;0;0;
13670;0;0;0;0;0;0;0;7,54;0;0;
13678;0;0;0;0;0;0;0;6,81;0;0;
13685;0;0;0;0;0;0;0;6,04;0;0;
13692;0;0;0;0;0;0;0;5,39;0;0;
13700;0;0;0;0;0;0;0;4,74;0;0;
13709;0;0;0;0;0;0;0;4,29;0;0;
13717;0;0;0;0;0;0;0;4,19;0;0;
13725;0;0;0;0;0;0;0;4,09;0;0;
13735;0;0;0;0;0;0;0;4,39;0;0;
13750;0;0;0;0;0;0;0;4,69;0;0;
13758;0;0;0;0;0;0;0;5,04;0;0;
13765;0;0;0;0;0;0;0;5,39;0;0;
13774;0;0;0;0;0;0;0;5,89;0;0;
13785;0;0;0;0;0;0;0;6,44;0;0;
13794;0;0;0;0;0;0;0;6,99;0;0;
13802;0;0;0;0;0;0;0;7,91;0;0;
13810;0;0;0;0;0;0;0;8,84;0;0;
13819;0;0;0;0;0;0;0;9,76;0;0;
13827;0;0;0;0;0;0;0;10,88;0;0;
13835;0;0;0;0;0;0;0;12;0;0;
13842;0;0;0;0;0;0;0;13,32;0;0;
13849;0;0;0;0;0;0;0;14,64;0;0;
13857;0;0;0;0;0;0;0;15,96;0;0;
13865;0;0;0;0;0;0;0;17,01;0;0;
13872;0;0;0;0;0;0;0;18,06;0;0;
13883;0;0;0;0;0;0;0;19,11;0;0;
13896;0;0;0;0;0;0;0;19,56;0;0;
13904;0;0;0;0;0;0;0;20,01;0;0;
13911;0;0;0;0;0;0;0;20,11;0;0;
13918;0;0;0;0;0;0;0;20,21;0;0;
13926;0;0;0;0;0;0;0;20,31;0;0;
13933;0;0;0;0;0;0;0;20,41;0;0;
13945;0;0;0;0;0;0;0;20,51;0;0;
13954;0;0;0;0;0;0;0;20,41;0;0;
13965;0;0;0;0;0;0;0;20,31;0;0;
13972;0;0;0;0;0;0;0;19,56;0;0;
13980;0;0;0;0;0;0;0;18,81;0;0;
13990;0;0;0;0;0;0;0;18,06;0;0;
13998;0;0;0;0;0;0;0;16,81;0;0;
14006;0;0;0;0;0;0;0;15,56;0;0;
14013;0;0;0;0;0;0;0;14,41;0;0;
14022;0;0;0;0;0;0;0;13,26;0;0;
14032;0;0;0;0;0;0;0;12,11;0;0;
14040;0;0;0;0;0;0;0;11,41;0;0;
14047;0;0;0;0;0;0;0;10,71;0;0;
14055;0;0;0;0;0;0;0;10,16;0;0;
14062;0;0;0;0;0;0;0;9,86;0;0;
14072;0;0;0;0;0;0;0;9,56;0;0;
14080;0;0;0;0;0;0;0;9,41;0;0;
14087;0;0;0;0;0;0;0;9,26;0;0;
14096;0;0;0;0;0;0;0;9,26;0;0;
14103;0;0;0;0;0;0;0;9,11;0;0;
14110;0;0;0;0;0;0;0;8,96;0;0;
14118;0;0;0;0;0;0;0;9,11;0;0;
14125;0;0;0;0;0;0;0;9,26;0;0;
14135;0;0;0;0;0;0;0;9,66;0;0;
14142;0;0;0;0;0;0;0;10,36;0;0;
14149;0;0;0;0;0;0;0;11,06;0;0;
14159;0;0;0;0;0;0;0;11,91;0;0;
14169;0;0;0;0;0;0;0;12,96;0;0;
14177;0;0;0;0;0;0;0;13,81;0;0;
14186;0;0;0;0;0;0;0;14,61;0;0;
14193;0;0;0;0;0;0;0;15,41;0;0;
14203;0;0;0;0;0;0;0;15,61;0;0;
14211;0;0;0;0;0;0;0;15,81;0;0;
14220;0;0;0;0;0;0;0;15,86;0;0;
14227;0;0;0;0;0;0;0;15,66;0;0;
14235;0;0;0;0;0;0;0;15,46;0;0;
14246;0;0;0;0;0;0;0;15,36;0;0;
14261;0;0;0;0;0;0;0;15,11;0;0;
14269;0;0;0;0;0;0;0;14,86;0;0;
14276;0;0;0;0;0;0;0;14,61;0;0;
14285;0;0;0;0;0;0;0;14,36;0;0;
14292;0;0;0;0;0;0;0;13,76;0;0;
14301;0;0;0;0;0;0;0;13,16;0;0;
14308;0;0;0;0;0;0;0;12,56;0;0;
14317;0;0;0;0;0;0;0;11,64;0;0;
14325;0;0;0;0;0;0;0;10,72;0;0;
14333;0;0;0;0;0;0;0;9,97;0;0;
14341;0;0;0;0;0;0;0;9,02;0;0;
14350;0;0;0;0;0;0;0;8,07;0;0;
14357;0;0;0;0;0;0;0;7,47;0;0;
14364;0;0;0;0;0;0;0;6,87;0;0;
14375;0;0;0;0;0;0;0;6,82;0;0;
14384;0;0;0;0;0;0;0;6,77;0;0;
14393;0;0;0;0;0;0;0;6,72;0;0;
14399;0;0;0;0;0;0;0;6,77;0;0;
14408;0;0;0;0;0;0;0;6,82;0;0;
14416;0;0;0;0;0;0;0;6,72;0;0;
14425;0;0;0;0;0;0;0;6,77;0;0;
14432;0;0;0;0;0;0;0;6,82;0;0;
14440;0;0;0;0;0;0;0;7,22;0;0;
14448;0;0;0;0;0;0;0;7,62;0;0;
14456;0;0;0;0;0;0;0;8,22;0;0;
14463;0;0;0;0;0;0;0;9,22;0;0;
14470;0;0;0;0;0;0;0;10,22;0;0;
14480;0;0;0;0;0;0;0;11,24;0;0;
14487;0;0;0;0;0;0;0;12,56;0;0;
14496;0;0;0;0;0;0;0;13,71;0;0;
14503;0;0;0;0;0;0;0;14,86;0;0;
14511;0;0;0;0;0;0;0;16,01;0;0;
14521;0;0;0;0;0;0;0;16,86;0;0;
14529;0;0;0;0;0;0;0;17,46;0;0;
14536;0;0;0;0;0;0;0;17,81;0;0;
14544;0;0;0;0;0;0;0;17,81;0;0;
14551;0;0;0;0;0;0;0;17,81;0;0;
14559;0;0;0;0;0;0;0;17,96;0;0;
14567;0;0;0;0;0;0;0;18,56;0;0;
14576;0;0;0;0;0;0;0;19,31;0;0;
14586;0;0;0;0;0;0;0;20,06;0;0;
14595;0;0;0;0;0;0;0;21,21;0;0;
14602;0;0;0;0;0;0;0;22,16;0;0;
14611;0;0;0;0;0;0;0;24,71;0;0;
14619;0;0;0;0;0;0;0;27,26;0;0;
14628;0;0;0;0;0;0;0;29,41;0;0;
14635;0;0;0;0;0;0;0;34,01;0;0;
14643;0;0;0;0;0;0;0;38,61;0;0;
14650;0;0;0;0;0;0;0;47,01;0;0;
14658;0;0;0;0;0;0;0;55,41;0;0;
14668;0;0;0;0;0;0;0;63,81;0;0;
14676;0;0;0;0;0;0;0;71,06;0;0;
14684;0;0;0;0;0;0;0;78,31;0;0;
14693;0;0;0;0;0;0;0;85,56;0;0;
14701;0;0;0;0;0;0;0;92,81;0;0;
14709;0;0;0;0;0;0;0;100,41;0;0;
14717;0;0;0;0;0;0;0;110,51;0;0;
14725;0;0;0;0;0;0;0;120,61;0;0;
14736;0;0;0;0;0;0;0;130,26;0;0;
14742;0;0;0;0;0;0;0;137,56;0;0;
14751;0;0;0;0;0;0;0;144,86;0;0;
14758;0;0;0;0;0;0;0;149,56;0;0;
14765;0;0;0;0;0;0;0;154,26;0;0;
14777;0;0;0;0;0;0;0;157,36;0;0;
14793;0;0;0;0;0;0;0;159,46;0;0;
14799;0;0;0;0;0;0;0;161,56;0;0;
14807;0;0;0;0;0;0;0;160,16;0;0;
14814;0;0;0;0;0;0;0;158,76;0;0;
14822;0;0;0;0;0;0;0;152,36;0;0;
14830;0;0;0;0;0;0;0;145,96;0;0;
14839;0;0;0;0;0;0;0;139,56;0;0;
14847;0;0;0;0;0;0;0;133,46;0;0;
14856;0;0;0;0;0;0;0;127,36;0;0;
14868;0;0;0;0;0;0;0;120,81;0;0;
14876;0;0;0;0;0;0;0;114,26;0;0;
14886;0;0;0;0;0;0;0;107,11;0;0;
14894;0;0;0;0;0;0;0;97,46;0;0;
14902;0;0;0;0;0;0;0;87,81;0;0;
14910;0;0;0;0;0;0;0;77,96;0;0;
14919;0;0;0;0;0;0;0;70,46;0;0;
14927;0;0;0;0;0;0;0;62,96;0;0;
14933;0;0;0;0;0;0;0;57,26;0;0;
14940;0;0;0;0;0;0;0;51,56;0;0;
14948;0;0;0;0;0;0;0;45,51;0;0;
14956;0;0;0;0;0;0;0;40,46;0;0;
14966;0;0;0;0;0;0;0;35,41;0;0;
14973;0;0;0;0;0;0;0;31,36;0;0;
14980;0;0;0;0;0;0;0;27,31;0;0;
14992;0;0;0;0;0;0;0;24,16;0;0;
15002;0;0;0;0;0;0;0;21,21;0;0;
15009;0;0;0;0;0;0;0;18,26;0;0;
15017;0;0;0;0;0;0;0;16,41;0;0;
15026;0;0;0;0;0;0;0;14,56;0;0;
15034;0;0;0;0;0;0;0;13,41;0;0;
15041;0;0;0;0;0;0;0;12,26;0;0;
15050;0;0;0;0;0;0;0;11,71;0;0;
15059;0;0;0;0;0;0;0;10,96;0;0;
15067;0;0;0;0;0;0;0;10,21;0;0;
15077;0;0;0;0;0;0;0;9,66;0;0;
15085;0;0;0;0;0;0;0;9,11;0;0;
15092;0;0;0;0;0;0;0;8,56;0;0;
15100;0;0;0;0;0;0;0;8,66;0;0;
15108;0;0;0;0;0;0;0;8,76;0;0;
15117;0;0;0;0;0;0;0;9,21;0;0;
15124;0;0;0;0;0;0;0;10,01;0;0;
15131;0;0;0;0;0;0;0;10,81;0;0;
15140;0;0;0;0;0;0;0;11,66;0;0;
15148;0;0;0;0;0;0;0;12,56;0;0;
15156;0;0;0;0;0;0;0;13,46;0;0;
15163;0;0;0;0;0;0;0;14,01;0;0;
15172;0;0;0;0;0;0;0;14,56;0;0;
15179;0;0;0;0;0;0;0;14,86;0;0;
15186;0;0;0;0;0;0;0;14,91;0;0;
15197;0;0;0;0;0;0;0;14,96;0;0;
15205;0;0;0;0;0;0;0;14,76;0;0;
15214;0;0;0;0;0;0;0;14,56;0;0;
15222;0;0;0;0;0;0;0;14,56;0;0;
15229;0;0;0;0;0;0;0;14,46;0;0;
15236;0;0;0;0;0;0;0;14,36;0;0;
15244;0;0;0;0;0;0;0;14,26;0;0;
15251;0;0;0;0;0;0;0;14,01;0;0;
15257;0;0;0;0;0;0;0;13,51;0;0;
15265;0;0;0;0;0;0;0;13,01;0;0;
15273;0;0;0;0;0;0;0;12,36;0;0;
15284;0;0;0;0;0;0;0;11,36;0;0;
15295;0;0;0;0;0;0;0;10,51;0;0;
15301;0;0;0;0;0;0;0;9,66;0;0;
15308;0;0;0;0;0;0;0;8,76;0;0;
15316;0;0;0;0;0;0;0;8,56;0;0;
15323;0;0;0;0;0;0;0;8,51;0;0;
15329;0;0;0;0;0;0;0;8,46;0;0;
15336;0;0;0;0;0;0;0;9,91;0;0;
15343;0;0;0;0;0;0;0;11,61;0;0;
15350;0;0;0;0;0;0;0;13,31;0;0;
15357;0;0;0;0;0;0;0;15,41;0;0;
15365;0;0;0;0;0;0;0;17,51;0;0;
15373;0;0;0;0;0;0;0;19,61;0;0;
15381;0;0;0;0;0;0;0;22,91;0;0;
15388;0;0;0;0;0;0;0;26,21;0;0;
15399;0;0;0;0;0;0;0;34,71;0;0;
15406;0;0;0;0;0;0;0;43,36;0;0;
15416;0;0;0;0;0;0;0;52,01;0;0;
15423;0;0;0;0;0;0;0;61,06;0;0;
15430;0;0;0;0;0;0;0;70,26;0;0;
15438;0;0;0;0;0;0;0;81,11;0;0;
15445;0;0;0;0;0;0;0;91,81;0;0;
15453;0;0;0;0;0;0;0;102,51;0;0;
15460;0;0;0;0;0;0;0;113,66;0;0;
15467;0;0;0;0;0;0;0;124,11;0;0;
15476;0;0;0;0;0;0;0;134,56;0;0;
15484;0;0;0;0;0;0;0;147,76;0;0;
15491;0;0;0;0;0;0;0;159,46;0;0;
15500;0;0;0;0;0;0;0;171,16;0;0;
15508;0;0;0;0;0;0;0;179,61;0;0;
15514;0;0;0;0;0;0;0;187,91;0;0;
15522;0;0;0;0;0;0;0;195,96;0;0;
15529;0;0;0;0;0;0;0;204,01;0;0;
15537;0;0;0;0;0;0;0;210,96;0;0;
15545;0;0;0;0;0;0;0;215,51;0;0;
15553;0;0;0;0;0;0;0;214,86;0;0;
15560;0;0;0;0;0;0;0;214,21;0;0;
15569;0;0;0;0;0;0;0;210,96;0;0;
15576;0;0;0;0;0;0;0;207,31;0;0;
15584;0;0;0;0;0;0;0;203,66;0;0;
15590;0;0;0;0;0;0;0;198,26;0;0;
15600;0;0;0;0;0;0;0;192,86;1;0;
15607;0;0;0;0;0;0;0;184,91;1;0;
15616;0;0;0;0;0;0;0;176,51;1;0;
15627;0;0;0;0;0;0;0;168,11;1;0;
15636;0;0;0;0;0;0;0;158,91;1;0;
15644;0;0;0;0;0;0;0;146,96;1;0;
15651;0;0;0;0;0;0;0;134,71;1;0;
15660;0;0;0;0;0;0;0;122,46;1;0;
15669;0;0;0;0;0;0;0;113,46;1;0;
15676;0;0;0;0;0;0;0;104,21;1;0;
15684;0;0;0;0;0;0;0;95,21;1;0;
15691;0;0;0;0;0;0;0;86,21;1;0;
15699;0;0;0;0;0;0;0;76,76;1;0;
15707;0;0;0;0;0;0;0;69,71;1;0;
15716;0;0;0;0;0;0;0;62,31;1;0;
15723;0;0;0;0;0;0;0;54,91;1;0;
15733;0;0;0;0;0;0;0;50,11;1;0;
15741;0;0;0;0;0;0;0;45,31;1;0;
15750;0;0;0;0;0;0;0;40,51;1;0;
15759;0;0;0;0;0;0;0;35,81;1;0;
15767;0;0;0;0;0;0;0;31,51;1;0;
15774;0;0;0;0;0;0;0;29,76;1;0;
15789;0;0;0;0;0;0;0;28,21;1;0;
15802;0;0;0;0;0;0;0;26,66;1;0;
15814;0;0;0;0;0;0;0;25,86;1;0;
15826;0;0;0;0;0;0;0;25,06;1;0;
15833;0;0;0;0;0;0;0;24,21;1;0;
15841;0;0;0;0;0;0;0;23,36;1;0;
15850;0;0;0;0;0;0;0;22,26;1;0;
15858;0;0;0;0;0;0;0;21,41;1;0;
15867;0;0;0;0;0;0;0;20,31;1;0;
15875;0;0;0;0;0;0;0;19,21;1;0;
15886;0;0;0;0;0;0;0;18,56;1;0;
15896;0;0;0;0;0;0;0;17,71;1;0;
15905;0;0;0;0;0;0;0;17,21;1;0;
15914;0;0;0;0;0;0;0;16,51;1;0;
15923;0;0;0;0;0;0;0;15,81;1;0;
15933;0;0;0;0;0;0;0;15,09;1;0;
15942;0;0;0;0;0;0;0;14,37;0;0;
15951;0;0;0;0;0;0;0;13,67;0;0;
15960;0;0;0;0;0;0;0;12,57;0;0;
15969;0;0;0;0;0;0;0;11,47;0;0;
15978;0;0;0;0;0;0;0;10,37;0;0;
15987;0;0;0;0;0;0;0;9,27;0;0;
15997;0;0;0;0;0;0;0;8,52;0;0;
16007;0;0;0;0;0;0;0;7,77;0;0;
16018;0;0;0;0;0;0;0;7,27;0;0;
16027;0;0;0;0;0;0;0;6,77;0;0;
16036;0;0;0;0;0;0;0;6,27;0;0;
16044;0;0;0;0;0;0;0;5,77;0;0;
16053;0;0;0;0;0;0;0;5,52;0;0;
16062;0;0;0;0;0;0;0;5,42;0;0;
16071;0;0;0;0;0;0;0;5,32;0;0;
16079;0;0;0;0;0;0;0;5,77;0;0;
16086;0;0;0;0;0;0;0;6,22;0;0;
16095;0;0;0;0;0;0;0;6,87;0;0;
16105;0;0;0;0;0;0;0;7,82;0;0;
16114;0;0;0;0;0;0;0;8,79;0;0;
16121;0;0;0;0;0;0;0;9,76;0;0;
16128;0;0;0;0;0;0;0;10,71;0;0;
16138;0;0;0;0;0;0;0;11,66;0;0;
16146;0;0;0;0;0;0;0;12,41;0;0;
16153;0;0;0;0;0;0;0;12,96;0;0;
16161;0;0;0;0;0;0;0;13,51;0;0;
16168;0;0;0;0;0;0;0;13,66;0;0;
16176;0;0;0;0;0;0;0;13,81;0;0;
16183;0;0;0;0;0;0;0;13,76;0;0;
16190;0;0;0;0;0;0;0;13,71;0;0;
16199;0;0;0;0;0;0;0;13,91;0;0;
16208;0;0;0;0;0;0;0;13,81;0;0;
16219;0;0;0;0;0;0;0;13,71;0;0;
16228;0;0;0;0;0;0;0;13,36;0;0;
16235;0;0;0;0;0;0;0;13,01;0;0;
16245;0;0;0;0;0;0;0;12,31;0;0;
16251;0;0;0;0;0;0;0;11,74;0;0;
16261;0;0;0;0;0;0;0;11,17;0;0;
16269;0;0;0;0;0;0;0;10,67;0;0;
16276;0;0;0;0;0;0;0;10,17;0;0;
16288;0;0;0;0;0;0;0;9,67;0;0;
16296;0;0;0;0;0;0;0;9,92;0;0;
16302;0;0;0;0;0;0;0;10,17;0;0;
16310;0;0;0;0;0;0;0;10,97;0;0;
16318;0;0;0;0;0;0;0;11,77;0;0;
16325;0;0;0;0;0;0;0;12,57;0;0;
16334;0;0;0;0;0;0;0;13,97;0;0;
16340;0;0;0;0;0;0;0;15,37;0;0;
16349;0;0;0;0;0;0;0;17,07;0;0;
16357;0;0;0;0;0;0;0;20,52;0;0;
16364;0;0;0;0;0;0;0;23,97;0;0;
16372;0;0;0;0;0;0;0;27,72;0;0;
16380;0;0;0;0;0;0;0;31,87;0;0;
16387;0;0;0;0;0;0;0;36,12;0;0;
16397;0;0;0;0;0;0;0;40,37;0;0;
16404;0;0;0;0;0;0;0;44,92;0;0;
16411;0;0;0;0;0;0;0;49,34;0;0;
16421;0;0;0;0;0;0;0;55,61;0;0;
16429;0;0;0;0;0;0;0;61,51;0;0;
16439;0;0;0;0;0;0;0;68,66;0;0;
16446;0;0;0;0;0;0;0;75,81;0;0;
16457;0;0;0;0;0;0;0;82,21;0;0;
16465;0;0;0;0;0;0;0;86,86;0;0;
16472;0;0;0;0;0;0;0;91,16;0;0;
16481;0;0;0;0;0;0;0;95,46;0;0;
16488;0;0;0;0;0;0;0;98,71;0;0;
16496;0;0;0;0;0;0;0;101,46;0;0;
16504;0;0;0;0;0;0;0;105,31;0;0;
16511;0;0;0;0;0;0;0;109,16;0;0;
16522;0;0;0;0;0;0;0;111,26;0;0;
16528;0;0;0;0;0;0;0;113,46;0;0;
16538;0;0;0;0;0;0;0;115,66;0;0;
16546;0;0;0;0;0;0;0;115,41;0;0;
16553;0;0;0;0;0;0;0;115,16;0;0;
16564;0;0;0;0;0;0;0;114,91;0;0;
16571;0;0;0;0;0;0;0;113,01;0;0;
16578;0;0;0;0;0;0;0;111,11;0;0;
16586;0;0;0;0;0;0;0;107,36;0;0;
16592;0;0;0;0;0;0;0;102,66;0;0;
16600;0;0;0;0;0;0;0;96,71;0;0;
16609;0;0;0;0;0;0;0;90,76;0;0;
16617;0;0;0;0;0;0;0;84,56;0;0;
16629;0;0;0;0;0;0;0;80,11;0;0;
16638;0;0;0;0;0;0;0;75,56;0;0;
16645;0;0;0;0;0;0;0;71,01;0;0;
16652;0;0;0;0;0;0;0;67,56;0;0;
16661;0;0;0;0;0;0;0;64,11;0;0;
16670;0;0;0;0;0;0;0;59,56;0;0;
16677;0;0;0;0;0;0;0;54,56;0;0;
16685;0;0;0;0;0;0;0;49,56;0;0;
16696;0;0;0;0;0;0;0;44,46;0;0;
16703;0;0;0;0;0;0;0;39,16;0;0;
16710;0;0;0;0;0;0;0;35,91;0;0;
16718;0;0;0;0;0;0;0;32,76;0;0;
16725;0;0;0;0;0;0;0;29,61;0;0;
16734;0;0;0;0;0;0;0;27,81;0;0;
16741;0;0;0;0;0;0;0;26,31;0;0;
16749;0;0;0;0;0;0;0;24,81;0;0;
16758;0;0;0;0;0;0;0;24,26;0;0;
16765;0;0;0;0;0;0;0;23,86;0;0;
16772;0;0;0;0;0;0;0;23,46;0;0;
16780;0;0;0;0;0;0;0;23,31;0;0;
16787;0;0;0;0;0;0;0;22,96;0;0;
16804;0;0;0;0;0;0;0;22,71;0;0;
16812;0;0;0;0;0;0;0;22,11;0;0;
16819;0;0;0;0;0;0;0;21,46;0;0;
16828;0;0;0;0;0;0;0;20,56;0;0;
16836;0;0;0;0;0;0;0;19,66;0;0;
16845;0;0;0;0;0;0;0;19,01;0;0;
16852;0;0;0;0;0;0;0;18,36;0;0;
16861;0;0;0;0;0;0;0;17,71;0;0;
16868;0;0;0;0;0;0;0;17,06;0;0;
16877;0;0;0;0;0;0;0;16,41;0;0;
16886;0;0;0;0;0;0;0;15,66;0;0;
16893;0;0;0;0;0;0;0;14,84;0;0;
16901;0;0;0;0;0;0;0;14,02;0;0;
16909;0;0;0;0;0;0;0;13;0;0;
16917;0;0;0;0;0;0;0;11,98;0;0;
16925;0;0;0;0;0;0;0;10,96;0;0;
16934;0;0;0;0;0;0;0;9,66;0;0;
16941;0;0;0;0;0;0;0;8,36;0;0;
16951;0;0;0;0;0;0;0;7,36;0;0;
16959;0;0;0;0;0;0;0;6,56;0;0;
16967;0;0;0;0;0;0;0;5,76;0;0;
16975;0;0;0;0;0;0;0;5,41;0;0;
16984;0;0;0;0;0;0;0;5,06;0;0;
16992;0;0;0;0;0;0;0;4,96;0;0;
17000;0;0;0;0;0;0;0;4,76;0;0;
17008;0;0;0;0;0;0;0;4,76;0;0;
17016;0;0;0;0;0;0;0;4,61;0;0;
17023;0;0;0;0;0;0;0;4,46;0;0;
17035;0;0;0;0;0;0;0;4,51;0;0;
17042;0;0;0;0;0;0;0;4,76;0;0;
17048;0;0;0;0;0;0;0;5,01;0;0;
17057;0;0;0;0;0;0;0;5,73;0;0;
17065;0;0;0;0;0;0;0;6,45;0;0;
17072;0;0;0;0;0;0;0;7,07;0;0;
17079;0;0;0;0;0;0;0;7,89;0;0;
17086;0;0;0;0;0;0;0;8,71;0;0;
17095;0;0;0;0;0;0;0;9,66;0;0;
17103;0;0;0;0;0;0;0;10,56;0;0;
17110;0;0;0;0;0;0;0;11,16;0;0;
17121;0;0;0;0;0;0;0;11,76;0;0;
17128;0;0;0;0;0;0;0;12,11;0;0;
17134;0;0;0;0;0;0;0;12,36;0;0;
17143;0;0;0;0;0;0;0;12,41;0;0;
17149;0;0;0;0;0;0;0;12,46;0;0;
17158;0;0;0;0;0;0;0;12,61;0;0;
17166;0;0;0;0;0;0;0;12,56;0;0;
17174;0;0;0;0;0;0;0;12,66;0;0;
17183;0;0;0;0;0;0;0;12,76;0;0;
17190;0;0;0;0;0;0;0;12,66;0;0;
17197;0;0;0;0;0;0;0;12,36;0;0;
17206;0;0;0;0;0;0;0;12,04;0;0;
17214;0;0;0;0;0;0;0;11,32;0;0;
17223;0;0;0;0;0;0;0;10,6;0;0;
17231;0;0;0;0;0;0;0;10,03;0;0;
17241;0;0;0;0;0;0;0;9,26;0;0;
17249;0;0;0;0;0;0;0;8,49;0;0;
17258;0;0;0;0;0;0;0;7,51;0;0;
17267;0;0;0;0;0;0;0;6,59;0;0;
17274;0;0;0;0;0;0;0;5,89;0;0;
17281;0;0;0;0;0;0;0;5,19;0;0;
17290;0;0;0;0;0;0;0;4,74;0;0;
17299;0;0;0;0;0;0;0;4,54;0;0;
17313;0;0;0;0;0;0;0;4,54;0;0;
17320;0;0;0;0;0;0;0;4,39;0;0;
17327;0;0;0;0;0;0;0;4,24;0;0;
17333;0;0;0;0;0;0;0;4,14;0;0;
17342;0;0;0;0;0;0;0;4,04;0;0;
17349;0;0;0;0;0;0;0;3,94;0;0;
17358;0;0;0;0;0;0;0;4,14;0;0;
17365;0;0;0;0;0;0;0;4,34;0;0;
17373;0;0;0;0;0;0;0;4,56;0;0;
17381;0;0;0;0;0;0;0;5,19;0;0;
17388;0;0;0;0;0;0;0;5,81;0;0;
17399;0;0;0;0;0;0;0;6,28;0;0;
17407;0;0;0;0;0;0;0;7,05;0;0;
17415;0;0;0;0;0;0;0;7,82;0;0;
17423;0;0;0;0;0;0;0;8,79;0;0;
17431;0;0;0;0;0;0;0;9,76;0;0;
17440;0;0;0;0;0;0;0;10,51;0;0;
17450;0;0;0;0;0;0;0;11,06;0;0;
17458;0;0;0;0;0;0;0;11,61;0;0;
17467;0;0;0;0;0;0;0;11,61;0;0;
17474;0;0;0;0;0;0;0;11,61;0;0;
17485;0;0;0;0;0;0;0;11,76;0;0;
17497;0;0;0;0;0;0;0;11,71;0;0;
17508;0;0;0;0;0;0;0;11,81;0;0;
17517;0;0;0;0;0;0;0;11,66;0;0;
17525;0;0;0;0;0;0;0;11,51;0;0;
17533;0;0;0;0;0;0;0;11,34;0;0;
17542;0;0;0;0;0;0;0;11,17;1;0;
17553;0;0;0;0;0;0;0;11,1;1;0;
17563;0;0;0;0;0;0;0;10,63;1;0;
17571;0;0;0;0;0;0;0;10,11;1;0;
17581;0;0;0;0;0;0;0;9,59;1;0;
17591;0;0;0;0;0;0;0;8,74;1;0;
17601;0;0;0;0;0;0;0;7,89;1;0;
17612;0;0;0;0;0;0;0;7,04;1;0;
17621;0;0;0;0;0;0;0;6,44;1;0;
17629;0;0;0;0;0;0;0;5,84;1;0;
17639;0;0;0;0;0;0;0;5,39;1;0;
17647;0;0;0;0;0;0;0;4,94;1;0;
17657;0;0;0;0;0;0;0;4,64;1;0;
17664;0;0;0;0;0;0;0;4,34;1;0;
17672;0;0;0;0;0;0;0;4,04;1;0;
17680;0;0;0;0;0;0;0;3,94;1;0;
17688;0;0;0;0;0;0;0;3,84;1;0;
17696;0;0;0;0;0;0;0;3,99;1;0;
17703;0;0;0;0;0;0;0;4,44;1;0;
17711;0;0;0;0;0;0;0;4,81;1;0;
17719;0;0;0;0;0;0;0;5,48;1;0;
17726;0;0;0;0;0;0;0;6,05;1;0;
17736;0;0;0;0;0;0;0;6,62;1;0;
17744;0;0;0;0;0;0;0;7,29;1;0;
17751;0;0;0;0;0;0;0;7,96;1;0;
17759;0;0;0;0;0;0;0;8,66;1;0;
17772;0;0;0;0;0;0;0;9,21;1;0;
17782;0;0;0;0;0;0;0;9,76;1;0;
17790;0;0;0;0;0;0;0;9,81;1;0;
17798;0;0;0;0;0;0;0;9,86;1;0;
17809;0;0;0;0;0;0;0;9,76;1;0;
17818;0;0;0;0;0;0;0;9,66;1;0;
17826;0;0;0;0;0;0;0;9,56;1;0;
17833;0;0;0;0;0;0;0;9,46;1;0;
17842;0;0;0;0;0;0;0;9,36;1;0;
17850;0;0;0;0;0;0;0;9,24;1;0;
17862;0;0;0;0;0;0;0;9,12;1;0;
17872;0;0;0;0;0;0;0;9,15;1;0;
17880;0;0;0;0;0;0;0;8,88;0;0;
17891;0;0;0;0;0;0;0;8,56;0;0;
17903;0;0;0;0;0;0;0;7,94;0;0;
17912;0;0;0;0;0;0;0;7,24;0;0;
17921;0;0;0;0;0;0;0;6,54;0;0;
17931;0;0;0;0;0;0;0;5,79;0;0;
17940;0;0;0;0;0;0;0;5,34;0;0;
17950;0;0;0;0;0;0;0;4,89;0;0;
17960;0;0;0;0;0;0;0;4,59;0;0;
17970;0;0;0;0;0;0;0;4,29;0;0;
17980;0;0;0;0;0;0;0;4,04;0;0;
17987;0;0;0;0;0;0;0;3,79;0;0;
17995;0;0;0;0;0;0;0;3,69;0;0;
18003;0;0;0;0;0;0;0;3,59;0;0;
18011;0;0;0;0;0;0;0;3,64;0;0;
18019;0;0;0;0;0;0;0;3,99;0;0;
18028;0;0;0;0;0;0;0;4,34;0;0;
18038;0;0;0;0;0;0;0;5,01;0;0;
18046;0;0;0;0;0;0;0;5,68;0;0;
18053;0;0;0;0;0;0;0;6,2;0;0;
18064;0;0;0;0;0;0;0;6,87;0;0;
18074;0;0;0;0;0;0;0;7,59;0;0;
18085;0;0;0;0;0;0;0;8,16;0;0;
18099;0;0;0;0;0;0;0;8,81;0;0;
18107;0;0;0;0;0;0;0;9,21;0;0;
18118;0;0;0;0;0;0;0;9,61;0;0;
18127;0;0;0;0;0;0;0;9,51;0;0;
18137;0;0;0;0;0;0;0;9,41;0;0;
18148;0;0;0;0;0;0;0;9,16;0;0;
18157;0;0;0;0;0;0;0;8,91;0;0;
18167;0;0;0;0;0;0;0;8,79;0;0;
18175;0;0;0;0;0;0;0;8,67;0;0;
18183;0;0;0;0;0;0;0;8,6;0;0;
18190;0;0;0;0;0;0;0;8,68;0;0;
18198;0;0;0;0;0;0;0;8,76;0;0;
18205;0;0;0;0;0;0;0;8,54;0;0;
18213;0;0;0;0;0;0;0;8,41;0;0;
18221;0;0;0;0;0;0;0;7,99;0;0;
18230;0;0;0;0;0;0;0;7,37;0;0;
18237;0;0;0;0;0;0;0;6,75;0;0;
18246;0;0;0;0;0;0;0;5,98;0;0;
18252;0;0;0;0;0;0;0;5,33;0;0;
18262;0;0;0;0;0;0;0;4,83;0;0;
18273;0;0;0;0;0;0;0;4,33;0;0;
18282;0;0;0;0;0;0;0;4,23;0;0;
18291;0;0;0;0;0;0;0;4,13;0;0;
18302;0;0;0;0;0;0;0;4,08;0;0;
18312;0;0;0;0;0;0;0;4,03;0;0;
18325;0;0;0;0;0;0;0;3,98;0;0;
18333;0;0;0;0;0;0;0;3,93;0;0;
18341;0;0;0;0;0;0;0;4,15;0;0;
18349;0;0;0;0;0;0;0;4,37;0;0;
18357;0;0;0;0;0;0;0;4,94;0;0;
18367;0;0;0;0;0;0;0;5,36;0;0;
18375;0;0;0;0;0;0;0;5,79;0;0;
18383;0;0;0;0;0;0;0;6,46;0;0;
18390;0;0;0;0;0;0;0;7,03;0;0;
18400;0;0;0;0;0;0;0;7,55;0;0;
18407;0;0;0;0;0;0;0;8,27;0;0;
18416;0;0;0;0;0;0;0;8,99;0;0;
18424;0;0;0;0;0;0;0;9,46;0;0;
18431;0;0;0;0;0;0;0;9,81;0;0;
18440;0;0;0;0;0;0;0;10,16;0;0;
18448;0;0;0;0;0;0;0;10,26;0;0;
18456;0;0;0;0;0;0;0;10,21;0;0;
18464;0;0;0;0;0;0;0;10,01;0;0;
18473;0;0;0;0;0;0;0;9,96;0;0;
18483;0;0;0;0;0;0;0;9,91;0;0;
18490;0;0;0;0;0;0;0;9,84;0;0;
18497;0;0;0;0;0;0;0;9,77;0;0;
18505;0;0;0;0;0;0;0;9,6;0;0;
18512;0;0;0;0;0;0;0;9,43;0;0;
18521;0;0;0;0;0;0;0;8,91;0;0;
18530;0;0;0;0;0;0;0;8,49;0;0;
18537;0;0;0;0;0;0;0;8,06;0;0;
18546;0;0;0;0;0;0;0;7,39;0;0;
18554;0;0;0;0;0;0;0;6,57;0;0;
18561;0;0;0;0;0;0;0;5,8;0;0;
18570;0;0;0;0;0;0;0;5,03;0;0;
18577;0;0;0;0;0;0;0;4,38;0;0;
18600;0;0;0;0;0;0;0;3,98;0;0;
18608;0;0;0;0;0;0;0;3,78;0;0;
18617;0;0;0;0;0;0;0;3,58;0;0;
18624;0;0;0;0;0;0;0;3,58;0;0;
18631;0;0;0;0;0;0;0;3,58;0;0;
18638;0;0;0;0;0;0;0;3,58;0;0;
18646;0;0;0;0;0;0;0;3,58;0;0;
18657;0;0;0;0;0;0;0;3,73;0;0;
18669;0;0;0;0;0;0;0;4,05;0;0;
18686;0;0;0;0;0;0;0;4,77;0;0;
18697;0;0;0;0;0;0;0;5,39;0;0;
18705;0;0;0;0;0;0;0;6,26;0;0;
18714;0;0;0;0;0;0;0;7,14;0;0;
18722;0;0;0;0;0;0;0;7,91;0;0;
18730;0;0;0;0;0;0;0;8,68;0;0;
18739;0;0;0;0;0;0;0;9,45;0;0;
18748;0;0;0;0;0;0;0;10,17;0;0;
18757;0;0;0;0;0;0;0;10,89;0;0;
18765;0;0;0;0;0;0;0;11,31;0;0;
18773;0;0;0;0;0;0;0;11,61;0;0;
18782;0;0;0;0;0;0;0;11,91;0;0;
18787;0;0;0;0;0;0;0;11,86;0;0;
18793;0;0;0;0;0;0;0;11,81;0;0;
18800;0;0;0;0;0;0;0;11,81;0;0;
18810;0;0;0;0;0;0;0;11,61;0;0;
18818;0;0;0;0;0;0;0;11,56;0;0;
18824;0;0;0;0;0;0;0;11,44;0;0;
18833;0;0;0;0;0;0;0;11,17;0;0;
18843;0;0;0;0;0;0;0;10,9;0;0;
18850;0;0;0;0;0;0;0;10,43;0;0;
18856;0;0;0;0;0;0;0;9,96;0;0;
18864;0;0;0;0;0;0;0;9,24;0;0;
18870;0;0;0;0;0;0;0;8,46;0;0;
18880;0;0;0;0;0;0;0;7,69;0;0;
18890;0;0;0;0;0;0;0;6,92;0;0;
18898;0;0;0;0;0;0;0;6,02;0;0;
18906;0;0;0;0;0;0;0;5,32;0;0;
18912;0;0;0;0;0;0;0;4,87;0;0;
18919;0;0;0;0;0;0;0;4,72;0;0;
18928;0;0;0;0;0;0;0;4,57;0;0;
18937;0;0;0;0;0;0;0;4,37;0;0;
18945;0;0;0;0;0;0;0;4,32;0;0;
18953;0;0;0;0;0;0;0;4,02;0;0;
18962;0;0;0;0;0;0;0;3,72;0;0;
18973;0;0;0;0;0;0;0;3,62;0;0;
18982;0;0;0;0;0;0;0;3,62;0;0;
18990;0;0;0;0;0;0;0;3,69;0;0;
18997;0;0;0;0;0;0;0;4,06;0;0;
19006;0;0;0;0;0;0;0;4,44;0;0;
19018;0;0;0;0;0;0;0;4,61;0;0;
19026;0;0;0;0;0;0;0;5,13;0;0;
19039;0;0;0;0;0;0;0;5,65;0;0;
19049;0;0;0;0;0;0;0;6,32;0;0;
19057;0;0;0;0;0;0;0;6,99;0;0;
19065;0;0;0;0;0;0;0;7,46;0;0;
19072;0;0;0;0;0;0;0;8,06;0;0;
19081;0;0;0;0;0;0;0;8,66;0;0;
19089;0;0;0;0;0;0;0;8,76;0;0;
19095;0;0;0;0;0;0;0;8,86;0;0;
19102;0;0;0;0;0;0;0;8,76;0;0;
19109;0;0;0;0;0;0;0;8,71;0;0;
19116;0;0;0;0;0;0;0;8,66;0;0;
19125;0;0;0;0;0;0;0;8,66;0;0;
19131;0;0;0;0;0;0;0;8,66;0;0;
19137;0;0;0;0;0;0;0;8,66;0;0;
19145;0;0;0;0;0;0;0;8,64;0;0;
19151;0;0;0;0;0;0;0;8,62;0;0;
19158;0;0;0;0;0;0;0;8,3;0;0;
19166;0;0;0;0;0;0;0;8,13;0;0;
19172;0;0;0;0;0;0;0;7,96;0;0;
19181;0;0;0;0;0;0;0;7,44;0;0;
19189;0;0;0;0;0;0;0;6,96;0;0;
19198;0;0;0;0;0;0;0;6,39;0;0;
19205;0;0;0;0;0;0;0;5,82;0;0;
19212;0;0;0;0;0;0;0;5,15;0;0;
19219;0;0;0;0;0;0;0;4,48;0;0;
19227;0;0;0;0;0;0;0;3,81;0;0;
19235;0;0;0;0;0;0;0;3,61;0;0;
19242;0;0;0;0;0;0;0;3,41;0;0;
19251;0;0;0;0;0;0;0;3,46;0;0;
19259;0;0;0;0;0;0;0;3,51;0;0;
19272;0;0;0;0;0;0;0;3,56;0;0;
19282;0;0;0;0;0;0;0;3,66;0;0;
19289;0;0;0;0;0;0;0;3,76;0;0;
19297;0;0;0;0;0;0;0;3,76;1;0;
19306;0;0;0;0;0;0;0;3,68;1;0;
19313;0;0;0;0;0;0;0;3,6;1;0;
19320;0;0;0;0;0;0;0;3,82;1;0;
19328;0;0;0;0;0;0;0;3,89;1;0;
19336;0;0;0;0;0;0;0;4,36;1;0;
19344;0;0;0;0;0;0;0;4,84;1;0;
19353;0;0;0;0;0;0;0;5,26;1;0;
19361;0;0;0;0;0;0;0;5,88;1;0;
19370;0;0;0;0;0;0;0;6,5;1;0;
19380;0;0;0;0;0;0;0;7,42;1;0;
19393;0;0;0;0;0;0;0;8,19;1;0;
19400;0;0;0;0;0;0;0;8,96;1;0;
19405;0;0;0;0;0;0;0;9,26;1;0;
19411;0;0;0;0;0;0;0;9,56;1;0;
19419;0;0;0;0;0;0;0;9,81;1;0;
19425;0;0;0;0;0;0;0;9,86;1;0;
19431;0;0;0;0;0;0;0;9,91;1;0;
19438;0;0;0;0;0;0;0;10,11;1;0;
19445;0;0;0;0;0;0;0;10,16;1;0;
19451;0;0;0;0;0;0;0;10,31;1;0;
19460;0;0;0;0;0;0;0;10,46;1;0;
19469;0;0;0;0;0;0;0;10,46;1;0;
19476;0;0;0;0;0;0;0;10,16;1;0;
19487;0;0;0;0;0;0;0;9,86;1;0;
19495;0;0;0;0;0;0;0;9,29;1;0;
19503;0;0;0;0;0;0;0;8,72;1;0;
19511;0;0;0;0;0;0;0;8,25;1;0;
19519;0;0;0;0;0;0;0;7,58;1;0;
19529;0;0;0;0;0;0;0;6,91;1;0;
19537;0;0;0;0;0;0;0;6,04;1;0;
19544;0;0;0;0;0;0;0;5,31;1;0;
19552;0;0;0;0;0;0;0;4,81;1;0;
19560;0;0;0;0;0;0;0;4,56;1;0;
19571;0;0;0;0;0;0;0;4,46;1;0;
19578;0;0;0;0;0;0;0;4,36;1;0;
19587;0;0;0;0;0;0;0;4,46;1;0;
19597;0;0;0;0;0;0;0;4,41;1;0;
19604;0;0;0;0;0;0;0;4,36;1;0;
19611;0;0;0;0;0;0;0;4,46;1;0;
19621;0;0;0;0;0;0;0;4,46;1;0;
19629;0;0;0;0;0;0;0;4,46;1;0;
19636;0;0;0;0;0;0;0;4,81;0;0;
19644;0;0;0;0;0;0;0;5,16;0;0;
19653;0;0;0;0;0;0;0;5,51;0;0;
19661;0;0;0;0;0;0;0;6,09;0;0;
19669;0;0;0;0;0;0;0;6,66;0;0;
19677;0;0;0;0;0;0;0;7,38;0;0;
19688;0;0;0;0;0;0;0;8,1;0;0;
19696;0;0;0;0;0;0;0;8,82;0;0;
19704;0;0;0;0;0;0;0;9,59;0;0;
19711;0;0;0;0;0;0;0;10,36;0;0;
19719;0;0;0;0;0;0;0;10,66;0;0;
19726;0;0;0;0;0;0;0;10,96;0;0;
19738;0;0;0;0;0;0;0;11,11;0;0;
19746;0;0;0;0;0;0;0;11,01;0;0;
19757;0;0;0;0;0;0;0;10,91;0;0;
19765;0;0;0;0;0;0;0;10,76;0;0;
19773;0;0;0;0;0;0;0;10,61;0;0;
19784;0;0;0;0;0;0;0;10,39;0;0;
19792;0;0;0;0;0;0;0;10,27;0;0;
19801;0;0;0;0;0;0;0;10,15;0;0;
19811;0;0;0;0;0;0;0;9,98;0;0;
19821;0;0;0;0;0;0;0;9,81;0;0;
19831;0;0;0;0;0;0;0;9,74;0;0;
19839;0;0;0;0;0;0;0;9,31;0;0;
19847;0;0;0;0;0;0;0;8,74;0;0;
19855;0;0;0;0;0;0;0;7,92;0;0;
19864;0;0;0;0;0;0;0;7,1;0;0;
19874;0;0;0;0;0;0;0;6,25;0;0;
19883;0;0;0;0;0;0;0;5,55;0;0;
19899;0;0;0;0;0;0;0;5,05;0;0;
19905;0;0;0;0;0;0;0;4,8;0;0;
19911;0;0;0;0;0;0;0;4,45;0;0;
19918;0;0;0;0;0;0;0;4,1;0;0;
19926;0;0;0;0;0;0;0;4;0;0;
19932;0;0;0;0;0;0;0;3,7;0;0;
19939;0;0;0;0;0;0;0;3,6;0;0;
19949;0;0;0;0;0;0;0;3,5;0;0;
19956;0;0;0;0;0;0;0;3,62;0;0;
19963;0;0;0;0;0;0;0;3,74;0;0;
19972;0;0;0;0;0;0;0;3,86;0;0;
19981;0;0;0;0;0;0;0;4,09;0;0;
19988;0;0;0;0;0;0;0;4,31;0;0;
19997;0;0;0;0;0;0;0;4,68;0;0;
20004;0;0;0;0;0;0;0;5,05;0;0;
20011;0;0;0;0;0;0;0;5,57;0;0;
20018;0;0;0;0;0;0;0;6,04;0;0;
20026;0;0;0;0;0;0;0;6,51;0;0;
20034;0;0;0;0;0;0;0;7,01;0;0;
20043;0;0;0;0;0;0;0;7,26;0;0;
20049;0;0;0;0;0;0;0;7,31;0;0;
20058;0;0;0;0;0;0;0;7,36;0;0;
20070;0;0;0;0;0;0;0;7,31;0;0;
20078;0;0;0;0;0;0;0;7,26;0;0;
20089;0;0;0;0;0;0;0;7,04;0;0;
20100;0;0;0;0;0;0;0;7,02;0;0;
20108;0;0;0;0;0;0;0;7,15;0;0;
20117;0;0;0;0;0;0;0;7,28;0;0;
20124;0;0;0;0;0;0;0;7,41;0;0;
20135;0;0;0;0;0;0;0;7,54;0;0;
20145;0;0;0;0;0;0;0;7,81;0;0;
20153;0;0;0;0;0;0;0;7,84;0;0;
20161;0;0;0;0;0;0;0;7,87;0;0;
20167;0;0;0;0;0;0;0;7,6;0;0;
20173;0;0;0;0;0;0;0;7,33;0;0;
20180;0;0;0;0;0;0;0;7,06;0;0;
20186;0;0;0;0;0;0;0;6,54;0;0;
20193;0;0;0;0;0;0;0;6,01;0;0;
20200;0;0;0;0;0;0;0;5,49;0;0;
20208;0;0;0;0;0;0;0;5,22;0;0;
20214;0;0;0;0;0;0;0;4,92;0;0;
20220;0;0;0;0;0;0;0;4,62;0;0;
20229;0;0;0;0;0;0;0;4,52;0;0;
20234;0;0;0;0;0;0;0;4,47;0;0;
20241;0;0;0;0;0;0;0;4,59;0;0;
20249;0;0;0;0;0;0;0;4,71;0;0;
20256;0;0;0;0;0;0;0;4,61;0;0;
20264;0;0;0;0;0;0;0;4,51;0;0;
20272;0;0;0;0;0;0;0;4,21;0;0;
20279;0;0;0;0;0;0;0;3,91;0;0;
20288;0;0;0;0;0;0;0;3,46;0;0;
20296;0;0;0;0;0;0;0;3,24;0;0;
20305;0;0;0;0;0;0;0;3,01;0;0;
20312;0;0;0;0;0;0;0;2,83;0;0;
20322;0;0;0;0;0;0;0;3;0;0;
20328;0;0;0;0;0;0;0;3,17;0;0;
20337;0;0;0;0;0;0;0;3,74;0;0;
20345;0;0;0;0;0;0;0;4,31;0;0;
20353;0;0;0;0;0;0;0;4,89;0;0;
20360;0;0;0;0;0;0;0;5,31;0;0;
20369;0;0;0;0;0;0;0;5,76;0;0;
20379;0;0;0;0;0;0;0;6,21;0;0;
20389;0;0;0;0;0;0;0;6,36;0;0;
20398;0;0;0;0;0;0;0;6,46;0;0;
20405;0;0;0;0;0;0;0;6,36;0;0;
20411;0;0;0;0;0;0;0;6,26;0;0;
20420;0;0;0;0;0;0;0;6,23;0;0;
20428;0;0;0;0;0;0;0;6,28;0;0;
20436;0;0;0;0;0;0;0;6,38;0;0;
20443;0;0;0;0;0;0;0;6,58;0;0;
20450;0;0;0;0;0;0;0;6,78;0;0;
20458;0;0;0;0;0;0;0;6,76;0;0;
20465;0;0;0;0;0;0;0;6,94;0;0;
20473;0;0;0;0;0;0;0;7,11;0;0;
20480;0;0;0;0;0;0;0;6,94;0;0;
20488;0;0;0;0;0;0;0;6,82;0;0;
20496;0;0;0;0;0;0;0;6,6;0;0;
20505;0;0;0;0;0;0;0;6,38;0;0;
20521;0;0;0;0;0;0;0;5,86;0;0;
20528;0;0;0;0;0;0;0;5,49;0;0;
20536;0;0;0;0;0;0;0;5,09;0;0;
20544;0;0;0;0;0;0;0;4,69;0;0;
20553;0;0;0;0;0;0;0;4,64;0;0;
20560;0;0;0;0;0;0;0;4,59;0;0;
20569;0;0;0;0;0;0;0;4,74;0;0;
20577;0;0;0;0;0;0;0;4,71;0;0;
20586;0;0;0;0;0;0;0;4,69;0;0;
20593;0;0;0;0;0;0;0;4,64;0;0;
20602;0;0;0;0;0;0;0;4,59;0;0;
20612;0;0;0;0;0;0;0;4,44;0;0;
20620;0;0;0;0;0;0;0;4,41;0;0;
20628;0;0;0;0;0;0;0;4,39;0;0;
20636;0;0;0;0;0;0;0;4,51;0;0;
20643;0;0;0;0;0;0;0;4,63;0;0;
20653;0;0;0;0;0;0;0;4,75;0;0;
20661;0;0;0;0;0;0;0;5,02;0;0;
20670;0;0;0;0;0;0;0;5,29;0;0;
20679;0;0;0;0;0;0;0;5,46;0;0;
20687;0;0;0;0;0;0;0;5,94;0;0;
20696;0;0;0;0;0;0;0;6,41;0;0;
20704;0;0;0;0;0;0;0;6,66;0;0;
20711;0;0;0;0;0;0;0;6,91;0;0;
20725;0;0;0;0;0;0;0;7,11;0;0;
20734;0;0;0;0;0;0;0;7,06;0;0;
20742;0;0;0;0;0;0;0;7,01;0;0;
20750;0;0;0;0;0;0;0;7,01;0;0;
20756;0;0;0;0;0;0;0;7,01;0;0;
20764;0;0;0;0;0;0;0;7,11;0;0;
20770;0;0;0;0;0;0;0;7,21;0;0;
20781;0;0;0;0;0;0;0;7,31;0;0;
20789;0;0;0;0;0;0;0;7,39;0;0;
20798;0;0;0;0;0;0;0;7,46;0;0;
20806;0;0;0;0;0;0;0;7,29;0;0;
20813;0;0;0;0;0;0;0;7,12;0;0;
20822;0;0;0;0;0;0;0;6,95;0;0;
20831;0;0;0;0;0;0;0;6,38;0;0;
20839;0;0;0;0;0;0;0;5,81;0;0;
20847;0;0;0;0;0;0;0;5,34;0;0;
20854;0;0;0;0;0;0;0;4,84;0;0;
20862;0;0;0;0;0;0;0;4,34;0;0;
20869;0;0;0;0;0;0;0;4,29;0;0;
20878;0;0;0;0;0;0;0;4,24;0;0;
20886;0;0;0;0;0;0;0;4,19;0;0;
20895;0;0;0;0;0;0;0;4,29;0;0;
20906;0;0;0;0;0;0;0;4,39;0;0;
20916;0;0;0;0;0;0;0;4,46;0;0;
20928;0;0;0;0;0;0;0;4,53;0;0;
20936;0;0;0;0;0;0;0;4,6;0;0;
20944;0;0;0;0;0;0;0;4,67;0;0;
20953;0;0;0;0;0;0;0;4,74;0;0;
20962;0;0;0;0;0;0;0;5,16;0;0;
20971;0;0;0;0;0;0;0;5,59;0;0;
20980;0;0;0;0;0;0;0;6,16;0;0;
20990;0;0;0;0;0;0;0;6,73;0;0;
20999;0;0;0;0;0;0;0;7,25;0;0;
21006;0;0;0;0;0;0;0;7,97;0;0;
21015;0;0;0;0;0;0;0;8,69;0;0;
21023;0;0;0;0;0;0;0;9,16;0;0;
21031;0;0;0;0;0;0;0;9,66;0;0;
21040;0;0;0;0;0;0;0;9,91;0;0;
21050;0;0;0;0;0;0;0;9,96;0;0;
21058;0;0;0;0;0;0;0;10,01;0;0;
21066;0;0;0;0;0;0;0;9,86;0;0;
21074;0;0;0;0;0;0;0;9,81;0;0;
21083;0;0;0;0;0;0;0;9,61;0;0;
21091;0;0;0;0;0;0;0;9,56;0;0;
21102;0;0;0;0;0;0;0;9,51;0;0;
21110;0;0;0;0;0;0;0;9,39;0;0;
21119;0;0;0;0;0;0;0;9,27;0;0;
21127;0;0;0;0;0;0;0;9,3;0;0;
21134;0;0;0;0;0;0;0;8,88;0;0;
21144;0;0;0;0;0;0;0;8,46;0;0;
21152;0;0;0;0;0;0;0;7,69;0;0;
21161;0;0;0;0;0;0;0;6,91;1;0;
21170;0;0;0;0;0;0;0;6,21;1;0;
21177;0;0;0;0;0;0;0;5,51;1;0;
21188;0;0;0;0;0;0;0;4,81;1;0;
21196;0;0;0;0;0;0;0;4,61;1;0;
21205;0;0;0;0;0;0;0;4,41;1;0;
21213;0;0;0;0;0;0;0;4,36;1;0;
21221;0;0;0;0;0;0;0;4,31;1;0;
21235;0;0;0;0;0;0;0;4,26;1;0;
21243;0;0;0;0;0;0;0;4,21;1;0;
21256;0;0;0;0;0;0;0;4,16;1;0;
21264;0;0;0;0;0;0;0;4,36;1;0;
21271;0;0;0;0;0;0;0;4,56;1;0;
21278;0;0;0;0;0;0;0;5,16;1;0;
21286;0;0;0;0;0;0;0;5,69;1;0;
21294;0;0;0;0;0;0;0;6,21;1;0;
21302;0;0;0;0;0;0;0;6,88;1;0;
21309;0;0;0;0;0;0;0;7,55;1;0;
21320;0;0;0;0;0;0;0;8,17;1;0;
21331;0;0;0;0;0;0;0;8,89;1;0;
21339;0;0;0;0;0;0;0;9,41;1;0;
21347;0;0;0;0;0;0;0;9,91;1;0;
21356;0;0;0;0;0;0;0;10,41;1;0;
21365;0;0;0;0;0;0;0;10,66;1;0;
21375;0;0;0;0;0;0;0;10,66;1;0;
21385;0;0;0;0;0;0;0;10,46;1;0;
21393;0;0;0;0;0;0;0;10,36;1;0;
21403;0;0;0;0;0;0;0;10,06;1;0;
21411;0;0;0;0;0;0;0;9,76;1;0;
21425;0;0;0;0;0;0;0;9,66;1;0;
21431;0;0;0;0;0;0;0;9,64;1;0;
21437;0;0;0;0;0;0;0;9,52;1;0;
21444;0;0;0;0;0;0;0;9,55;1;0;
21453;0;0;0;0;0;0;0;9,18;1;0;
21464;0;0;0;0;0;0;0;8,81;1;0;
21476;0;0;0;0;0;0;0;8,44;1;0;
21485;0;0;0;0;0;0;0;7,76;1;0;
21493;0;0;0;0;0;0;0;6,84;1;0;
21501;0;0;0;0;0;0;0;5,97;0;0;
21510;0;0;0;0;0;0;0;5,37;0;0;
21518;0;0;0;0;0;0;0;4,97;0;0;
21528;0;0;0;0;0;0;0;4,57;0;0;
21540;0;0;0;0;0;0;0;4,22;0;0;
21548;0;0;0;0;0;0;0;4,12;0;0;
21556;0;0;0;0;0;0;0;3,82;0;0;
21562;0;0;0;0;0;0;0;3,72;0;0;
21571;0;0;0;0;0;0;0;3,62;0;0;
21577;0;0;0;0;0;0;0;3,72;0;0;
21583;0;0;0;0;0;0;0;3,82;0;0;
21589;0;0;0;0;0;0;0;3,92;0;0;
21595;0;0;0;0;0;0;0;4,24;0;0;
21603;0;0;0;0;0;0;0;4,56;0;0;
21612;0;0;0;0;0;0;0;4,74;0;0;
21619;0;0;0;0;0;0;0;5,26;0;0;
21625;0;0;0;0;0;0;0;5,78;0;0;
21633;0;0;0;0;0;0;0;6,3;0;0;
21640;0;0;0;0;0;0;0;6,92;0;0;
21646;0;0;0;0;0;0;0;7,79;0;0;
21654;0;0;0;0;0;0;0;8,66;0;0;
21660;0;0;0;0;0;0;0;9,11;0;0;
21668;0;0;0;0;0;0;0;9,56;0;0;
21678;0;0;0;0;0;0;0;10,01;0;0;
21687;0;0;0;0;0;0;0;10,26;0;0;
21694;0;0;0;0;0;0;0;10,51;0;0;
21702;0;0;0;0;0;0;0;10,71;0;0;
21710;0;0;0;0;0;0;0;10,91;0;0;
21725;0;0;0;0;0;0;0;11,11;0;0;
21734;0;0;0;0;0;0;0;11,11;0;0;
21745;0;0;0;0;0;0;0;11,11;0;0;
21752;0;0;0;0;0;0;0;10,99;0;0;
21762;0;0;0;0;0;0;0;10,57;0;0;
21771;0;0;0;0;0;0;0;10,3;0;0;
21779;0;0;0;0;0;0;0;10,03;0;0;
21789;0;0;0;0;0;0;0;9,41;0;0;
21797;0;0;0;0;0;0;0;8,79;0;0;
21806;0;0;0;0;0;0;0;8,16;0;0;
21814;0;0;0;0;0;0;0;7,36;0;0;
21822;0;0;0;0;0;0;0;6,56;0;0;
21830;0;0;0;0;0;0;0;6,06;0;0;
21838;0;0;0;0;0;0;0;5,71;0;0;
21848;0;0;0;0;0;0;0;5,36;0;0;
21855;0;0;0;0;0;0;0;5,16;0;0;
21863;0;0;0;0;0;0;0;5,11;0;0;
21872;0;0;0;0;0;0;0;5,06;0;0;
21879;0;0;0;0;0;0;0;5,06;0;0;
21887;0;0;0;0;0;0;0;5,06;0;0;
21893;0;0;0;0;0;0;0;4,96;0;0;
21901;0;0;0;0;0;0;0;5,06;0;0;
21913;0;0;0;0;0;0;0;5,16;0;0;
21922;0;0;0;0;0;0;0;5,64;0;0;
21933;0;0;0;0;0;0;0;6,11;0;0;
21940;0;0;0;0;0;0;0;6,83;0;0;
21951;0;0;0;0;0;0;0;7,55;0;0;
21960;0;0;0;0;0;0;0;8,47;0;0;
21967;0;0;0;0;0;0;0;9,39;0;0;
21976;0;0;0;0;0;0;0;10,21;0;0;
21985;0;0;0;0;0;0;0;11,11;0;0;
21992;0;0;0;0;0;0;0;12,01;0;0;
22000;0;0;0;0;0;0;0;12,36;0;0;
22008;0;0;0;0;0;0;0;12,71;0;0;
22018;0;0;0;0;0;0;0;13,06;0;0;
22025;0;0;0;0;0;0;0;13,01;0;0;
22033;0;0;0;0;0;0;0;12,96;0;0;
22041;0;0;0;0;0;0;0;12,71;0;0;
22050;0;0;0;0;0;0;0;12,66;0;0;
22059;0;0;0;0;0;0;0;12,61;0;0;
22066;0;0;0;0;0;0;0;12,51;0;0;
22073;0;0;0;0;0;0;0;12,41;0;0;
22084;0;0;0;0;0;0;0;12,31;0;0;
22092;0;0;0;0;0;0;0;11,89;0;0;
22101;0;0;0;0;0;0;0;11,47;0;0;
22109;0;0;0;0;0;0;0;10,75;0;0;
22117;0;0;0;0;0;0;0;10,03;0;0;
22127;0;0;0;0;0;0;0;9,11;0;0;
22138;0;0;0;0;0;0;0;8,11;0;0;
22148;0;0;0;0;0;0;0;7,21;0;0;
22160;0;0;0;0;0;0;0;6,56;0;0;
22168;0;0;0;0;0;0;0;5,91;0;0;
22176;0;0;0;0;0;0;0;5,66;0;0;
22187;0;0;0;0;0;0;0;5,41;0;0;
22198;0;0;0;0;0;0;0;5,06;0;0;
22208;0;0;0;0;0;0;0;4,96;0;0;
22217;0;0;0;0;0;0;0;4,76;0;0;
22228;0;0;0;0;0;0;0;4,76;0;0;
22238;0;0;0;0;0;0;0;4,96;0;0;
22249;0;0;0;0;0;0;0;5,16;0;0;
22257;0;0;0;0;0;0;0;5,86;0;0;
22265;0;0;0;0;0;0;0;6,56;0;0;
22274;0;0;0;0;0;0;0;7,26;0;0;
22282;0;0;0;0;0;0;0;8,28;0;0;
22292;0;0;0;0;0;0;0;9,3;0;0;
22300;0;0;0;0;0;0;0;10,17;0;0;
22307;0;0;0;0;0;0;0;11,04;0;0;
22315;0;0;0;0;0;0;0;11,91;0;0;
22323;0;0;0;0;0;0;0;12,66;0;0;
22330;0;0;0;0;0;0;0;13,41;0;0;
22339;0;0;0;0;0;0;0;13,66;0;0;
22347;0;0;0;0;0;0;0;13,91;0;0;
22355;0;0;0;0;0;0;0;14,01;0;0;
22367;0;0;0;0;0;0;0;13,96;0;0;
22374;0;0;0;0;0;0;0;14,01;0;0;
22385;0;0;0;0;0;0;0;13,91;0;0;
22392;0;0;0;0;0;0;0;13,91;0;0;
22400;0;0;0;0;0;0;0;13,91;0;0;
22410;0;0;0;0;0;0;0;13,56;0;0;
22422;0;0;0;0;0;0;0;13,21;0;0;
22432;0;0;0;0;0;0;0;12,39;0;0;
22444;0;0;0;0;0;0;0;11,57;0;0;
22452;0;0;0;0;0;0;0;10,92;0;0;
22458;0;0;0;0;0;0;0;10,02;0;0;
22471;0;0;0;0;0;0;0;9,37;0;0;
22482;0;0;0;0;0;0;0;8,77;0;0;
22493;0;0;0;0;0;0;0;8,42;0;0;
22501;0;0;0;0;0;0;0;8,07;0;0;
22509;0;0;0;0;0;0;0;7,92;0;0;
22517;0;0;0;0;0;0;0;7,67;0;0;
22526;0;0;0;0;0;0;0;7,67;0;0;
22536;0;0;0;0;0;0;0;7,47;0;0;
22544;0;0;0;0;0;0;0;7,27;0;0;
22552;0;0;0;0;0;0;0;7,37;0;0;
22560;0;0;0;0;0;0;0;7,47;0;0;
22572;0;0;0;0;0;0;0;7,72;0;0;
22582;0;0;0;0;0;0;0;8,32;0;0;
22591;0;0;0;0;0;0;0;8,92;0;0;
22598;0;0;0;0;0;0;0;10,02;0;0;
22606;0;0;0;0;0;0;0;11,12;0;0;
22616;0;0;0;0;0;0;0;12,34;0;0;
22624;0;0;0;0;0;0;0;13,56;0;0;
22631;0;0;0;0;0;0;0;14,61;0;0;
22638;0;0;0;0;0;0;0;15,46;0;0;
22644;0;0;0;0;0;0;0;16,06;0;0;
22653;0;0;0;0;0;0;0;16,66;0;0;
22661;0;0;0;0;0;0;0;16,71;0;0;
22668;0;0;0;0;0;0;0;16,76;0;0;
22677;0;0;0;0;0;0;0;16,81;0;0;
22684;0;0;0;0;0;0;0;16,71;0;0;
22691;0;0;0;0;0;0;0;16,61;0;0;
22701;0;0;0;0;0;0;0;16,71;0;0;
22707;0;0;0;0;0;0;0;16,66;0;0;
22715;0;0;0;0;0;0;0;16,46;0;0;
22724;0;0;0;0;0;0;0;16,06;0;0;
22735;0;0;0;0;0;0;0;15,66;0;0;
22746;0;0;0;0;0;0;0;14,81;0;0;
22763;0;0;0;0;0;0;0;13,96;0;0;
22772;0;0;0;0;0;0;0;12,81;0;0;
22781;0;0;0;0;0;0;0;11,66;0;0;
22790;0;0;0;0;0;0;0;10,76;0;0;
22798;0;0;0;0;0;0;0;9,86;0;0;
22807;0;0;0;0;0;0;0;8,96;0;0;
22817;0;0;0;0;0;0;0;8,51;0;0;
22827;0;0;0;0;0;0;0;8,06;0;0;
22836;0;0;0;0;0;0;0;7,61;0;0;
22847;0;0;0;0;0;0;0;7,46;0;0;
22856;0;0;0;0;0;0;0;7,11;0;0;
22863;0;0;0;0;0;0;0;6,76;0;0;
22872;0;0;0;0;0;0;0;6,71;0;0;
22881;0;0;0;0;0;0;0;6,66;0;0;
22888;0;0;0;0;0;0;0;6,61;0;0;
22896;0;0;0;0;0;0;0;7,01;1;0;
22905;0;0;0;0;0;0;0;7,41;1;0;
22914;0;0;0;0;0;0;0;8,36;1;0;
22922;0;0;0;0;0;0;0;9,31;1;0;
22933;0;0;0;0;0;0;0;10,36;1;0;
22940;0;0;0;0;0;0;0;11,46;1;0;
22949;0;0;0;0;0;0;0;12,51;1;0;
22955;0;0;0;0;0;0;0;13,51;1;0;
22961;0;0;0;0;0;0;0;14,26;1;0;
22969;0;0;0;0;0;0;0;15,01;1;0;
22978;0;0;0;0;0;0;0;15,76;1;0;
22985;0;0;0;0;0;0;0;15,91;1;0;
22992;0;0;0;0;0;0;0;16,06;1;0;
23000;0;0;0;0;0;0;0;16,01;1;0;
23008;0;0;0;0;0;0;0;15,96;1;0;
23016;0;0;0;0;0;0;0;16,11;1;0;
23023;0;0;0;0;0;0;0;16,16;1;0;
23029;0;0;0;0;0;0;0;16,16;1;0;
23039;0;0;0;0;0;0;0;16,16;1;0;
23048;0;0;0;0;0;0;0;16,01;1;0;
23059;0;0;0;0;0;0;0;15,56;1;0;
23070;0;0;0;0;0;0;0;14,91;1;0;
23078;0;0;0;0;0;0;0;13,91;1;0;
23085;0;0;0;0;0;0;0;12,86;1;0;
23092;0;0;0;0;0;0;0;11,81;1;0;
23104;0;0;0;0;0;0;0;10,71;1;0;
23113;0;0;0;0;0;0;0;9,86;1;0;
23121;0;0;0;0;0;0;0;9,06;1;0;
23128;0;0;0;0;0;0;0;8,56;1;0;
23136;0;0;0;0;0;0;0;8,06;1;0;
23145;0;0;0;0;0;0;0;7,56;1;0;
23153;0;0;0;0;0;0;0;7,51;1;0;
23160;0;0;0;0;0;0;0;7,46;1;0;
23169;0;0;0;0;0;0;0;7,61;1;0;
23176;0;0;0;0;0;0;0;7,61;1;0;
23186;0;0;0;0;0;0;0;7,61;1;0;
23194;0;0;0;0;0;0;0;7,61;1;0;
23204;0;0;0;0;0;0;0;7,61;1;0;
23213;0;0;0;0;0;0;0;7,61;1;0;
23221;0;0;0;0;0;0;0;8,01;1;0;
23227;0;0;0;0;0;0;0;8,41;1;0;
23235;0;0;0;0;0;0;0;9,41;0;0;
23242;0;0;0;0;0;0;0;10,41;0;0;
23251;0;0;0;0;0;0;0;11,46;0;0;
23259;0;0;0;0;0;0;0;12,66;0;0;
23266;0;0;0;0;0;0;0;13,86;0;0;
23276;0;0;0;0;0;0;0;14,81;0;0;
23284;0;0;0;0;0;0;0;15,66;0;0;
23292;0;0;0;0;0;0;0;16,21;0;0;
23302;0;0;0;0;0;0;0;16,51;0;0;
23310;0;0;0;0;0;0;0;16,81;0;0;
23320;0;0;0;0;0;0;0;17,01;0;0;
23327;0;0;0;0;0;0;0;16,91;0;0;
23335;0;0;0;0;0;0;0;16,81;0;0;
23343;0;0;0;0;0;0;0;16,66;0;0;
23352;0;0;0;0;0;0;0;16,51;0;0;
23365;0;0;0;0;0;0;0;16,31;0;0;
23374;0;0;0;0;0;0;0;16,11;0;0;
23385;0;0;0;0;0;0;0;15,91;0;0;
23398;0;0;0;0;0;0;0;15,31;0;0;
23406;0;0;0;0;0;0;0;14,71;0;0;
23414;0;0;0;0;0;0;0;13,64;0;0;
23423;0;0;0;0;0;0;0;12,57;0;0;
23432;0;0;0;0;0;0;0;11,72;0;0;
23445;0;0;0;0;0;0;0;10,72;0;0;
23459;0;0;0;0;0;0;0;10,07;0;0;
23467;0;0;0;0;0;0;0;9,42;0;0;
23476;0;0;0;0;0;0;0;8,97;0;0;
23484;0;0;0;0;0;0;0;8,52;0;0;
23493;0;0;0;0;0;0;0;8,22;0;0;
23500;0;0;0;0;0;0;0;7,92;0;0;
23509;0;0;0;0;0;0;0;7,62;0;0;
23517;0;0;0;0;0;0;0;7,42;0;0;
23526;0;0;0;0;0;0;0;7,22;0;0;
23534;0;0;0;0;0;0;0;7,42;0;0;
23542;0;0;0;0;0;0;0;7,62;0;0;
23551;0;0;0;0;0;0;0;7,97;0;0;
23559;0;0;0;0;0;0;0;8,67;0;0;
23568;0;0;0;0;0;0;0;9,37;0;0;
23576;0;0;0;0;0;0;0;10,47;0;0;
23584;0;0;0;0;0;0;0;11,57;0;0;
23591;0;0;0;0;0;0;0;12,74;0;0;
23603;0;0;0;0;0;0;0;13,86;0;0;
23610;0;0;0;0;0;0;0;14,76;0;0;
23618;0;0;0;0;0;0;0;15,46;0;0;
23626;0;0;0;0;0;0;0;15,81;0;0;
23633;0;0;0;0;0;0;0;16,16;0;0;
23641;0;0;0;0;0;0;0;16,16;0;0;
23649;0;0;0;0;0;0;0;16,16;0;0;
23658;0;0;0;0;0;0;0;16,26;0;0;
23664;0;0;0;0;0;0;0;16,21;0;0;
23671;0;0;0;0;0;0;0;16,16;0;0;
23682;0;0;0;0;0;0;0;16,06;0;0;
23691;0;0;0;0;0;0;0;15,96;0;0;
23701;0;0;0;0;0;0;0;15,66;0;0;
23709;0;0;0;0;0;0;0;15,16;0;0;
23717;0;0;0;0;0;0;0;14,66;0;0;
23725;0;0;0;0;0;0;0;13,79;0;0;
23732;0;0;0;0;0;0;0;12,92;0;0;
23741;0;0;0;0;0;0;0;11,8;0;0;
23749;0;0;0;0;0;0;0;10,7;0;0;
23757;0;0;0;0;0;0;0;9,6;0;0;
23769;0;0;0;0;0;0;0;8,85;0;0;
23776;0;0;0;0;0;0;0;8,1;0;0;
23784;0;0;0;0;0;0;0;7,55;0;0;
23792;0;0;0;0;0;0;0;7,2;0;0;
23804;0;0;0;0;0;0;0;6,85;0;0;
23812;0;0;0;0;0;0;0;6,65;0;0;
23819;0;0;0;0;0;0;0;6,45;0;0;
23828;0;0;0;0;0;0;0;6,25;0;0;
23835;0;0;0;0;0;0;0;6;0;0;
23842;0;0;0;0;0;0;0;5,75;0;0;
23852;0;0;0;0;0;0;0;5,9;0;0;
23860;0;0;0;0;0;0;0;6,05;0;0;
23869;0;0;0;0;0;0;0;6,2;0;0;
23877;0;0;0;0;0;0;0;6,85;0;0;
23884;0;0;0;0;0;0;0;7,5;0;0;
23893;0;0;0;0;0;0;0;8,17;0;0;
23901;0;0;0;0;0;0;0;9,19;0;0;
23910;0;0;0;0;0;0;0;10,21;0;0;
23917;0;0;0;0;0;0;0;11,26;0;0;
23926;0;0;0;0;0;0;0;12,31;0;0;
23934;0;0;0;0;0;0;0;13,06;0;0;
23943;0;0;0;0;0;0;0;13,56;0;0;
23953;0;0;0;0;0;0;0;14,06;0;0;
23962;0;0;0;0;0;0;0;14,11;0;0;
23969;0;0;0;0;0;0;0;14,16;0;0;
23977;0;0;0;0;0;0;0;14,31;0;0;
23987;0;0;0;0;0;0;0;14,21;0;0;
23995;0;0;0;0;0;0;0;14,11;0;0;
24006;0;0;0;0;0;0;0;14,06;0;0;
24013;0;0;0;0;0;0;0;14,01;0;0;
24022;0;0;0;0;0;0;0;13,81;0;0;
24030;0;0;0;0;0;0;0;13,46;0;0;
24038;0;0;0;0;0;0;0;13,11;0;0;
24046;0;0;0;0;0;0;0;12,49;0;0;
24055;0;0;0;0;0;0;0;11,87;0;0;
24065;0;0;0;0;0;0;0;11,25;0;0;
24072;0;0;0;0;0;0;0;10,28;0;0;
24080;0;0;0;0;0;0;0;9,31;0;0;
24089;0;0;0;0;0;0;0;8,36;0;0;
24097;0;0;0;0;0;0;0;7,41;0;0;
24109;0;0;0;0;0;0;0;6,46;0;0;
24118;0;0;0;0;0;0;0;6,01;0;0;
24130;0;0;0;0;0;0;0;5,56;0;0;
24139;0;0;0;0;0;0;0;5,36;0;0;
24146;0;0;0;0;0;0;0;5,16;0;0;
24154;0;0;0;0;0;0;0;4,76;0;0;
24163;0;0;0;0;0;0;0;4,61;0;0;
24172;0;0;0;0;0;0;0;4,51;0;0;
24180;0;0;0;0;0;0;0;4,56;0;0;
24190;0;0;0;0;0;0;0;4,61;0;0;
24199;0;0;0;0;0;0;0;5,01;0;0;
24210;0;0;0;0;0;0;0;5,56;0;0;
24218;0;0;0;0;0;0;0;6,41;0;0;
24227;0;0;0;0;0;0;0;7,23;0;0;
24238;0;0;0;0;0;0;0;8,15;0;0;
24249;0;0;0;0;0;0;0;9,07;0;0;
24260;0;0;0;0;0;0;0;9,79;0;0;
24269;0;0;0;0;0;0;0;10,51;0;0;
24277;0;0;0;0;0;0;0;10,96;0;0;
24286;0;0;0;0;0;0;0;11,41;0;0;
24297;0;0;0;0;0;0;0;11,86;0;0;
24305;0;0;0;0;0;0;0;11,86;0;0;
24312;0;0;0;0;0;0;0;11,86;0;0;
24321;0;0;0;0;0;0;0;11,66;0;0;
24329;0;0;0;0;0;0;0;11,46;0;0;
24335;0;0;0;0;0;0;0;11,46;0;0;
24342;0;0;0;0;0;0;0;11,31;0;0;
24347;0;0;0;0;0;0;0;11,11;0;0;
24354;0;0;0;0;0;0;0;10,91;0;0;
24363;0;0;0;0;0;0;0;10,69;0;0;
24368;0;0;0;0;0;0;0;10,12;0;0;
24376;0;0;0;0;0;0;0;9,55;0;0;
24383;0;0;0;0;0;0;0;8,68;0;0;
24389;0;0;0;0;0;0;0;7,81;0;0;
24396;0;0;0;0;0;0;0;6,84;0;0;
24404;0;0;0;0;0;0;0;5,94;0;0;
24412;0;0;0;0;0;0;0;5,24;0;0;
24421;0;0;0;0;0;0;0;4,54;0;0;
24428;0;0;0;0;0;0;0;4,39;0;0;
24436;0;0;0;0;0;0;0;4,24;0;0;
24444;0;0;0;0;0;0;0;4,09;0;0;
24452;0;0;0;0;0;0;0;4,19;0;0;
24461;0;0;0;0;0;0;0;4,29;0;0;
24473;0;0;0;0;0;0;0;4,39;0;0;
24480;0;0;0;0;0;0;0;4,49;0;0;
24489;0;0;0;0;0;0;0;4,59;0;0;
24496;0;0;0;0;0;0;0;4,89;0;0;
24505;0;0;0;0;0;0;0;5,19;0;0;
24515;0;0;0;0;0;0;0;5,74;0;0;
24522;0;0;0;0;0;0;0;6,31;0;0;
24530;0;0;0;0;0;0;0;6,88;0;0;
24540;0;0;0;0;0;0;0;7,75;0;0;
24547;0;0;0;0;0;0;0;8,62;0;0;
24554;0;0;0;0;0;0;0;9,64;0;0;
24562;0;0;0;0;0;0;0;10,66;0;0;
24571;0;0;0;0;0;0;0;11,61;0;0;
24579;0;0;0;0;0;0;0;12,41;0;0;
24587;0;0;0;0;0;0;0;13,21;0;0;
24600;0;0;0;0;0;0;0;13,66;0;0;
24608;0;0;0;0;0;0;0;13,91;0;0;
24618;0;0;0;0;0;0;0;14,16;0;0;
24626;0;0;0;0;0;0;0;14,06;0;0;
24632;0;0;0;0;0;0;0;13,96;0;0;
24639;0;0;0;0;0;0;0;13,91;0;0;
24647;0;0;0;0;0;0;0;13,86;0;0;
24656;0;0;0;0;0;0;0;13,81;0;0;
24663;0;0;0;0;0;0;0;13,51;0;0;
24671;0;0;0;0;0;0;0;13,21;0;0;
24680;0;0;0;0;0;0;0;12,66;0;0;
24688;0;0;0;0;0;0;0;12,09;0;0;
24696;0;0;0;0;0;0;0;11,52;1;0;
24704;0;0;0;0;0;0;0;10,75;1;0;
24711;0;0;0;0;0;0;0;9,98;1;0;
24723;0;0;0;0;0;0;0;9,06;1;0;
24732;0;0;0;0;0;0;0;8,01;1;0;
24739;0;0;0;0;0;0;0;6,96;1;0;
24748;0;0;0;0;0;0;0;6,41;1;0;
24759;0;0;0;0;0;0;0;5,86;1;0;
24768;0;0;0;0;0;0;0;5,41;1;0;
24777;0;0;0;0;0;0;0;5,16;1;0;
24785;0;0;0;0;0;0;0;4,91;1;0;
24792;0;0;0;0;0;0;0;4,86;1;0;
24801;0;0;0;0;0;0;0;4,81;1;0;
24808;0;0;0;0;0;0;0;4,91;1;0;
24822;0;0;0;0;0;0;0;4,86;1;0;
24829;0;0;0;0;0;0;0;4,81;1;0;
24837;0;0;0;0;0;0;0;5,21;1;0;
24846;0;0;0;0;0;0;0;5,61;1;0;
24854;0;0;0;0;0;0;0;6,31;1;0;
24863;0;0;0;0;0;0;0;7,03;1;0;
24872;0;0;0;0;0;0;0;7,75;1;0;
24880;0;0;0;0;0;0;0;8,67;1;0;
24888;0;0;0;0;0;0;0;9,59;1;0;
24896;0;0;0;0;0;0;0;10,46;1;0;
24904;0;0;0;0;0;0;0;11,46;1;0;
24914;0;0;0;0;0;0;0;12,46;1;0;
24923;0;0;0;0;0;0;0;12,91;1;0;
24930;0;0;0;0;0;0;0;13,36;1;0;
24942;0;0;0;0;0;0;0;13,41;1;0;
24950;0;0;0;0;0;0;0;13,46;1;0;
24959;0;0;0;0;0;0;0;13,51;1;0;
24969;0;0;0;0;0;0;0;13,51;1;0;
24980;0;0;0;0;0;0;0;13,51;1;0;
24987;0;0;0;0;0;0;0;13,31;1;0;
24995;0;0;0;0;0;0;0;13,26;1;0;
25004;0;0;0;0;0;0;0;13,04;1;0;
25012;0;0;0;0;0;0;0;12,57;1;0;
25026;0;0;0;0;0;0;0;12,1;1;0;
25034;0;0;0;0;0;0;0;11,48;1;0;
25042;0;0;0;0;0;0;0;10,86;1;0;
25049;0;0;0;0;0;0;0;10,14;1;0;
25058;0;0;0;0;0;0;0;9,11;0;0;
25066;0;0;0;0;0;0;0;8,09;0;0;
25073;0;0;0;0;0;0;0;7,29;0;0;
25081;0;0;0;0;0;0;0;6,49;0;0;
25089;0;0;0;0;0;0;0;5,94;0;0;
25096;0;0;0;0;0;0;0;5,59;0;0;
25107;0;0;0;0;0;0;0;5,24;0;0;
25118;0;0;0;0;0;0;0;5,09;0;0;
25127;0;0;0;0;0;0;0;4,94;0;0;
25136;0;0;0;0;0;0;0;4,64;0;0;
25144;0;0;0;0;0;0;0;4,49;0;0;
25152;0;0;0;0;0;0;0;4,44;0;0;
25160;0;0;0;0;0;0;0;4,59;0;0;
25168;0;0;0;0;0;0;0;4,74;0;0;
25175;0;0;0;0;0;0;0;5,46;0;0;
25182;0;0;0;0;0;0;0;6,19;0;0;
25190;0;0;0;0;0;0;0;6,91;0;0;
25197;0;0;0;0;0;0;0;7,78;0;0;
25204;0;0;0;0;0;0;0;8,65;0;0;
25215;0;0;0;0;0;0;0;9,62;0;0;
25228;0;0;0;0;0;0;0;10,69;0;0;
25238;0;0;0;0;0;0;0;11,76;0;0;
25248;0;0;0;0;0;0;0;12,46;0;0;
25256;0;0;0;0;0;0;0;13,16;0;0;
25263;0;0;0;0;0;0;0;13,31;0;0;
25269;0;0;0;0;0;0;0;13,46;0;0;
25278;0;0;0;0;0;0;0;13,61;0;0;
25287;0;0;0;0;0;0;0;13,71;0;0;
25296;0;0;0;0;0;0;0;13,81;0;0;
25303;0;0;0;0;0;0;0;13,91;0;0;
25311;0;0;0;0;0;0;0;14,01;0;0;
25320;0;0;0;0;0;0;0;14,01;0;0;
25327;0;0;0;0;0;0;0;13,81;0;0;
25336;0;0;0;0;0;0;0;13,61;0;0;
25344;0;0;0;0;0;0;0;12,89;0;0;
25351;0;0;0;0;0;0;0;12,17;0;0;
25358;0;0;0;0;0;0;0;11,45;0;0;
25365;0;0;0;0;0;0;0;10,45;0;0;
25372;0;0;0;0;0;0;0;9,45;0;0;
25382;0;0;0;0;0;0;0;8,45;0;0;
25389;0;0;0;0;0;0;0;7,65;0;0;
25398;0;0;0;0;0;0;0;6,85;0;0;
25406;0;0;0;0;0;0;0;6,55;0;0;
25413;0;0;0;0;0;0;0;6,25;0;0;
25423;0;0;0;0;0;0;0;6,25;0;0;
25433;0;0;0;0;0;0;0;6,25;0;0;
25441;0;0;0;0;0;0;0;6,25;0;0;
25450;0;0;0;0;0;0;0;6,2;0;0;
25457;0;0;0;0;0;0;0;6,15;0;0;
25466;0;0;0;0;0;0;0;6,25;0;0;
25473;0;0;0;0;0;0;0;6,35;0;0;
25482;0;0;0;0;0;0;0;6,45;0;0;
25493;0;0;0;0;0;0;0;6,75;0;0;
25506;0;0;0;0;0;0;0;7,35;0;0;
25514;0;0;0;0;0;0;0;8,07;0;0;
25521;0;0;0;0;0;0;0;9,14;0;0;
25527;0;0;0;0;0;0;0;10,21;0;0;
25535;0;0;0;0;0;0;0;11,31;0;0;
25541;0;0;0;0;0;0;0;12,41;0;0;
25551;0;0;0;0;0;0;0;13,51;0;0;
25559;0;0;0;0;0;0;0;14,11;0;0;
25567;0;0;0;0;0;0;0;14,71;0;0;
25577;0;0;0;0;0;0;0;15,01;0;0;
25586;0;0;0;0;0;0;0;15,16;0;0;
25594;0;0;0;0;0;0;0;15,31;0;0;
25604;0;0;0;0;0;0;0;15,16;0;0;
25613;0;0;0;0;0;0;0;15,01;0;0;
25623;0;0;0;0;0;0;0;14,91;0;0;
25637;0;0;0;0;0;0;0;14,81;0;0;
25646;0;0;0;0;0;0;0;14,56;0;0;
25655;0;0;0;0;0;0;0;14,31;0;0;
25664;0;0;0;0;0;0;0;13,89;0;0;
25678;0;0;0;0;0;0;0;13,47;0;0;
25686;0;0;0;0;0;0;0;12,8;0;0;
25694;0;0;0;0;0;0;0;12,13;0;0;
25703;0;0;0;0;0;0;0;11,11;0;0;
25712;0;0;0;0;0;0;0;10,21;0;0;
25717;0;0;0;0;0;0;0;9,26;0;0;
25724;0;0;0;0;0;0;0;8,31;0;0;
25729;0;0;0;0;0;0;0;7,61;0;0;
25735;0;0;0;0;0;0;0;7,11;0;0;
25741;0;0;0;0;0;0;0;6,61;0;0;
25750;0;0;0;0;0;0;0;6,21;0;0;
25756;0;0;0;0;0;0;0;5,96;0;0;
25764;0;0;0;0;0;0;0;5,71;0;0;
25770;0;0;0;0;0;0;0;5,56;0;0;
25777;0;0;0;0;0;0;0;5,41;0;0;
25787;0;0;0;0;0;0;0;5,41;0;0;
25794;0;0;0;0;0;0;0;5,31;0;0;
25803;0;0;0;0;0;0;0;5,36;0;0;
25811;0;0;0;0;0;0;0;5,66;0;0;
25819;0;0;0;0;0;0;0;6,13;0;0;
25828;0;0;0;0;0;0;0;6,6;0;0;
25838;0;0;0;0;0;0;0;7,47;0;0;
25848;0;0;0;0;0;0;0;8,34;0;0;
25856;0;0;0;0;0;0;0;9,36;0;0;
25865;0;0;0;0;0;0;0;10,26;0;0;
25876;0;0;0;0;0;0;0;11,06;0;0;
25884;0;0;0;0;0;0;0;11,86;0;0;
25893;0;0;0;0;0;0;0;12,41;0;0;
25901;0;0;0;0;0;0;0;12,71;0;0;
25910;0;0;0;0;0;0;0;13,01;0;0;
25918;0;0;0;0;0;0;0;12,91;0;0;
25927;0;0;0;0;0;0;0;12,81;0;0;
25938;0;0;0;0;0;0;0;12,71;0;0;
25946;0;0;0;0;0;0;0;12,61;0;0;
25955;0;0;0;0;0;0;0;12,51;0;0;
25963;0;0;0;0;0;0;0;12,26;0;0;
25970;0;0;0;0;0;0;0;12,11;0;0;
25978;0;0;0;0;0;0;0;11,96;0;0;
25987;0;0;0;0;0;0;0;11,59;0;0;
25995;0;0;0;0;0;0;0;11,22;0;0;
26004;0;0;0;0;0;0;0;10,95;0;0;
26010;0;0;0;0;0;0;0;10,23;0;0;
26017;0;0;0;0;0;0;0;9,51;0;0;
26023;0;0;0;0;0;0;0;8,44;0;0;
26030;0;0;0;0;0;0;0;7,36;0;0;
26041;0;0;0;0;0;0;0;6,39;0;0;
26049;0;0;0;0;0;0;0;5,74;0;0;
26057;0;0;0;0;0;0;0;5,09;0;0;
26065;0;0;0;0;0;0;0;4,69;0;0;
26071;0;0;0;0;0;0;0;4,44;0;0;
26079;0;0;0;0;0;0;0;4,49;0;0;
26088;0;0;0;0;0;0;0;4,54;0;0;
26094;0;0;0;0;0;0;0;4,54;0;0;
26101;0;0;0;0;0;0;0;4,74;0;0;
26110;0;0;0;0;0;0;0;4,84;0;0;
26117;0;0;0;0;0;0;0;5,09;0;0;
26126;0;0;0;0;0;0;0;5,34;0;0;
26133;0;0;0;0;0;0;0;5,79;0;0;
26139;0;0;0;0;0;0;0;6,21;0;0;
26149;0;0;0;0;0;0;0;6,64;0;0;
26156;0;0;0;0;0;0;0;7,31;0;0;
26163;0;0;0;0;0;0;0;7,98;0;0;
26172;0;0;0;0;0;0;0;8,65;0;0;
26179;0;0;0;0;0;0;0;9,77;0;0;
26188;0;0;0;0;0;0;0;10,89;0;0;
26197;0;0;0;0;0;0;0;11,91;0;0;
26206;0;0;0;0;0;0;0;12,61;0;0;
26213;0;0;0;0;0;0;0;13,31;0;0;
26221;0;0;0;0;0;0;0;13,71;0;0;
26228;0;0;0;0;0;0;0;13,96;0;0;
26238;0;0;0;0;0;0;0;13,96;0;0;
26249;0;0;0;0;0;0;0;13,96;0;0;
26257;0;0;0;0;0;0;0;14,01;0;0;
26264;0;0;0;0;0;0;0;13,86;0;0;
26271;0;0;0;0;0;0;0;13,81;0;0;
26281;0;0;0;0;0;0;0;13,76;0;0;
26289;0;0;0;0;0;0;0;13,56;0;0;
26297;0;0;0;0;0;0;0;13,16;0;0;
26306;0;0;0;0;0;0;0;12,69;0;0;
26312;0;0;0;0;0;0;0;12,22;0;0;
26321;0;0;0;0;0;0;0;11,4;0;0;
26330;0;0;0;0;0;0;0;10,73;0;0;
26337;0;0;0;0;0;0;0;10,06;0;0;
26345;0;0;0;0;0;0;0;8,99;0;0;
26352;0;0;0;0;0;0;0;7,91;0;0;
26361;0;0;0;0;0;0;0;6,94;0;0;
26369;0;0;0;0;0;0;0;6,14;0;0;
26377;0;0;0;0;0;0;0;5,34;0;0;
26385;0;0;0;0;0;0;0;5,04;0;0;
26394;0;0;0;0;0;0;0;4,74;0;0;
26405;0;0;0;0;0;0;0;4,69;0;0;
26412;0;0;0;0;0;0;0;4,59;0;0;
26421;0;0;0;0;0;0;0;4,49;0;0;
26429;0;0;0;0;0;0;0;4,39;0;0;
26440;0;0;0;0;0;0;0;4,29;0;0;
26451;0;0;0;0;0;0;0;4,19;0;0;
26459;0;0;0;0;0;0;0;4,34;1;0;
26469;0;0;0;0;0;0;0;4,49;1;0;
26477;0;0;0;0;0;0;0;5,06;1;0;
26486;0;0;0;0;0;0;0;5,64;1;0;
26494;0;0;0;0;0;0;0;6,56;1;0;
26502;0;0;0;0;0;0;0;7,33;1;0;
26517;0;0;0;0;0;0;0;8,1;1;0;
26524;0;0;0;0;0;0;0;9,02;1;0;
26530;0;0;0;0;0;0;0;9,94;1;0;
26536;0;0;0;0;0;0;0;10,66;1;0;
26543;0;0;0;0;0;0;0;11,21;1;0;
26552;0;0;0;0;0;0;0;11,76;1;0;
26558;0;0;0;0;0;0;0;11,81;1;0;
26565;0;0;0;0;0;0;0;11,86;1;0;
26573;0;0;0;0;0;0;0;11,91;1;0;
26581;0;0;0;0;0;0;0;11,81;1;0;
26589;0;0;0;0;0;0;0;11,71;1;0;
26596;0;0;0;0;0;0;0;11,81;1;0;
26604;0;0;0;0;0;0;0;11,76;1;0;
26611;0;0;0;0;0;0;0;11,71;1;0;
26619;0;0;0;0;0;0;0;11,46;1;0;
26628;0;0;0;0;0;0;0;11,21;1;0;
26638;0;0;0;0;0;0;0;10,61;1;0;
26646;0;0;0;0;0;0;0;10,14;1;0;
26657;0;0;0;0;0;0;0;9,32;1;0;
26666;0;0;0;0;0;0;0;8,45;1;0;
26674;0;0;0;0;0;0;0;7,58;1;0;
26683;0;0;0;0;0;0;0;6,71;1;0;
26690;0;0;0;0;0;0;0;5,86;1;0;
26697;0;0;0;0;0;0;0;5,21;1;0;
26707;0;0;0;0;0;0;0;4,86;1;0;
26720;0;0;0;0;0;0;0;4,51;1;0;
26727;0;0;0;0;0;0;0;4,41;1;0;
26735;0;0;0;0;0;0;0;4,31;1;0;
26742;0;0;0;0;0;0;0;4,21;1;0;
26751;0;0;0;0;0;0;0;4,11;1;0;
26759;0;0;0;0;0;0;0;4,01;1;0;
26769;0;0;0;0;0;0;0;3,91;1;0;
26777;0;0;0;0;0;0;0;4,01;1;0;
26785;0;0;0;0;0;0;0;4,11;1;0;
26791;0;0;0;0;0;0;0;4,71;1;0;
26799;0;0;0;0;0;0;0;5,31;1;0;
26809;0;0;0;0;0;0;0;5,91;1;0;
26817;0;0;0;0;0;0;0;6,73;0;0;
26825;0;0;0;0;0;0;0;7,55;0;0;
26835;0;0;0;0;0;0;0;8,52;0;0;
26844;0;0;0;0;0;0;0;9,49;0;0;
26854;0;0;0;0;0;0;0;10,46;0;0;
26865;0;0;0;0;0;0;0;11,26;0;0;
26873;0;0;0;0;0;0;0;12,06;0;0;
26883;0;0;0;0;0;0;0;12,26;0;0;
26891;0;0;0;0;0;0;0;12,46;0;0;
26898;0;0;0;0;0;0;0;12,51;0;0;
26907;0;0;0;0;0;0;0;12,56;0;0;
26917;0;0;0;0;0;0;0;12,61;0;0;
26926;0;0;0;0;0;0;0;12,71;0;0;
26937;0;0;0;0;0;0;0;12,81;0;0;
26946;0;0;0;0;0;0;0;12,76;0;0;
26955;0;0;0;0;0;0;0;12,66;0;0;
26964;0;0;0;0;0;0;0;12,44;0;0;
26972;0;0;0;0;0;0;0;11,82;0;0;
26984;0;0;0;0;0;0;0;11,2;0;0;
26991;0;0;0;0;0;0;0;10,58;0;0;
27001;0;0;0;0;0;0;0;9,61;0;0;
27013;0;0;0;0;0;0;0;8,81;0;0;
27024;0;0;0;0;0;0;0;7,91;0;0;
27039;0;0;0;0;0;0;0;7,31;0;0;
27048;0;0;0;0;0;0;0;6,71;0;0;
27055;0;0;0;0;0;0;0;6,31;0;0;
27082;0;0;0;0;0;0;0;5,91;0;0;
27090;0;0;0;0;0;0;0;5,56;0;0;
27099;0;0;0;0;0;0;0;5,21;0;0;
27106;0;0;0;0;0;0;0;5,01;0;0;
27115;0;0;0;0;0;0;0;4,81;0;0;
27122;0;0;0;0;0;0;0;4,91;0;0;
27128;0;0;0;0;0;0;0;5,16;0;0;
27133;0;0;0;0;0;0;0;5,81;0;0;
27139;0;0;0;0;0;0;0;6,61;0;0;
27146;0;0;0;0;0;0;0;7,41;0;0;
27152;0;0;0;0;0;0;0;8,48;0;0;
27158;0;0;0;0;0;0;0;9,55;0;0;
27167;0;0;0;0;0;0;0;10,62;0;0;
27173;0;0;0;0;0;0;0;11,59;0;0;
27180;0;0;0;0;0;0;0;12,56;0;0;
27186;0;0;0;0;0;0;0;13,36;0;0;
27195;0;0;0;0;0;0;0;14,16;0;0;
27202;0;0;0;0;0;0;0;14,36;0;0;
27208;0;0;0;0;0;0;0;14,56;0;0;
27217;0;0;0;0;0;0;0;14,71;0;0;
27224;0;0;0;0;0;0;0;14,66;0;0;
27231;0;0;0;0;0;0;0;14,86;0;0;
27238;0;0;0;0;0;0;0;14,86;0;0;
27245;0;0;0;0;0;0;0;14,91;0;0;
27255;0;0;0;0;0;0;0;14,96;0;0;
27262;0;0;0;0;0;0;0;14,51;0;0;
27272;0;0;0;0;0;0;0;14,06;0;0;
27280;0;0;0;0;0;0;0;13,19;0;0;
27289;0;0;0;0;0;0;0;12,32;0;0;
27299;0;0;0;0;0;0;0;11,45;0;0;
27308;0;0;0;0;0;0;0;10,43;0;0;
27315;0;0;0;0;0;0;0;9,41;0;0;
27325;0;0;0;0;0;0;0;8,46;0;0;
27334;0;0;0;0;0;0;0;7,61;0;0;
27344;0;0;0;0;0;0;0;6,76;0;0;
27353;0;0;0;0;0;0;0;6,21;0;0;
27361;0;0;0;0;0;0;0;5,66;0;0;
27370;0;0;0;0;0;0;0;5,51;0;0;
27378;0;0;0;0;0;0;0;5,36;0;0;
27388;0;0;0;0;0;0;0;5,06;0;0;
27396;0;0;0;0;0;0;0;4,96;0;0;
27407;0;0;0;0;0;0;0;4,86;0;0;
27413;0;0;0;0;0;0;0;4,81;0;0;
27421;0;0;0;0;0;0;0;4,76;0;0;
27434;0;0;0;0;0;0;0;4,71;0;0;
27441;0;0;0;0;0;0;0;5,06;0;0;
27450;0;0;0;0;0;0;0;5,41;0;0;
27458;0;0;0;0;0;0;0;6,18;0;0;
27465;0;0;0;0;0;0;0;6,95;0;0;
27475;0;0;0;0;0;0;0;7,97;0;0;
27483;0;0;0;0;0;0;0;8,99;0;0;
27491;0;0;0;0;0;0;0;10,01;0;0;
27498;0;0;0;0;0;0;0;10,96;0;0;
27506;0;0;0;0;0;0;0;11,91;0;0;
27515;0;0;0;0;0;0;0;12,56;0;0;
27523;0;0;0;0;0;0;0;12,91;0;0;
27531;0;0;0;0;0;0;0;13,26;0;0;
27544;0;0;0;0;0;0;0;13,31;0;0;
27552;0;0;0;0;0;0;0;13,36;0;0;
27559;0;0;0;0;0;0;0;13,31;0;0;
27566;0;0;0;0;0;0;0;13,26;0;0;
27575;0;0;0;0;0;0;0;13,21;0;0;
27582;0;0;0;0;0;0;0;13,16;0;0;
27588;0;0;0;0;0;0;0;13,11;0;0;
27596;0;0;0;0;0;0;0;13,06;0;0;
27606;0;0;0;0;0;0;0;12,66;0;0;
27613;0;0;0;0;0;0;0;12,26;0;0;
27622;0;0;0;0;0;0;0;11,46;0;0;
27628;0;0;0;0;0;0;0;10,69;0;0;
27636;0;0;0;0;0;0;0;9,67;0;0;
27643;0;0;0;0;0;0;0;8,62;0;0;
27650;0;0;0;0;0;0;0;7,57;0;0;
27659;0;0;0;0;0;0;0;6,52;0;0;
27668;0;0;0;0;0;0;0;5,72;0;0;
27679;0;0;0;0;0;0;0;5,22;0;0;
27687;0;0;0;0;0;0;0;4,97;0;0;
27697;0;0;0;0;0;0;0;4,72;0;0;
27706;0;0;0;0;0;0;0;4,67;0;0;
27717;0;0;0;0;0;0;0;4,57;0;0;
27729;0;0;0;0;0;0;0;4,72;0;0;
27737;0;0;0;0;0;0;0;4,77;0;0;
27745;0;0;0;0;0;0;0;4,82;0;0;
27753;0;0;0;0;0;0;0;5,07;0;0;
27762;0;0;0;0;0;0;0;5,32;0;0;
27770;0;0;0;0;0;0;0;5,57;0;0;
27778;0;0;0;0;0;0;0;6,37;0;0;
27787;0;0;0;0;0;0;0;7,17;0;0;
27796;0;0;0;0;0;0;0;8,22;0;0;
27804;0;0;0;0;0;0;0;9,24;0;0;
27813;0;0;0;0;0;0;0;10,31;0;0;
27824;0;0;0;0;0;0;0;11,41;0;0;
27835;0;0;0;0;0;0;0;12,51;0;0;
27842;0;0;0;0;0;0;0;13,41;0;0;
27851;0;0;0;0;0;0;0;14,06;0;0;
27859;0;0;0;0;0;0;0;14,41;0;0;
27867;0;0;0;0;0;0;0;14,51;0;0;
27877;0;0;0;0;0;0;0;14,61;0;0;
27889;0;0;0;0;0;0;0;14,56;0;0;
27897;0;0;0;0;0;0;0;14,56;0;0;
27904;0;0;0;0;0;0;0;14,36;0;0;
27912;0;0;0;0;0;0;0;14,26;0;0;
27922;0;0;0;0;0;0;0;14,06;0;0;
27932;0;0;0;0;0;0;0;13,81;0;0;
27940;0;0;0;0;0;0;0;13,56;0;0;
27948;0;0;0;0;0;0;0;13,19;0;0;
27956;0;0;0;0;0;0;0;12,42;0;0;
27968;0;0;0;0;0;0;0;11,62;0;0;
27976;0;0;0;0;0;0;0;10,57;0;0;
27984;0;0;0;0;0;0;0;9,82;0;0;
27991;0;0;0;0;0;0;0;9,02;0;0;
28001;0;0;0;0;0;0;0;8,22;0;0;
28009;0;0;0;0;0;0;0;7,72;0;0;
28019;0;0;0;0;0;0;0;7,42;0;0;
28028;0;0;0;0;0;0;0;7,12;0;0;
28038;0;0;0;0;0;0;0;7,12;0;0;
28046;0;0;0;0;0;0;0;7,12;0;0;
28055;0;0;0;0;0;0;0;6,92;0;0;
28062;0;0;0;0;0;0;0;6,87;0;0;
28069;0;0;0;0;0;0;0;6,82;0;0;
28076;0;0;0;0;0;0;0;6,97;0;0;
28085;0;0;0;0;0;0;0;7,12;0;0;
28101;0;0;0;0;0;0;0;7,72;0;0;
28108;0;0;0;0;0;0;0;8,32;0;0;
28117;0;0;0;0;0;0;0;9,27;0;0;
28124;0;0;0;0;0;0;0;10,34;0;0;
28133;0;0;0;0;0;0;0;11,51;0;0;
28140;0;0;0;0;0;0;0;12,71;0;0;
28149;0;0;0;0;0;0;0;13,91;0;0;
28157;0;0;0;0;0;0;0;14,66;0;0;
28165;0;0;0;0;0;0;0;15,41;0;0;
28172;0;0;0;0;0;0;0;16,16;0;0;
28180;0;0;0;0;0;0;0;16,36;0;0;
28188;0;0;0;0;0;0;0;16,56;0;0;
28197;0;0;0;0;0;0;0;16,76;0;0;
28204;0;0;0;0;0;0;0;16,71;0;0;
28212;0;0;0;0;0;0;0;16,66;0;0;
28221;0;0;0;0;0;0;0;16,61;0;0;
28228;0;0;0;0;0;0;0;16,56;0;0;
28237;0;0;0;0;0;0;0;16,51;1;0;
28245;0;0;0;0;0;0;0;16,31;1;0;
28256;0;0;0;0;0;0;0;16,11;1;0;
28263;0;0;0;0;0;0;0;15,41;1;0;
28271;0;0;0;0;0;0;0;14,71;1;0;
28279;0;0;0;0;0;0;0;13,66;1;0;
28290;0;0;0;0;0;0;0;12,56;1;0;
28302;0;0;0;0;0;0;0;11,36;1;0;
28310;0;0;0;0;0;0;0;10,41;1;0;
28320;0;0;0;0;0;0;0;9,46;1;0;
28328;0;0;0;0;0;0;0;8,96;1;0;
28337;0;0;0;0;0;0;0;8,46;1;0;
28347;0;0;0;0;0;0;0;8,01;1;0;
28356;0;0;0;0;0;0;0;7,81;1;0;
28364;0;0;0;0;0;0;0;7,61;1;0;
28372;0;0;0;0;0;0;0;7,21;1;0;
28381;0;0;0;0;0;0;0;7,06;1;0;
28388;0;0;0;0;0;0;0;6,86;1;0;
28397;0;0;0;0;0;0;0;6,86;1;0;
28408;0;0;0;0;0;0;0;6,86;1;0;
28416;0;0;0;0;0;0;0;7,11;1;0;
28426;0;0;0;0;0;0;0;7,51;1;0;
28434;0;0;0;0;0;0;0;8,31;1;0;
28442;0;0;0;0;0;0;0;9,26;1;0;
28451;0;0;0;0;0;0;0;10,21;1;0;
28460;0;0;0;0;0;0;0;11,26;1;0;
28466;0;0;0;0;0;0;0;12,36;1;0;
28475;0;0;0;0;0;0;0;13,31;1;0;
28484;0;0;0;0;0;0;0;14,01;1;0;
28493;0;0;0;0;0;0;0;14,71;1;0;
28503;0;0;0;0;0;0;0;14,81;1;0;
28509;0;0;0;0;0;0;0;14,91;1;0;
28514;0;0;0;0;0;0;0;14,71;1;0;
28521;0;0;0;0;0;0;0;14,51;1;0;
28527;0;0;0;0;0;0;0;14,31;1;0;
28535;0;0;0;0;0;0;0;14,16;1;0;
28542;0;0;0;0;0;0;0;14,01;1;0;
28551;0;0;0;0;0;0;0;13,91;1;0;
28558;0;0;0;0;0;0;0;13,66;1;0;
28566;0;0;0;0;0;0;0;13,41;1;0;
28573;0;0;0;0;0;0;0;12,91;1;0;
28580;0;0;0;0;0;0;0;12,34;1;0;
28588;0;0;0;0;0;0;0;11,37;1;0;
28597;0;0;0;0;0;0;0;10,4;0;0;
28604;0;0;0;0;0;0;0;9,48;0;0;
28611;0;0;0;0;0;0;0;8,46;0;0;
28621;0;0;0;0;0;0;0;7,44;0;0;
28628;0;0;0;0;0;0;0;6,54;0;0;
28636;0;0;0;0;0;0;0;5,64;0;0;
28646;0;0;0;0;0;0;0;5,04;0;0;
28654;0;0;0;0;0;0;0;4,74;0;0;
28664;0;0;0;0;0;0;0;4,44;0;0;
28671;0;0;0;0;0;0;0;4,59;0;0;
28680;0;0;0;0;0;0;0;4,74;0;0;
28690;0;0;0;0;0;0;0;4,74;0;0;
28699;0;0;0;0;0;0;0;4,89;0;0;
28712;0;0;0;0;0;0;0;5,04;0;0;
28721;0;0;0;0;0;0;0;5,04;0;0;
28735;0;0;0;0;0;0;0;5,19;0;0;
28743;0;0;0;0;0;0;0;5,54;0;0;
28755;0;0;0;0;0;0;0;5,89;0;0;
28763;0;0;0;0;0;0;0;6,76;0;0;
28775;0;0;0;0;0;0;0;7,63;0;0;
28783;0;0;0;0;0;0;0;8,7;0;0;
28791;0;0;0;0;0;0;0;9,72;0;0;
28802;0;0;0;0;0;0;0;10,69;0;0;
28810;0;0;0;0;0;0;0;11,66;0;0;
28818;0;0;0;0;0;0;0;12,41;0;0;
28825;0;0;0;0;0;0;0;13,16;0;0;
28835;0;0;0;0;0;0;0;13,61;0;0;
28845;0;0;0;0;0;0;0;13,76;0;0;
28851;0;0;0;0;0;0;0;13,91;0;0;
28860;0;0;0;0;0;0;0;13,61;0;0;
28869;0;0;0;0;0;0;0;13,31;0;0;
28879;0;0;0;0;0;0;0;13,16;0;0;
28887;0;0;0;0;0;0;0;12,86;0;0;
28896;0;0;0;0;0;0;0;12,56;0;0;
28906;0;0;0;0;0;0;0;12,29;0;0;
28915;0;0;0;0;0;0;0;12,02;0;0;
28923;0;0;0;0;0;0;0;11,7;0;0;
28930;0;0;0;0;0;0;0;11,38;0;0;
28944;0;0;0;0;0;0;0;10,61;0;0;
28951;0;0;0;0;0;0;0;9,69;0;0;
28959;0;0;0;0;0;0;0;8,56;0;0;
28969;0;0;0;0;0;0;0;7,71;0;0;
28978;0;0;0;0;0;0;0;6,91;0;0;
28986;0;0;0;0;0;0;0;6,31;0;0;
28998;0;0;0;0;0;0;0;5,96;0;0;
29007;0;0;0;0;0;0;0;5,61;0;0;
29014;0;0;0;0;0;0;0;5,16;0;0;
29022;0;0;0;0;0;0;0;5,01;0;0;
29029;0;0;0;0;0;0;0;4,66;0;0;
29038;0;0;0;0;0;0;0;4,56;0;0;
29048;0;0;0;0;0;0;0;4,46;0;0;
29055;0;0;0;0;0;0;0;4,51;0;0;
29065;0;0;0;0;0;0;0;4,71;0;0;
29072;0;0;0;0;0;0;0;5,26;0;0;
29078;0;0;0;0;0;0;0;5,94;0;0;
29086;0;0;0;0;0;0;0;6,61;0;0;
29093;0;0;0;0;0;0;0;7,48;0;0;
29100;0;0;0;0;0;0;0;8,35;0;0;
29108;0;0;0;0;0;0;0;9,22;0;0;
29119;0;0;0;0;0;0;0;10,24;0;0;
29126;0;0;0;0;0;0;0;11,26;0;0;
29133;0;0;0;0;0;0;0;11,81;0;0;
29140;0;0;0;0;0;0;0;12,36;0;0;
29151;0;0;0;0;0;0;0;12,71;0;0;
29159;0;0;0;0;0;0;0;12,81;0;0;
29167;0;0;0;0;0;0;0;12,91;0;0;
29176;0;0;0;0;0;0;0;12,91;0;0;
29184;0;0;0;0;0;0;0;12,91;0;0;
29190;0;0;0;0;0;0;0;13,11;0;0;
29199;0;0;0;0;0;0;0;13,11;0;0;
29206;0;0;0;0;0;0;0;13,11;0;0;
29215;0;0;0;0;0;0;0;12,96;0;0;
29223;0;0;0;0;0;0;0;12,66;0;0;
29230;0;0;0;0;0;0;0;12,01;0;0;
29240;0;0;0;0;0;0;0;11,36;0;0;
29247;0;0;0;0;0;0;0;10,79;0;0;
29256;0;0;0;0;0;0;0;9,87;0;0;
29268;0;0;0;0;0;0;0;8,85;0;0;
29276;0;0;0;0;0;0;0;7,83;0;0;
29285;0;0;0;0;0;0;0;7,08;0;0;
29292;0;0;0;0;0;0;0;6,33;0;0;
29301;0;0;0;0;0;0;0;5,78;0;0;
29433;0;0;0;0;0;0;0;5,48;0;0;
29455;0;0;0;0;0;0;0;5,18;0;0;
29463;0;0;0;0;0;0;0;5,08;0;0;
29471;0;0;0;0;0;0;0;4,98;0;0;
29479;0;0;0;0;0;0;0;4,88;0;0;
29488;0;0;0;0;0;0;0;4,78;0;0;
29497;0;0;0;0;0;0;0;4,78;0;0;
29505;0;0;0;0;0;0;0;4,98;0;0;
29512;0;0;0;0;0;0;0;5,48;0;0;
29520;0;0;0;0;0;0;0;5,98;0;0;
29529;0;0;0;0;0;0;0;6,98;0;0;
29536;0;0;0;0;0;0;0;7,98;0;0;
29543;0;0;0;0;0;0;0;9,03;0;0;
29550;0;0;0;0;0;0;0;10;0;0;
29559;0;0;0;0;0;0;0;10,77;0;0;
29567;0;0;0;0;0;0;0;11,64;0;0;
29574;0;0;0;0;0;0;0;12,31;0;0;
29582;0;0;0;0;0;0;0;12,71;0;0;
29590;0;0;0;0;0;0;0;12,86;0;0;
29598;0;0;0;0;0;0;0;13,01;0;0;
29607;0;0;0;0;0;0;0;12,76;0;0;
29620;0;0;0;0;0;0;0;12,51;0;0;
29629;0;0;0;0;0;0;0;12,11;0;0;
29639;0;0;0;0;0;0;0;11,71;0;0;
29651;0;0;0;0;0;0;0;11,49;0;0;
29662;0;0;0;0;0;0;0;11,27;0;0;
29672;0;0;0;0;0;0;0;10,9;0;0;
29684;0;0;0;0;0;0;0;10,53;0;0;
29697;0;0;0;0;0;0;0;10,03;0;0;
29709;0;0;0;0;0;0;0;9,53;0;0;
29718;0;0;0;0;0;0;0;9,03;0;0;
29752;0;0;0;0;0;0;0;8,53;0;0;
29762;0;0;0;0;0;0;0;7,98;0;0;
29772;0;0;0;0;0;0;0;7,43;0;0;
29782;0;0;0;0;0;0;0;6,93;0;0;
29790;0;0;0;0;0;0;0;6,43;0;0;
29805;0;0;0;0;0;0;0;6,13;0;0;
29815;0;0;0;0;0;0;0;5,83;0;0;
29824;0;0;0;0;0;0;0;6,08;0;0;
29834;0;0;0;0;0;0;0;6,33;0;0;
29842;0;0;0;0;0;0;0;7,08;0;0;
29855;0;0;0;0;0;0;0;7,83;0;0;
29866;0;0;0;0;0;0;0;8,88;0;0;
29877;0;0;0;0;0;0;0;9,93;0;0;
29884;0;0;0;0;0;0;0;10,85;0;0;
29892;0;0;0;0;0;0;0;11,77;0;0;
29900;0;0;0;0;0;0;0;12,49;0;0;
29912;0;0;0;0;0;0;0;13,21;0;0;
29924;0;0;0;0;0;0;0;13,56;0;0;
29931;0;0;0;0;0;0;0;13,91;0;0;
29938;0;0;0;0;0;0;0;13,71;0;0;
29944;0;0;0;0;0;0;0;13,51;0;0;
29950;0;0;0;0;0;0;0;13,16;0;0;
29956;0;0;0;0;0;0;0;12,81;0;0;
29961;0;0;0;0;0;0;0;12,51;0;0;
29969;0;0;0;0;0;0;0;12,21;0;0;
29977;0;0;0;0;0;0;0;11,84;0;0;
29983;0;0;0;0;0;0;0;11,47;0;0;
29989;0;0;0;0;0;0;0;10,97;0;0;
29997;0;0;0;0;0;0;0;10,47;0;0;
30003;0;0;0;0;0;0;0;10,07;0;0;
30010;0;0;0;0;0;0;0;9,67;0;0;
30018;0;0;0;0;0;0;0;10,77;0;0;
30025;0;0;0;0;0;0;0;11,87;0;0;
30032;0;0;0;0;0;0;0;13,67;0;0;
30039;0;0;0;0;0;0;0;15,47;0;0;
30046;0;0;0;0;0;0;0;23,77;0;0;
30055;0;0;0;0;0;0;0;32,07;0;0;
30065;0;0;0;0;0;0;0;42,87;1;0;
30072;0;0;0;0;0;0;0;53,67;1;0;
30079;0;0;0;0;0;0;0;72,52;1;0;
30085;0;0;0;0;0;0;0;91,37;1;0;
30094;0;0;0;0;0;0;0;107,72;1;0;
30101;0;0;0;0;0;0;0;124,07;1;0;
30113;0;0;0;0;0;0;0;138,67;1;0;
30122;0;0;0;0;0;0;0;153,27;1;0;
30129;0;0;0;0;0;0;0;165,14;1;0;
30138;0;0;0;0;0;0;0;177,01;1;0;
30145;0;0;0;0;0;0;0;186,16;1;0;
30152;0;0;0;0;0;0;0;195,31;1;0;
30159;0;0;0;0;0;0;0;201,31;1;0;
30167;0;0;0;0;0;0;0;207,31;1;0;
30175;0;0;0;0;0;0;0;211,71;1;0;
30182;0;0;0;0;0;0;0;214,96;1;0;
30190;0;0;0;0;0;0;0;217,66;1;0;
30200;0;0;0;0;0;0;0;218,61;1;0;
30208;0;0;0;0;0;0;0;213,31;1;0;
30218;0;0;0;0;0;0;0;208,01;1;0;
30226;0;0;0;0;0;0;0;198,96;1;0;
30234;0;0;0;0;0;0;0;189,91;1;0;
30242;0;0;0;0;0;0;0;172,36;1;0;
30255;0;0;0;0;0;0;0;154,81;1;0;
30268;0;0;0;0;0;0;0;139,76;1;0;
30274;0;0;0;0;0;0;0;124,71;1;0;
30280;0;0;0;0;0;0;0;111,51;1;0;
30288;0;0;0;0;0;0;0;98,11;1;0;
30294;0;0;0;0;0;0;0;87,51;1;0;
30305;0;0;0;0;0;0;0;76,91;1;0;
30312;0;0;0;0;0;0;0;68,56;1;0;
30320;0;0;0;0;0;0;0;60,21;1;0;
30327;0;0;0;0;0;0;0;54,16;1;0;
30334;0;0;0;0;0;0;0;48,11;1;0;
30343;0;0;0;0;0;0;0;42,06;1;0;
30351;0;0;0;0;0;0;0;37,26;1;0;
30358;0;0;0;0;0;0;0;32,46;1;0;
30369;0;0;0;0;0;0;0;29,41;1;0;
30376;0;0;0;0;0;0;0;26,61;1;0;
30384;0;0;0;0;0;0;0;23,81;1;0;
30390;0;0;0;0;0;0;0;22,71;1;0;
30398;0;0;0;0;0;0;0;21,61;1;0;
30406;0;0;0;0;0;0;0;21,16;1;0;
30415;0;0;0;0;0;0;0;20,66;1;0;
30422;0;0;0;0;0;0;0;20,31;1;0;
30430;0;0;0;0;0;0;0;19,96;0;0;
30437;0;0;0;0;0;0;0;19,41;0;0;
30443;0;0;0;0;0;0;0;19,06;0;0;
30452;0;0;0;0;0;0;0;18,71;0;0;
30459;0;0;0;0;0;0;0;18,06;0;0;
30469;0;0;0;0;0;0;0;17,71;0;0;
30476;0;0;0;0;0;0;0;17,21;0;0;
30483;0;0;0;0;0;0;0;17,11;0;0;
30492;0;0;0;0;0;0;0;17,01;0;0;
30499;0;0;0;0;0;0;0;16,71;0;0;
30507;0;0;0;0;0;0;0;16,31;0;0;
30516;0;0;0;0;0;0;0;15,91;0;0;
30524;0;0;0;0;0;0;0;15,31;0;0;
30533;0;0;0;0;0;0;0;14,46;0;0;
30541;0;0;0;0;0;0;0;13,59;0;0;
30548;0;0;0;0;0;0;0;12,47;0;0;
30556;0;0;0;0;0;0;0;11,35;0;0;
30562;0;0;0;0;0;0;0;10,2;0;0;
30569;0;0;0;0;0;0;0;9,1;0;0;
30577;0;0;0;0;0;0;0;8;0;0;
30586;0;0;0;0;0;0;0;7,2;0;0;
30593;0;0;0;0;0;0;0;6,6;0;0;
30602;0;0;0;0;0;0;0;6;0;0;
30609;0;0;0;0;0;0;0;5,7;0;0;
30616;0;0;0;0;0;0;0;5,7;0;0;
30624;0;0;0;0;0;0;0;5,6;0;0;
30630;0;0;0;0;0;0;0;5,65;0;0;
30638;0;0;0;0;0;0;0;5,7;0;0;
30646;0;0;0;0;0;0;0;5,5;0;0;
30653;0;0;0;0;0;0;0;5,5;0;0;
30660;0;0;0;0;0;0;0;5,5;0;0;
30668;0;0;0;0;0;0;0;5,6;0;0;
30675;0;0;0;0;0;0;0;5,9;0;0;
30685;0;0;0;0;0;0;0;6,2;0;0;
30692;0;0;0;0;0;0;0;6,77;0;0;
30699;0;0;0;0;0;0;0;7,34;0;0;
30708;0;0;0;0;0;0;0;7,91;0;0;
30715;0;0;0;0;0;0;0;8,81;0;0;
30723;0;0;0;0;0;0;0;9,71;0;0;
30731;0;0;0;0;0;0;0;11,06;0;0;
30740;0;0;0;0;0;0;0;12,11;0;0;
30748;0;0;0;0;0;0;0;13,16;0;0;
30756;0;0;0;0;0;0;0;13,46;0;0;
30763;0;0;0;0;0;0;0;13,46;0;0;
30772;0;0;0;0;0;0;0;13,46;0;0;
30780;0;0;0;0;0;0;0;15,41;0;0;
30789;0;0;0;0;0;0;0;17,36;0;0;
30796;0;0;0;0;0;0;0;20,76;0;0;
30805;0;0;0;0;0;0;0;24,41;0;0;
30813;0;0;0;0;0;0;0;28,06;0;0;
30822;0;0;0;0;0;0;0;32,16;0;0;
30829;0;0;0;0;0;0;0;36,16;0;0;
30837;0;0;0;0;0;0;0;45,16;0;0;
30848;0;0;0;0;0;0;0;54,16;0;0;
30857;0;0;0;0;0;0;0;62,91;0;0;
30865;0;0;0;0;0;0;0;71,91;0;0;
30875;0;0;0;0;0;0;0;80,91;0;0;
30883;0;0;0;0;0;0;0;90,11;0;0;
30890;0;0;0;0;0;0;0;99,31;0;0;
30899;0;0;0;0;0;0;0;108,06;0;0;
30907;0;0;0;0;0;0;0;123,16;0;0;
30915;0;0;0;0;0;0;0;138,26;0;0;
30922;0;0;0;0;0;0;0;154,11;0;0;
30930;0;0;0;0;0;0;0;166,91;0;0;
30939;0;0;0;0;0;0;0;179,71;0;0;
30946;0;0;0;0;0;0;0;186,91;0;0;
30956;0;0;0;0;0;0;0;194,11;0;0;
30963;0;0;0;0;0;0;0;199,86;0;0;
30970;0;0;0;0;0;0;0;204,31;0;0;
30980;0;0;0;0;0;0;0;208,76;0;0;
30987;0;0;0;0;0;0;0;211,21;0;0;
30995;0;0;0;0;0;0;0;213,66;0;0;
31006;0;0;0;0;0;0;0;211,11;0;0;
31013;0;0;0;0;0;0;0;209,36;0;0;
31020;0;0;0;0;0;0;0;207,61;0;0;
31030;0;0;0;0;0;0;0;204,01;0;0;
31037;0;0;0;0;0;0;0;200,41;0;0;
31045;0;0;0;0;0;0;0;196,31;0;0;
31054;0;0;0;0;0;0;0;190,66;0;0;
31061;0;0;0;0;0;0;0;185,01;0;0;
31071;0;0;0;0;0;0;0;173,01;0;0;
31082;0;0;0;0;0;0;0;159,76;0;0;
31089;0;0;0;0;0;0;0;146,51;0;0;
31098;0;0;0;0;0;0;0;135,36;0;0;
31106;0;0;0;0;0;0;0;124,21;0;0;
31117;0;0;0;0;0;0;0;116,81;0;0;
31124;0;0;0;0;0;0;0;108,66;0;0;
31133;0;0;0;0;0;0;0;100,51;0;0;
31140;0;0;0;0;0;0;0;92,96;0;0;
31147;0;0;0;0;0;0;0;85,41;0;0;
31155;0;0;0;0;0;0;0;79,41;0;0;
31165;0;0;0;0;0;0;0;73,06;0;0;
31172;0;0;0;0;0;0;0;66,71;0;0;
31179;0;0;0;0;0;0;0;59,31;0;0;
31187;0;0;0;0;0;0;0;51,91;0;0;
31197;0;0;0;0;0;0;0;46,11;0;0;
31207;0;0;0;0;0;0;0;40,11;0;0;
31215;0;0;0;0;0;0;0;34,11;0;0;
31222;0;0;0;0;0;0;0;29,76;0;0;
31229;0;0;0;0;0;0;0;25,41;0;0;
31236;0;0;0;0;0;0;0;21,06;0;0;
31243;0;0;0;0;0;0;0;18,21;0;0;
31249;0;0;0;0;0;0;0;15,36;0;0;
31259;0;0;0;0;0;0;0;13,46;0;0;
31265;0;0;0;0;0;0;0;11,66;0;0;
31272;0;0;0;0;0;0;0;9,86;0;0;
31281;0;0;0;0;0;0;0;8,81;0;0;
31289;0;0;0;0;0;0;0;7,56;0;0;
31295;0;0;0;0;0;0;0;7,01;0;0;
31305;0;0;0;0;0;0;0;6,46;0;0;
31312;0;0;0;0;0;0;0;5,81;0;0;
31319;0;0;0;0;0;0;0;5,51;0;0;
31327;0;0;0;0;0;0;0;5,21;0;0;
31336;0;0;0;0;0;0;0;5,36;0;0;
31342;0;0;0;0;0;0;0;5,51;0;0;
31349;0;0;0;0;0;0;0;6,01;0;0;
31357;0;0;0;0;0;0;0;6,71;0;0;
31365;0;0;0;0;0;0;0;7,41;0;0;
31373;0;0;0;0;0;0;0;8,16;0;0;
31379;0;0;0;0;0;0;0;8,91;0;0;
31387;0;0;0;0;0;0;0;9,66;0;0;
31394;0;0;0;0;0;0;0;10,06;0;0;
31401;0;0;0;0;0;0;0;10,46;0;0;
31410;0;0;0;0;0;0;0;10,86;0;0;
31416;0;0;0;0;0;0;0;10,86;0;0;
31422;0;0;0;0;0;0;0;10,86;0;0;
31430;0;0;0;0;0;0;0;10,86;0;0;
31437;0;0;0;0;0;0;0;10,86;0;0;
31444;0;0;0;0;0;0;0;10,86;0;0;
31455;0;0;0;0;0;0;0;10,86;0;0;
31461;0;0;0;0;0;0;0;10,86;0;0;
31468;0;0;0;0;0;0;0;10,86;0;0;
31479;0;0;0;0;0;0;0;10,86;0;0;
31490;0;0;0;0;0;0;0;10,49;0;0;
31497;0;0;0;0;0;0;0;10,12;0;0;
31506;0;0;0;0;0;0;0;9,55;0;0;
31512;0;0;0;0;0;0;0;8,98;0;0;
31521;0;0;0;0;0;0;0;8,51;0;0;
31528;0;0;0;0;0;0;0;7,89;0;0;
31537;0;0;0;0;0;0;0;7,26;0;0;
31543;0;0;0;0;0;0;0;6,44;0;0;
31551;0;0;0;0;0;0;0;5,72;0;0;
31560;0;0;0;0;0;0;0;5;0;0;
31568;0;0;0;0;0;0;0;4,45;0;0;
31575;0;0;0;0;0;0;0;4,2;0;0;
31582;0;0;0;0;0;0;0;4,1;0;0;
31589;0;0;0;0;0;0;0;4;0;0;
31598;0;0;0;0;0;0;0;4,1;0;0;
31605;0;0;0;0;0;0;0;4,1;0;0;
31613;0;0;0;0;0;0;0;4,1;0;0;
31620;0;0;0;0;0;0;0;4,2;0;0;
31629;0;0;0;0;0;0;0;4,15;0;0;
31637;0;0;0;0;0;0;0;4,1;0;0;
31645;0;0;0;0;0;0;0;4,22;0;0;
31653;0;0;0;0;0;0;0;4,49;0;0;
31661;0;0;0;0;0;0;0;4,61;0;0;
31669;0;0;0;0;0;0;0;5,04;0;0;
31676;0;0;0;0;0;0;0;5,36;0;0;
31684;0;0;0;0;0;0;0;5,68;0;0;
31695;0;0;0;0;0;0;0;6,3;0;0;
31702;0;0;0;0;0;0;0;7,12;0;0;
31711;0;0;0;0;0;0;0;7,94;0;0;
31719;0;0;0;0;0;0;0;8,71;0;0;
31726;0;0;0;0;0;0;0;9,31;0;0;
31734;0;0;0;0;0;0;0;11,01;0;0;
31743;0;0;0;0;0;0;0;12,56;0;0;
31752;0;0;0;0;0;0;0;14,11;0;0;
31760;0;0;0;0;0;0;0;18,06;0;0;
31766;0;0;0;0;0;0;0;22,11;0;0;
31775;0;0;0;0;0;0;0;28,26;0;0;
31787;0;0;0;0;0;0;0;34,41;0;0;
31796;0;0;0;0;0;0;0;44,11;0;0;
31805;0;0;0;0;0;0;0;53,81;0;0;
31813;0;0;0;0;0;0;0;63,51;0;0;
31821;0;0;0;0;0;0;0;77,81;0;0;
31828;0;0;0;0;0;0;0;92,11;0;0;
31837;0;0;0;0;0;0;0;106,11;0;0;
31845;0;0;0;0;0;0;0;118,46;0;0;
31852;0;0;0;0;0;0;0;130,81;0;0;
31859;0;0;0;0;0;0;0;142,86;0;0;
31866;0;0;0;0;0;0;0;152,76;1;0;
31874;0;0;0;0;0;0;0;162,66;1;0;
31882;0;0;0;0;0;0;0;173,26;1;0;
31891;0;0;0;0;0;0;0;183,86;1;0;
31902;0;0;0;0;0;0;0;193,36;1;0;
31910;0;0;0;0;0;0;0;203,31;1;0;
31919;0;0;0;0;0;0;0;213,26;1;0;
31926;0;0;0;0;0;0;0;220,06;1;0;
31934;0;0;0;0;0;0;0;226,86;1;0;
31940;0;0;0;0;0;0;0;231,56;1;0;
31948;0;0;0;0;0;0;0;235,51;1;0;
31957;0;0;0;0;0;0;0;236,06;1;0;
31966;0;0;0;0;0;0;0;236,61;1;0;
31972;0;0;0;0;0;0;0;235,86;1;0;
31979;0;0;0;0;0;0;0;230,36;1;0;
31988;0;0;0;0;0;0;0;222,41;1;0;
31996;0;0;0;0;0;0;0;214,46;1;0;
32004;0;0;0;0;0;0;0;208,16;1;0;
32012;0;0;0;0;0;0;0;200,16;1;0;
32019;0;0;0;0;0;0;0;192,16;1;0;
32027;0;0;0;0;0;0;0;186,31;1;0;
32036;0;0;0;0;0;0;0;179,31;1;0;
32042;0;0;0;0;0;0;0;171,66;1;0;
32051;0;0;0;0;0;0;0;164,01;1;0;
32059;0;0;0;0;0;0;0;155,16;1;0;
32066;0;0;0;0;0;0;0;145,86;1;0;
32074;0;0;0;0;0;0;0;135,66;1;0;
32081;0;0;0;0;0;0;0;126,21;1;0;
32091;0;0;0;0;0;0;0;116,76;1;0;
32102;0;0;0;0;0;0;0;106,76;1;0;
32111;0;0;0;0;0;0;0;97,51;1;0;
32118;0;0;0;0;0;0;0;87,91;1;0;
32127;0;0;0;0;0;0;0;78,31;1;0;
32134;0;0;0;0;0;0;0;70,01;1;0;
32142;0;0;0;0;0;0;0;61,71;1;0;
32149;0;0;0;0;0;0;0;55,86;1;0;
32158;0;0;0;0;0;0;0;49,61;1;0;
32165;0;0;0;0;0;0;0;43,36;1;0;
32176;0;0;0;0;0;0;0;38,81;1;0;
32185;0;0;0;0;0;0;0;34,11;1;0;
32192;0;0;0;0;0;0;0;29,41;1;0;
32201;0;0;0;0;0;0;0;25,86;1;0;
32211;0;0;0;0;0;0;0;22,61;1;0;
32219;0;0;0;0;0;0;0;19,36;1;0;
32227;0;0;0;0;0;0;0;17,51;0;0;
32233;0;0;0;0;0;0;0;15,66;0;0;
32241;0;0;0;0;0;0;0;14,71;0;0;
32248;0;0;0;0;0;0;0;13,61;0;0;
32256;0;0;0;0;0;0;0;12,51;0;0;
32265;0;0;0;0;0;0;0;11,71;0;0;
32271;0;0;0;0;0;0;0;10,91;0;0;
32282;0;0;0;0;0;0;0;10,46;0;0;
32290;0;0;0;0;0;0;0;10,01;0;0;
32297;0;0;0;0;0;0;0;9,56;0;0;
32306;0;0;0;0;0;0;0;9,11;0;0;
32313;0;0;0;0;0;0;0;8,91;0;0;
32320;0;0;0;0;0;0;0;9,11;0;0;
32328;0;0;0;0;0;0;0;9,31;0;0;
32335;0;0;0;0;0;0;0;9,86;0;0;
32341;0;0;0;0;0;0;0;10,56;0;0;
32349;0;0;0;0;0;0;0;11,26;0;0;
32357;0;0;0;0;0;0;0;12,01;0;0;
32363;0;0;0;0;0;0;0;12,46;0;0;
32373;0;0;0;0;0;0;0;12,71;0;0;
32381;0;0;0;0;0;0;0;12,76;0;0;
32390;0;0;0;0;0;0;0;12,81;0;0;
32397;0;0;0;0;0;0;0;12,56;0;0;
32406;0;0;0;0;0;0;0;12,46;0;0;
32414;0;0;0;0;0;0;0;12,11;0;0;
32420;0;0;0;0;0;0;0;12,01;0;0;
32428;0;0;0;0;0;0;0;11,91;0;0;
32436;0;0;0;0;0;0;0;11,66;0;0;
32443;0;0;0;0;0;0;0;11,41;0;0;
32452;0;0;0;0;0;0;0;11,16;0;0;
32460;0;0;0;0;0;0;0;10,89;0;0;
32466;0;0;0;0;0;0;0;10,37;0;0;
32477;0;0;0;0;0;0;0;9,85;0;0;
32487;0;0;0;0;0;0;0;9,38;0;0;
32493;0;0;0;0;0;0;0;8,56;0;0;
32501;0;0;0;0;0;0;0;8,51;0;0;
32509;0;0;0;0;0;0;0;8,46;0;0;
32520;0;0;0;0;0;0;0;8,36;0;0;
32528;0;0;0;0;0;0;0;12,71;0;0;
32536;0;0;0;0;0;0;0;17,26;0;0;
32546;0;0;0;0;0;0;0;21,46;0;0;
32553;0;0;0;0;0;0;0;25,66;0;0;
32562;0;0;0;0;0;0;0;30,16;0;0;
32569;0;0;0;0;0;0;0;36,11;0;0;
32578;0;0;0;0;0;0;0;42,31;0;0;
32585;0;0;0;0;0;0;0;51,86;0;0;
32592;0;0;0;0;0;0;0;61,41;0;0;
32600;0;0;0;0;0;0;0;71,11;0;0;
32610;0;0;0;0;0;0;0;82,46;0;0;
32619;0;0;0;0;0;0;0;93,81;0;0;
32632;0;0;0;0;0;0;0;107,53;0;0;
32639;0;0;0;0;0;0;0;121,25;0;0;
32650;0;0;0;0;0;0;0;132,87;0;0;
32656;0;0;0;0;0;0;0;144,44;0;0;
32665;0;0;0;0;0;0;0;156,01;0;0;
32672;0;0;0;0;0;0;0;168,56;0;0;
32678;0;0;0;0;0;0;0;181,11;0;0;
32688;0;0;0;0;0;0;0;193,66;0;0;
32694;0;0;0;0;0;0;0;201,91;0;0;
32700;0;0;0;0;0;0;0;210,16;0;0;
32711;0;0;0;0;0;0;0;218,76;0;0;
32718;0;0;0;0;0;0;0;229,71;0;0;
32724;0;0;0;0;0;0;0;240,66;0;0;
32736;0;0;0;0;0;0;0;250,16;0;0;
32745;0;0;0;0;0;0;0;258,21;0;0;
32753;0;0;0;0;0;0;0;262,91;0;0;
32759;0;0;0;0;0;0;0;265,56;0;0;
32766;0;0;0;0;0;0;0;268,21;0;0;
32774;0;0;0;0;0;0;0;269,21;0;0;
32781;0;0;0;0;0;0;0;271,41;0;0;
32788;0;0;0;0;0;0;0;271,26;1;0;
32797;0;0;0;0;0;0;0;271,11;1;0;
32805;0;0;0;0;0;0;0;270,76;1;0;
32813;0;0;0;0;0;0;0;270,41;1;0;
32820;0;0;0;0;0;0;0;270,71;1;0;
32828;0;0;0;0;0;0;0;269,26;1;0;
32837;0;0;0;0;0;0;0;267,81;1;0;
32843;0;0;0;0;0;0;0;263,76;1;0;
32851;0;0;0;0;0;0;0;259,56;1;0;
32861;0;0;0;0;0;0;0;255,36;1;0;
32869;0;0;0;0;0;0;0;248,91;1;0;
32876;0;0;0;0;0;0;0;240,11;1;0;
32884;0;0;0;0;0;0;0;231,16;1;0;
32894;0;0;0;0;0;0;0;222,21;1;0;
32902;0;0;0;0;0;0;0;214,71;1;0;
32912;0;0;0;0;0;0;0;205,31;1;0;
32919;0;0;0;0;0;0;0;197,96;1;0;
32927;0;0;0;0;0;0;0;188,91;1;0;
32936;0;0;0;0;0;0;0;179,86;1;0;
32945;0;0;0;0;0;0;0;169,61;1;0;
32953;0;0;0;0;0;0;0;158,56;1;0;
32961;0;0;0;0;0;0;0;147,51;1;0;
32970;0;0;0;0;0;0;0;138,81;1;0;
32978;0;0;0;0;0;0;0;130,11;1;0;
32986;0;0;0;0;0;0;0;120,76;1;0;
32994;0;0;0;0;0;0;0;111,41;1;0;
33003;0;0;0;0;0;0;0;102,06;1;0;
33013;0;0;0;0;0;0;0;94,71;1;0;
33022;0;0;0;0;0;0;0;87,36;1;0;
33032;0;0;0;0;0;0;0;80,01;1;0;
33042;0;0;0;0;0;0;0;74,41;1;0;
33050;0;0;0;0;0;0;0;68,81;1;0;
33058;0;0;0;0;0;0;0;62,86;1;0;
33065;0;0;0;0;0;0;0;56,91;1;0;
33075;0;0;0;0;0;0;0;50,46;1;0;
33081;0;0;0;0;0;0;0;45,91;1;0;
33090;0;0;0;0;0;0;0;41,36;1;0;
33099;0;0;0;0;0;0;0;38,26;1;0;
33107;0;0;0;0;0;0;0;35,16;1;0;
33121;0;0;0;0;0;0;0;32,06;1;0;
33129;0;0;0;0;0;0;0;29,51;1;0;
33140;0;0;0;0;0;0;0;26,96;1;0;
33153;0;0;0;0;0;0;0;24,54;0;0;
33160;0;0;0;0;0;0;0;22,12;0;0;
33169;0;0;0;0;0;0;0;19,55;0;0;
33178;0;0;0;0;0;0;0;16,98;0;0;
33186;0;0;0;0;0;0;0;14,68;0;0;
33195;0;0;0;0;0;0;0;12,98;0;0;
33203;0;0;0;0;0;0;0;11,48;0;0;
33210;0;0;0;0;0;0;0;9,98;0;0;
33219;0;0;0;0;0;0;0;8,98;0;0;
33227;0;0;0;0;0;0;0;7,88;0;0;
33235;0;0;0;0;0;0;0;7,28;0;0;
33243;0;0;0;0;0;0;0;6,68;0;0;
33250;0;0;0;0;0;0;0;6,53;0;0;
33258;0;0;0;0;0;0;0;6,38;0;0;
33267;0;0;0;0;0;0;0;7,08;0;0;
33275;0;0;0;0;0;0;0;8,03;0;0;
33284;0;0;0;0;0;0;0;8,98;0;0;
33293;0;0;0;0;0;0;0;10,53;0;0;
33304;0;0;0;0;0;0;0;12,33;0;0;
33312;0;0;0;0;0;0;0;17,78;0;0;
33322;0;0;0;0;0;0;0;23,05;0;0;
33331;0;0;0;0;0;0;0;28,32;0;0;
33339;0;0;0;0;0;0;0;34,94;0;0;
33346;0;0;0;0;0;0;0;41,56;0;0;
33355;0;0;0;0;0;0;0;52,86;0;0;
33362;0;0;0;0;0;0;0;64,16;0;0;
33372;0;0;0;0;0;0;0;75,26;0;0;
33379;0;0;0;0;0;0;0;87,21;0;0;
33386;0;0;0;0;0;0;0;99,16;0;0;
33393;0;0;0;0;0;0;0;110,61;0;0;
33399;0;0;0;0;0;0;0;122,06;0;0;
33410;0;0;0;0;0;0;0;133,51;0;0;
33420;0;0;0;0;0;0;0;147,06;0;0;
33427;0;0;0;0;0;0;0;160,61;0;0;
33436;0;0;0;0;0;0;0;173,31;0;0;
33443;0;0;0;0;0;0;0;183,41;0;0;
33450;0;0;0;0;0;0;0;193,51;0;0;
33457;0;0;0;0;0;0;0;208,36;0;0;
33467;0;0;0;0;0;0;0;223,21;0;0;
33476;0;0;0;0;0;0;0;234,41;0;0;
33482;0;0;0;0;0;0;0;243,61;0;0;
33489;0;0;0;0;0;0;0;252,81;0;0;
33500;0;0;0;0;0;0;0;260,81;0;0;
