Time;EMG1;EMG2;EMG3;EMG4;EMG1_F;EMG2_F;EMG3_F;EMG4_F;Note_R;Note_V;;Level 1;Joueur;Score;Notes hit;% Reussite R;Offset EMG1;Onset EMG1;% Reussite V;Offset EMG2;Onset EMG2
5;0;0;0;0;0;0;51,55;203,8;0;0;;;1;0;0;0;26,4;101,27;0;0;114,01
19;0;0;0;0;0;0;47,6;188,3;0;0;;;2;0;0;0;0;0,65;0;0;0,65
27;0;0;0;0;0;0;51,55;203,95;0;0;
34;0;0;0;0;0;0;51,55;203,95;0;0;
42;0;0;0;0;0;0;51,6;205,1;0;0;
49;0;0;0;0;0;0;55,6;221,9;0;0;
58;0;0;0;0;0;0;51,65;206,55;0;0;
66;0;0;0;0;0;0;51,8;209,35;0;0;
73;0;0;0;0;0;0;55,9;227,5;0;0;
83;0;0;0;0;0;0;56;230,15;0;0;
91;0;0;0;0;0;0;56,1;232,8;0;0;
100;0;0;0;0;0;0;56,1;232,8;0;0;
108;0;0;0;0;0;0;60,15;250,6;0;0;
119;0;0;0;0;0;0;60,25;252,6;0;0;
128;0;0;0;0;0;0;60,35;254,6;0;0;
135;0;0;0;0;0;0;64,4;272,4;0;0;
144;0;0;0;0;0;0;60,4;256,45;0;0;
153;0;0;0;0;0;0;60,5;258,95;0;0;
161;0;0;0;0;0;0;64,6;277,4;0;0;
169;0;0;0;0;0;0;64,6;278,95;0;0;
176;0;0;0;0;0;0;64,6;280,5;0;0;
185;0;0;0;0;0;0;64,6;280,5;0;0;
194;0;0;0;0;0;0;64,65;282,55;0;0;
203;0;0;0;0;0;0;64,7;284,6;0;0;
211;0;0;0;0;0;0;64,8;286,1;0;0;
218;0;0;0;0;0;0;64,9;287,6;0;0;
227;0;0;0;0;0;0;64,9;287,6;0;0;
234;0;0;0;0;0;0;64,8;287;0;0;
242;0;0;0;0;0;0;64,7;286,4;0;0;
250;0;0;0;0;0;0;60,65;268,4;0;0;
257;0;0;0;0;0;0;60,6;268,25;0;0;
266;0;0;0;0;0;0;64,6;286,1;0;0;
274;0;0;0;0;0;0;64,6;286,65;0;0;
283;0;0;0;0;0;0;64,6;287,2;0;0;
292;0;0;0;0;0;0;60,55;269,4;0;0;
299;0;0;0;0;0;0;60,55;269,9;0;0;
307;0;0;0;0;0;0;64,6;288,2;0;0;
316;0;0;0;0;0;0;64,55;288,2;0;0;
324;0;0;0;0;0;0;64,5;288,2;0;0;
334;0;0;0;0;0;0;60,5;270,6;0;0;
340;0;0;0;0;0;0;60,55;271,3;0;0;
348;0;0;0;0;0;0;64,6;289,6;0;0;
358;0;0;0;0;0;0;60,6;271,9;0;0;
366;0;0;0;0;0;0;60,65;272,4;0;0;
373;0;0;0;0;0;0;60,6;272,3;0;0;
380;0;0;0;0;0;0;60,5;272,1;0;0;
387;0;0;0;0;0;0;64,5;290,2;0;0;
396;0;0;0;0;0;0;60,5;272,65;0;0;
404;0;0;0;0;0;0;60,55;273,75;0;0;
412;0;0;0;0;0;0;64,6;292,4;0;0;
421;0;0;0;0;0;0;60,6;274,55;0;0;
429;0;0;0;0;0;0;60,65;275,3;0;0;
436;0;0;0;0;0;0;60,65;275,55;0;0;
443;0;0;0;0;0;0;60,7;275,85;0;0;
450;0;0;0;0;0;0;64,8;294,5;0;0;
460;0;0;0;0;0;0;60,75;276,2;0;0;
468;0;0;0;0;0;0;60,75;276,2;0;0;
475;0;0;0;0;0;0;60,75;276,05;0;0;
484;0;0;0;0;0;0;56,7;257,6;0;0;
491;0;0;0;0;0;0;60,8;276,15;0;0;
499;0;0;0;0;0;0;60,85;276,4;0;0;
508;0;0;0;0;0;0;56,8;258,1;0;0;
518;0;0;0;0;0;0;60,9;276,45;0;0;
526;0;0;0;0;0;0;60,95;276,6;0;0;
535;0;0;0;0;0;0;60,95;276,35;0;0;
542;0;0;0;0;0;0;61;276,2;0;0;
550;0;0;0;0;0;0;61;276,3;0;0;
558;0;0;0;0;0;0;65;294,5;0;0;
568;0;0;0;0;0;0;60,95;275,85;0;0;
575;0;0;0;0;0;0;61;276,1;0;0;
582;0;0;0;0;0;0;65,1;295;0;0;
592;0;0;0;0;0;0;61,05;276,4;0;0;
600;0;0;0;0;0;0;61,1;276,55;0;0;
608;0;0;0;0;0;0;61,1;276,65;0;0;
616;0;0;0;0;0;0;61,05;276,85;0;0;
623;0;0;0;0;0;0;65,1;295,7;0;0;
630;0;0;0;0;0;0;61,05;277,4;0;0;
637;0;0;0;0;0;0;61,1;278,6;0;0;
645;0;0;0;0;0;0;65,2;298,1;0;0;
654;0;0;0;0;0;0;61,1;279,55;0;0;
662;0;0;0;0;0;0;61,1;280;0;0;
669;0;0;0;0;0;0;65,2;299;0;0;
678;0;0;0;0;0;0;65,1;298,9;0;0;
685;0;0;0;0;0;0;65;298,8;0;0;
695;0;0;0;0;0;0;60,95;280,85;0;0;
703;0;0;0;0;0;0;60,95;281,2;0;0;
710;0;0;0;0;0;0;61;281,3;0;0;
720;0;0;0;0;0;0;61;281,2;0;0;
727;0;0;0;0;0;0;65;299,3;0;0;
736;0;0;0;0;0;0;60,9;280,4;0;0;
744;0;0;0;0;0;0;60,85;279,9;0;0;
751;0;0;0;0;0;0;64,9;298,3;0;0;
762;0;0;0;0;0;0;60,8;279,55;0;0;
771;0;0;0;0;0;0;60,75;279,3;0;0;
778;0;0;0;0;0;0;60,75;278,95;0;0;
786;0;0;0;0;0;0;60,75;278,45;0;0;
793;0;0;0;0;0;0;64,8;296,8;0;0;
802;0;0;0;0;0;0;60,7;277,3;0;0;
809;0;0;0;0;0;0;60,65;276,2;0;0;
817;0;0;0;0;0;0;64,7;294,6;0;0;
828;0;0;0;0;0;0;60,6;275,6;0;0;
836;0;0;0;0;0;0;60,5;274,85;0;0;
844;0;0;0;0;0;0;60,5;274,85;0;0;
850;0;0;0;0;0;0;60,5;274,35;0;0;
857;0;0;0;0;0;0;64,5;292,1;0;0;
866;0;0;0;0;0;0;60,45;273,8;0;0;
874;0;0;0;0;0;0;60,45;273,8;0;0;
882;0;0;0;0;0;0;60,5;274;0;0;
890;0;0;0;0;0;0;56,5;255,9;0;0;
897;0;0;0;0;0;0;60,5;274,25;0;0;
904;0;0;0;0;0;0;60,45;274,2;0;0;
911;0;0;0;0;0;0;60,45;274,55;0;0;
920;0;0;0;0;0;0;64,5;293,3;0;0;
930;0;0;0;0;0;0;60,45;274,8;0;0;
937;0;0;0;0;0;0;60,45;275,05;0;0;
945;0;0;0;0;0;0;60,45;275,45;0;0;
954;0;0;0;0;0;0;60,45;275,85;0;0;
962;0;0;0;0;0;0;64,5;294,6;0;0;
971;0;0;0;0;0;0;60,45;276,2;0;0;
979;0;0;0;0;0;0;60,4;276,4;0;0;
986;0;0;0;0;0;0;64,4;295;0;0;
997;0;0;0;0;0;0;60,4;276,75;0;0;
1009;0;0;0;0;0;0;60,45;276,8;0;0;
1017;0;0;0;0;0;0;60,5;277,35;0;0;
1024;0;0;0;0;0;0;60,6;278,3;0;0;
1031;0;0;0;0;0;0;64,7;297;0;0;
1038;0;0;0;0;0;0;64,7;297,6;0;0;
1047;0;0;0;0;0;0;64,7;298,2;0;0;
1056;0;0;0;0;0;0;64,7;298,2;0;0;
1063;0;0;0;0;0;0;64,8;299;0;0;
1070;0;0;0;0;0;0;64,9;299,8;0;0;
1079;0;0;0;0;0;0;60,85;281,05;0;0;
1086;0;0;0;0;0;0;60,85;281,2;0;0;
1095;0;0;0;0;0;0;64,9;300,1;0;0;
1103;0;0;0;0;0;0;64,9;300,15;0;0;
1110;0;0;0;0;0;0;64,9;300,2;0;0;
1120;0;0;0;0;0;0;60,85;281,45;0;0;
1128;0;0;0;0;0;0;60,8;281,35;0;0;
1135;0;0;0;0;0;0;64,8;300;0;0;
1145;0;0;0;0;0;0;60,8;281,4;0;0;
1154;0;0;0;0;0;0;60,8;281,45;0;0;
1163;0;0;0;0;0;0;64,8;300,1;0;0;
1174;0;0;0;0;0;0;64,8;300,6;0;0;
1182;0;0;0;0;0;0;64,8;301,1;0;0;
1189;0;0;0;0;0;0;64,7;300,25;0;0;
1196;0;0;0;0;0;0;64,6;299,4;0;0;
1205;0;0;0;0;0;0;60,55;280,5;0;0;
1212;0;0;0;0;0;0;60,5;279,6;0;0;
1220;0;0;0;0;0;0;64,5;297,6;0;0;
1231;0;0;0;0;0;0;60,4;278,45;0;0;
1238;0;0;0;0;0;0;60,35;277,2;0;0;
1246;0;0;0;0;0;0;64,4;295,1;0;0;
1253;0;0;0;0;0;0;64,4;294,65;0;0;
1260;0;0;0;0;0;0;64,4;294,2;0;0;
1269;0;0;0;0;0;0;60,35;275,4;0;0;
1278;0;0;0;0;0;0;60,35;275,05;0;0;
1285;0;0;0;0;0;0;64,4;293,5;0;0;
1294;0;0;0;0;0;0;60,4;274,85;0;0;
1301;0;0;0;0;0;0;60,45;274,85;0;0;
1307;0;0;0;0;0;0;64,5;293,5;0;0;
1316;0;0;0;0;0;0;60,5;274,85;0;0;
1324;0;0;0;0;0;0;60,55;274,7;0;0;
1331;0;0;0;0;0;0;60,55;274,4;0;0;
1339;0;0;0;0;0;0;60,55;273,6;0;0;
1348;0;0;0;0;0;0;60,6;273,75;0;0;
1357;0;0;0;0;0;0;56,6;255,9;0;0;
1364;0;0;0;0;0;0;60,65;273,55;0;0;
1371;0;0;0;0;0;0;60,7;273,2;0;0;
1379;0;0;0;0;0;0;60,75;273,2;0;0;
1388;0;0;0;0;0;0;64,8;291,2;0;0;
1396;0;0;0;0;0;0;60,75;273,3;0;0;
1403;0;0;0;0;0;0;60,75;274,05;0;0;
1411;0;0;0;0;0;0;60,75;274,25;0;0;
1420;0;0;0;0;0;0;56,7;255,8;0;0;
1427;0;0;0;0;0;0;60,75;274,05;0;0;
1435;0;0;0;0;0;0;60,75;273,85;0;0;
1444;0;0;0;0;0;0;56,7;255,4;0;0;
1450;0;0;0;0;0;0;60,75;274;0;0;
1457;0;0;0;0;0;0;60,75;273,95;0;0;
1466;0;0;0;0;0;0;60,75;273,85;0;0;
1472;0;0;0;0;0;0;64,8;292,4;0;0;
1481;0;0;0;0;0;0;60,75;273,9;0;0;
1489;0;0;0;0;0;0;60,75;274,15;0;0;
1497;0;0;0;0;0;0;60,75;274,9;0;0;
1505;0;0;0;0;0;0;56,7;256,9;0;0;
1512;0;0;0;0;0;0;60,7;274,8;0;0;
1520;0;0;0;0;0;0;60,65;275,05;0;0;
1531;0;0;0;0;0;0;56,6;257,4;0;0;
1539;0;0;0;0;0;0;56,6;257,45;0;0;
1546;0;0;0;0;0;0;56,6;257,5;0;0;
1553;0;0;0;0;0;0;60,7;276,35;0;0;
1560;0;0;0;0;0;0;60,75;276,55;0;0;
1569;0;0;0;0;0;0;56,7;257,9;0;0;
1577;0;0;0;0;0;0;60,8;276,8;0;0;
1585;0;0;0;0;0;0;60,85;277,45;0;0;
1593;0;0;0;0;0;0;60,9;278,15;0;0;
1600;0;0;0;0;0;0;65;297,1;0;0;
1607;0;0;0;0;0;0;60,95;278,5;0;0;
1616;0;0;0;0;0;0;61;279;0;0;
1624;0;0;0;0;0;0;61,05;279,55;0;0;
1633;0;0;0;0;0;0;57;261;0;0;
1640;0;0;0;0;0;0;61,1;279,8;0;0;
1649;0;0;0;0;0;0;61,15;279,85;0;0;
1656;0;0;0;0;0;0;61,25;280,2;0;0;
1665;0;0;0;0;0;0;65,4;299,3;0;0;
1674;0;0;0;0;0;0;61,4;281,4;0;0;
1681;0;0;0;0;0;0;61,5;282,2;0;0;
1688;0;0;0;0;0;0;65,6;300,9;0;0;
1698;0;0;0;0;0;0;61,55;282,85;0;0;
1706;0;0;0;0;0;0;61,55;283,1;0;0;
1715;0;0;0;0;0;0;61,5;282,55;0;0;
1722;0;0;0;0;0;0;61,45;281,65;0;0;
1730;0;0;0;0;0;0;65,5;299,6;0;0;
1738;0;0;0;0;0;0;61,4;280,7;0;0;
1745;0;0;0;0;0;0;61,4;280,45;0;0;
1752;0;0;0;0;0;0;61,4;280,15;0;0;
1760;0;0;0;0;0;0;57,3;261,2;0;0;
1767;0;0;0;0;0;0;61,4;279,95;0;0;
1775;0;0;0;0;0;0;61,4;279,6;0;0;
1785;0;0;0;0;0;0;57,3;260,5;0;0;
1791;0;0;0;0;0;0;61,4;279,35;0;0;
1801;0;0;0;0;0;0;61,4;279,4;0;0;
1808;0;0;0;0;0;0;61,4;279,65;0;0;
1815;0;0;0;0;0;0;61,35;279,6;0;0;
1823;0;0;0;0;0;0;57,2;260,5;0;0;
1830;0;0;0;0;0;0;61,3;279,35;0;0;
1837;0;0;0;0;0;0;61,3;279,5;0;0;
1845;0;0;0;0;0;0;57,2;260,8;0;0;
1852;0;0;0;0;0;0;61,25;279,45;0;0;
1860;0;0;0;0;0;0;61,25;279,8;0;0;
1868;0;0;0;0;0;0;57,2;261,5;0;0;
1875;0;0;0;0;0;0;57,2;262;0;0;
1884;0;0;0;0;0;0;57,2;262,5;0;0;
1890;0;0;0;0;0;0;61,35;281,75;0;0;
1897;0;0;0;0;0;0;61,4;282,35;0;0;
1906;0;0;0;0;0;0;57,3;263,7;0;0;
1912;0;0;0;0;0;0;61,4;282,35;0;0;
1919;0;0;0;0;0;0;61,4;282,25;0;0;
1926;0;0;0;0;0;0;57,3;263,5;0;0;
1935;0;0;0;0;0;0;61,35;282,05;0;0;
1942;0;0;0;0;0;0;61,3;281,75;0;0;
1950;0;0;0;0;0;0;57,2;262,9;0;0;
1957;0;0;0;0;0;0;57,25;263,2;0;0;
1965;0;0;0;0;0;0;57,3;263,5;0;0;
1974;0;0;0;0;0;0;57,3;263,5;0;0;
1982;0;0;0;0;0;0;57,35;263,95;0;0;
1988;0;0;0;0;0;0;57,4;264,4;0;0;
1996;0;0;0;0;0;0;61,45;283,3;0;0;
2003;0;0;0;0;0;0;61,45;283,55;0;0;
2011;0;0;0;0;0;0;57,4;264,9;0;0;
2018;0;0;0;0;0;0;61,45;283,45;0;0;
2026;0;0;0;0;0;0;61,45;283,55;0;0;
2035;0;0;0;0;0;0;57,4;265,1;0;0;
2047;0;0;0;0;0;0;57,3;264,1;0;0;
2057;0;0;0;0;0;0;57,2;263,1;0;0;
2064;0;0;0;0;0;0;61,2;281,4;0;0;
2071;0;0;0;0;0;0;61,1;281,05;0;0;
2080;0;0;0;0;0;0;57;262,4;0;0;
2087;0;0;0;0;0;0;61,1;281,7;0;0;
2095;0;0;0;0;0;0;61,15;282,45;0;0;
2105;0;0;0;0;0;0;61,2;282,95;0;0;
2131;0;0;0;0;0;0;65,3;302;0;0;
2142;0;0;0;0;0;0;65,4;302,8;0;0;
2151;0;0;0;0;0;0;65,5;303,6;0;0;
2158;0;0;0;0;0;0;69,8;325;0;0;
2167;0;0;0;0;0;0;69,95;327,1;0;0;
2174;0;0;0;0;0;0;70;328,3;0;0;
2180;0;0;0;0;0;0;70,15;329,9;0;0;
2187;0;0;0;0;0;0;70,4;331,9;0;0;
2194;0;0;0;0;0;0;74,7;352,8;0;0;
2203;0;0;0;0;0;0;70,65;334,25;0;0;
2210;0;0;0;0;0;0;70,75;335,35;0;0;
2218;0;0;0;0;0;0;74,9;355;0;0;
2227;0;0;0;0;0;0;70,85;336,75;0;0;
2234;0;0;0;0;0;0;70,9;337,7;0;0;
2243;0;0;0;0;0;0;71;338,6;0;0;
2251;0;0;0;0;0;0;71,2;340,35;0;0;
2259;0;0;0;0;0;0;75,4;360,4;0;0;
2269;0;0;0;0;0;0;71,3;341,1;0;0;
2276;0;0;0;0;0;0;71,3;340,85;0;0;
2284;0;0;0;0;0;0;71,3;340,85;0;0;
2292;0;0;0;0;0;0;67,2;321,8;0;0;
2299;0;0;0;0;0;0;67;320,35;0;0;
2307;0;0;0;0;0;0;66,8;318,9;0;0;
2315;0;0;0;0;0;0;66,6;316,7;0;0;
2323;0;0;0;0;0;0;66,4;314,5;0;0;
2332;0;0;0;0;0;0;62,2;294;0;0;
2340;0;0;0;0;0;0;62,05;292,2;0;0;
2348;0;0;0;0;0;0;61,8;290;0;0;
2358;0;0;0;0;0;0;57,5;269,1;0;0;
2367;0;0;0;0;0;0;61,5;287,3;0;0;
2373;0;0;0;0;0;0;61,35;285,85;0;0;
2381;0;0;0;0;0;0;61,25;284,4;0;0;
2388;0;0;0;0;0;0;65,3;302,6;0;0;
2399;0;0;0;0;0;0;61,2;283,4;0;0;
2406;0;0;0;0;0;0;61,15;282,65;0;0;
2414;0;0;0;0;0;0;61;281,05;0;0;
2422;0;0;0;0;0;0;60,8;279,5;0;0;
2430;0;0;0;0;0;0;64,8;298;0;0;
2439;0;0;0;0;0;0;60,7;278,95;0;0;
2446;0;0;0;0;0;0;60,6;278,3;0;0;
2453;0;0;0;0;0;0;64,6;296,7;0;0;
2463;0;0;0;0;0;0;60,55;278;0;0;
2469;0;0;0;0;0;0;60,55;277,6;0;0;
2478;0;0;0;0;0;0;60,5;276,7;0;0;
2486;0;0;0;0;0;0;60,45;275,9;0;0;
2494;0;0;0;0;0;0;64,5;294,3;0;0;
2503;0;0;0;0;0;0;60,45;275,6;0;0;
2510;0;0;0;0;0;0;60,4;274,9;0;0;
2518;0;0;0;0;0;0;64,4;292,9;0;0;
2527;0;0;0;0;0;0;60,4;274,7;0;0;
2536;0;0;0;0;0;0;60,4;274,5;0;0;
2542;0;0;0;0;0;0;60,35;274,3;0;0;
2551;0;0;0;0;0;0;60,35;274,1;0;0;
2563;0;0;0;0;0;0;64,4;292,1;0;0;
2574;0;0;0;0;0;0;64,4;292,7;0;0;
2582;0;0;0;0;0;0;64,4;293,3;0;0;
2596;0;0;0;0;0;0;60,4;274,8;0;0;
2605;0;0;0;0;0;0;60,5;276;0;0;
2612;0;0;0;0;0;0;64,6;295,7;0;0;
2623;0;0;0;0;0;0;64,7;296,65;0;0;
2633;0;0;0;0;0;0;64,8;297,6;0;0;
2641;0;0;0;0;0;0;68,9;316,8;0;0;
2649;0;0;0;0;0;0;68,95;317,7;0;0;
2660;0;0;0;0;0;0;68,95;318,85;0;0;
2669;0;0;0;0;0;0;68,95;319,9;0;0;
2678;0;0;0;0;0;0;69,05;321,6;0;0;
2688;0;0;0;0;0;0;73,2;341,7;0;0;
2697;0;0;0;0;0;0;69,2;323,7;0;0;
2704;0;0;0;0;0;0;69,35;325,6;0;0;
2711;0;0;0;0;0;0;73,5;345,5;0;0;
2721;0;0;0;0;0;0;73,65;347,65;0;0;
2729;0;0;0;0;0;0;73,8;349,8;0;0;
2738;0;0;0;0;0;0;69,75;331,8;0;0;
2746;0;0;0;0;0;0;69,85;333,9;0;0;
2755;0;0;0;0;0;0;69,95;334,95;0;0;
2764;0;0;0;0;0;0;70,05;336,05;0;0;
2772;0;0;0;0;0;0;74,2;356,2;0;0;
2782;0;0;0;0;0;0;70,1;336,5;0;0;
2790;0;0;0;0;0;0;70,15;337;0;0;
2802;0;0;0;0;0;0;70,2;337,85;0;0;
2809;0;0;0;0;0;0;70,35;340,2;0;0;
2820;0;0;0;0;0;0;70,5;342,7;0;0;
2828;0;0;0;0;0;0;70,55;343,9;0;0;
2836;0;0;0;0;0;0;70,65;344,85;0;0;
2846;0;0;0;0;0;0;66,6;325,4;0;0;
2855;0;0;0;0;0;0;66,6;325;0;0;
2865;0;0;0;0;0;0;66,6;324,6;0;0;
2872;0;0;0;0;0;0;70,7;343,8;0;0;
2880;0;0;0;0;0;0;70,65;343,1;0;0;
2891;0;0;0;0;0;0;66,5;323,2;0;0;
2899;0;0;0;0;0;0;66,45;322,4;0;0;
2907;0;0;0;0;0;0;66,4;321,6;0;0;
2914;0;0;0;0;0;0;70,55;341,75;0;0;
2924;0;0;0;0;0;0;70,55;341,8;0;0;
2935;0;0;0;0;0;0;66,4;321,7;0;0;
2942;0;0;0;0;0;0;66,35;320,95;0;0;
2953;0;0;0;0;0;0;66,3;320,2;0;0;
2963;0;0;0;0;0;0;70,4;339,75;0;0;
2971;0;0;0;0;0;0;70,35;339,1;0;0;
2982;0;0;0;0;0;0;70,35;339,05;0;0;
2989;0;0;0;0;0;0;70,25;337,5;0;0;
2999;0;0;0;0;0;0;70,15;336,2;0;0;
3006;0;0;0;0;0;0;70,15;336,2;0;0;
3019;0;0;0;0;0;0;66;315,8;0;0;
3027;0;0;0;0;0;0;70,1;335,15;0;0;
3036;0;0;0;0;0;0;70,05;334,8;0;0;
3045;0;0;0;0;0;0;69,95;333,65;0;0;
3055;0;0;0;0;0;0;69,9;333;0;0;
3063;0;0;0;0;0;0;69,9;332,7;0;0;
3072;0;0;0;0;0;0;74;351,6;0;0;
3082;0;0;0;0;0;0;69,9;332,25;0;0;
3102;0;0;0;0;0;0;69,85;332,15;0;0;
3110;0;0;0;0;0;0;69,75;331,25;0;0;
3118;0;0;0;0;0;0;69,95;333,45;0;0;
3128;0;0;0;0;0;0;74,3;355,8;0;0;
3136;0;0;0;0;0;0;74,45;357,3;0;0;
3145;0;0;0;0;0;0;74,6;358,8;0;0;
3153;0;0;0;0;0;0;74,7;359,2;0;0;
3161;0;0;0;0;0;0;74,8;359,6;0;0;
3168;0;0;0;0;0;0;74,75;358,65;0;0;
3176;0;0;0;0;0;0;74,7;357,7;0;0;
3188;0;0;0;0;0;0;70,55;337,3;0;0;
3195;0;0;0;0;0;0;70,5;336,25;0;0;
3202;0;0;0;0;0;0;74,6;355,6;0;0;
3209;0;0;0;0;0;0;74,6;355,25;0;0;
3216;0;0;0;0;0;0;74,6;354,9;0;0;
3224;0;0;0;0;0;0;70,55;336,35;0;0;
3233;0;0;0;0;0;0;70,55;336,65;0;0;
3240;0;0;0;0;0;0;70,5;336,6;0;0;
3251;0;0;0;0;0;0;66,4;317,7;0;0;
3258;0;0;0;0;0;0;70,5;336,95;0;0;
3267;0;0;0;0;0;0;70,55;336,95;0;0;
3281;0;0;0;0;0;0;70,75;338,55;0;0;
3290;0;0;0;0;0;0;70,65;337,05;0;0;
3298;0;0;0;0;0;0;70,55;335,55;0;0;
3306;0;0;0;0;0;0;70,55;335,5;0;0;
3315;0;0;0;0;0;0;66,3;314,6;0;0;
3322;0;0;0;0;0;0;66,35;315,7;0;0;
3330;0;0;0;0;0;0;66,4;316,8;0;0;
3339;0;0;0;0;0;0;66,6;319,75;0;0;
3347;0;0;0;0;0;0;66,8;322,7;0;0;
3356;0;0;0;0;0;0;66,8;322,7;0;0;
3364;0;0;0;0;0;0;66,95;324,5;0;0;
3371;0;0;0;0;0;0;67,1;326,3;0;0;
3380;0;0;0;0;0;0;63;307,3;0;0;
3387;0;0;0;0;0;0;58,9;288,3;0;0;
3394;0;0;0;0;0;0;58,9;288,3;0;0;
3401;0;0;0;0;0;0;58,95;288,7;0;0;
3408;0;0;0;0;0;0;59;289,1;0;0;
3416;0;0;0;0;0;0;59;289,1;0;0;
3423;0;0;0;0;0;0;59;288,9;0;0;
3431;0;0;0;0;0;0;59;288,7;0;0;
3439;0;0;0;0;0;0;54,75;267,85;0;0;
3449;0;0;0;0;0;0;54,55;265,35;0;0;
3456;0;0;0;0;0;0;54,35;262,85;0;0;
3465;0;0;0;0;0;0;54,15;260,7;0;0;
3472;0;0;0;0;0;0;58,2;279,4;0;0;
3481;0;0;0;0;0;0;53,95;258,35;0;0;
3489;0;0;0;0;0;0;53,8;256,4;0;0;
3496;0;0;0;0;0;0;53,6;253,35;0;0;
3505;0;0;0;0;0;0;49,3;231,2;0;0;
3514;0;0;0;0;0;0;53,4;250,25;1;0;
3521;0;0;0;0;0;0;53,25;248,15;1;0;
3529;0;0;0;0;0;0;53,05;245,55;1;0;
3536;0;0;0;0;0;0;57,1;264,1;1;0;
3546;0;0;0;0;0;0;57,1;264,1;1;0;
3552;0;0;0;0;0;0;61,15;282,65;1;0;
3559;0;0;0;0;0;0;61,1;281,95;1;0;
3568;0;0;0;0;0;0;57;262,7;1;0;
3575;0;0;0;0;0;0;65,5;281,7;1;0;
3584;0;0;0;0;0;0;69,9;281,65;1;0;
3590;0;0;0;0;0;0;80,65;285,5;1;0;
3602;0;0;0;0;0;0;95,5;308,4;1;0;
3611;0;0;0;0;0;0;91,45;290,05;1;0;
3617;0;0;0;0;0;0;103,45;295,9;1;0;
3623;0;0;0;0;0;0;115,45;301,4;1;0;
3630;0;0;0;0;0;0;111,4;282,7;1;0;
3636;0;0;0;0;0;0;133,25;305;1;0;
3643;0;0;0;0;0;0;151;308,2;1;0;
3650;0;0;0;0;0;0;146,9;289,1;1;0;
3656;0;0;0;0;0;0;167,95;313,3;1;0;
3665;0;0;0;0;0;0;184,9;318,45;1;0;
3672;0;0;0;0;0;0;180,8;299,4;1;0;
3679;0;0;0;0;0;0;193,75;299,1;1;0;
3687;0;0;0;0;0;0;206,7;298,8;1;0;
3696;0;0;0;0;0;0;206,7;298,8;1;0;
3704;0;0;0;0;0;0;216,45;294,4;1;0;
3710;0;0;0;0;0;0;226,2;290;1;0;
3719;0;0;0;0;0;0;226,2;290;1;0;
3726;0;0;0;0;0;0;229,3;282,2;1;0;
3733;0;0;0;0;0;0;232,4;274,4;1;0;
3742;0;0;0;0;0;0;228,9;264,3;1;0;
3749;0;0;0;0;0;0;225,4;254,2;1;0;
3759;0;0;0;0;0;0;225,4;254,2;1;0;
3766;0;0;0;0;0;0;220,05;243,05;1;0;
3772;0;0;0;0;0;0;214,7;231,9;1;0;
3781;0;0;0;0;0;0;214,7;231,9;1;0;
3789;0;0;0;0;0;0;202;219,7;1;0;
3796;0;0;0;0;0;0;189,3;207,5;1;0;
3805;0;0;0;0;0;0;196,95;215,2;1;0;
3812;0;0;0;0;0;0;183,55;198,7;1;0;
3823;0;0;0;0;0;0;162,5;174,5;1;0;
3832;0;0;0;0;0;0;169;180,75;1;0;
3839;0;0;0;0;0;0;158,5;168,75;1;0;
3847;0;0;0;0;0;0;147,25;156,4;1;0;
3855;0;0;0;0;0;0;153;162,3;0;0;
3865;0;0;0;0;0;0;139,2;148,15;0;0;
3875;0;0;0;0;0;0;130,7;141,95;0;0;
3882;0;0;0;0;0;0;136;149,9;0;0;
3890;0;0;0;0;0;0;129,35;149,55;0;0;
3897;0;0;0;0;0;0;122,7;149,2;0;0;
3907;0;0;0;0;0;0;111,35;136,4;0;0;
3916;0;0;0;0;0;0;104,8;135,25;0;0;
3923;0;0;0;0;0;0;109,6;146,9;0;0;
3930;0;0;0;0;0;0;98,9;133,85;0;0;
3938;0;0;0;0;0;0;92,95;133,35;0;0;
3945;0;0;0;0;0;0;97,7;145,9;0;0;
3954;0;0;0;0;0;0;93,1;148,7;0;0;
3962;0;0;0;0;0;0;88,5;151,5;0;0;
3970;0;0;0;0;0;0;80,85;143,8;0;0;
3978;0;0;0;0;0;0;77,55;148,75;0;0;
3985;0;0;0;0;0;0;81,9;161,4;0;0;
3995;0;0;0;0;0;0;75,4;155,15;0;0;
4005;0;0;0;0;0;0;73,2;161,95;0;0;
4012;0;0;0;0;0;0;71,75;169,1;0;0;
4020;0;0;0;0;0;0;70,25;176;0;0;
4027;0;0;0;0;0;0;74,5;188,8;0;0;
4035;0;0;0;0;0;0;69,2;180,85;0;0;
4043;0;0;0;0;0;0;68,05;185,35;0;0;
4050;0;0;0;0;0;0;67,25;186,95;0;0;
4059;0;0;0;0;0;0;62,3;176,1;0;0;
4067;0;0;0;0;0;0;66,45;188,95;0;0;
4074;0;0;0;0;0;0;65,8;190,15;0;0;
4084;0;0;0;0;0;0;65,15;191,95;0;0;
4091;0;0;0;0;0;0;69,3;205,4;0;0;
4108;0;0;0;0;0;0;64,55;192,85;0;0;
4117;0;0;0;0;0;0;63,95;194,3;0;0;
4123;0;0;0;0;0;0;63,55;195,4;0;0;
4130;0;0;0;0;0;0;63,15;196,85;0;0;
4138;0;0;0;0;0;0;67,3;211,2;0;0;
4145;0;0;0;0;0;0;67;212,4;0;0;
4151;0;0;0;0;0;0;66,7;213,6;0;0;
4160;0;0;0;0;0;0;66,7;213,6;0;0;
4167;0;0;0;0;0;0;66,55;214,8;0;0;
4174;0;0;0;0;0;0;66,4;216;0;0;
4185;0;0;0;0;0;0;62,15;203,2;0;0;
4192;0;0;0;0;0;0;61,95;204,75;0;0;
4202;0;0;0;0;0;0;66;219,1;0;0;
4210;0;0;0;0;0;0;65,9;220,95;0;0;
4218;0;0;0;0;0;0;65,8;222,8;0;0;
4228;0;0;0;0;0;0;65,8;222,8;0;0;
4236;0;0;0;0;0;0;65,8;225,25;0;0;
4245;0;0;0;0;0;0;65,8;227,7;0;0;
4251;0;0;0;0;0;0;65,75;229,4;0;0;
4259;0;0;0;0;0;0;65,7;231,1;0;0;
4268;0;0;0;0;0;0;65,7;231,1;0;0;
4275;0;0;0;0;0;0;65,65;232,6;0;0;
4282;0;0;0;0;0;0;65,6;234,1;0;0;
4291;0;0;0;0;0;0;61,45;219,75;0;0;
4299;0;0;0;0;0;0;61,45;220,85;0;0;
4307;0;0;0;0;0;0;61,55;222,45;0;0;
4316;0;0;0;0;0;0;57,5;208,6;0;0;
4324;0;0;0;0;0;0;61,6;223,9;0;0;
4331;0;0;0;0;0;0;61,55;224,95;0;0;
4338;0;0;0;0;0;0;61,45;225,85;0;0;
4345;0;0;0;0;0;0;65,5;241;0;0;
4354;0;0;0;0;0;0;61,45;226,65;0;0;
4361;0;0;0;0;0;0;61,45;227,3;0;0;
4369;0;0;0;0;0;0;61,45;228;0;0;
4377;0;0;0;0;0;0;57,4;213,7;0;0;
4384;0;0;0;0;0;0;61,45;228,7;0;0;
4391;0;0;0;0;0;0;61,35;228,4;0;0;
4400;0;0;0;0;0;0;57,2;213,1;0;0;
4408;0;0;0;0;0;0;57,15;213,1;0;0;
4416;0;0;0;0;0;0;57,1;213,1;0;0;
4423;0;0;0;0;0;0;61,15;228,55;0;0;
4430;0;0;0;0;0;0;61,1;228,5;0;0;
4439;0;0;0;0;0;0;57;213;0;0;
4447;0;0;0;0;0;0;61,05;228,95;0;0;
4454;0;0;0;0;0;0;60,95;229,45;0;0;
4463;0;0;0;0;0;0;56,8;214;0;0;
4470;0;0;0;0;0;0;60,9;229,95;0;0;
4477;0;0;0;0;0;0;60,9;230,6;0;0;
4486;0;0;0;0;0;0;60,85;231,1;0;0;
4493;0;0;0;0;0;0;60,85;231,75;0;0;
4501;0;0;0;0;0;0;56,8;216,6;0;0;
4508;0;0;0;0;0;0;60,85;232,45;0;0;
4516;0;0;0;0;0;0;60,85;233,3;0;0;
4524;0;0;0;0;0;0;56,8;218,3;0;0;
4531;0;0;0;0;0;0;60,85;233,8;0;0;
4538;0;0;0;0;0;0;60,85;234,3;0;0;
4549;0;0;0;0;0;0;56,8;219,3;0;0;
4556;0;0;0;0;0;0;60,8;234,55;0;0;
4565;0;0;0;0;0;0;60,75;234,65;0;0;
4572;0;0;0;0;0;0;60,75;234,9;0;0;
4580;0;0;0;0;0;0;60,75;234,85;0;0;
4590;0;0;0;0;0;0;56,7;219,4;0;0;
4602;0;0;0;0;0;0;60,75;234,95;0;0;
4610;0;0;0;0;0;0;60,75;234,55;0;0;
4618;0;0;0;0;0;0;60,85;235,2;0;0;
4625;0;0;0;0;0;0;65;251,8;0;0;
4633;0;0;0;0;0;0;60,9;235,85;0;0;
4641;0;0;0;0;0;0;60,9;236,5;0;0;
4648;0;0;0;0;0;0;60,95;237,3;0;0;
4656;0;0;0;0;0;0;61;237,95;0;0;
4664;0;0;0;0;0;0;65,1;254,4;0;0;
4674;0;0;0;0;0;0;61,05;238,55;0;0;
4682;0;0;0;0;0;0;61,1;239,05;0;0;
4690;0;0;0;0;0;0;65,2;255,4;0;0;
4698;0;0;0;0;0;0;65,2;255,6;0;0;
4706;0;0;0;0;0;0;65,2;255,8;0;0;
4715;0;0;0;0;0;0;65,2;255,8;0;0;
4723;0;0;0;0;0;0;65,25;256,2;0;0;
4730;0;0;0;0;0;0;65,3;256,6;0;0;
4739;0;0;0;0;0;0;61,25;241,2;0;0;
4746;0;0;0;0;0;0;61,25;241,55;0;0;
4754;0;0;0;0;0;0;65,3;257,3;0;0;
4763;0;0;0;0;0;0;65,25;257,15;0;0;
4770;0;0;0;0;0;0;65,2;257;0;0;
4779;0;0;0;0;0;0;61,05;240,4;0;0;
4786;0;0;0;0;0;0;60,95;239,85;0;0;
4793;0;0;0;0;0;0;65;255,9;0;0;
4802;0;0;0;0;0;0;60,9;239,3;0;0;
4810;0;0;0;0;0;0;60,85;238,55;0;0;
4817;0;0;0;0;0;0;60,8;237,95;0;0;
4827;0;0;0;0;0;0;56,7;221,5;0;0;
4835;0;0;0;0;0;0;60,8;237,75;0;0;
4841;0;0;0;0;0;0;60,8;237,65;0;0;
4849;0;0;0;0;0;0;60,75;237,35;0;0;
4858;0;0;0;0;0;0;60,75;237,7;0;0;
4867;0;0;0;0;0;0;56,7;222;0;0;
4874;0;0;0;0;0;0;60,8;237,75;0;0;
4882;0;0;0;0;0;0;60,85;237,85;0;0;
4890;0;0;0;0;0;0;60,85;237,9;0;0;
4897;0;0;0;0;0;0;64,9;253,6;0;0;
4907;0;0;0;0;0;0;60,85;237,85;0;0;
4915;0;0;0;0;0;0;60,85;238,1;0;0;
4922;0;0;0;0;0;0;60,9;238,7;0;0;
4929;0;0;0;0;0;0;56,9;223,3;0;0;
4937;0;0;0;0;0;0;60,95;239,4;0;0;
4943;0;0;0;0;0;0;60,95;239,45;0;0;
4952;0;0;0;0;0;0;56,9;223,4;0;0;
4959;0;0;0;0;0;0;61;239,7;0;0;
4967;0;0;0;0;0;0;61,05;240,15;0;0;
4975;0;0;0;0;0;0;61,1;240,55;0;0;
4982;0;0;0;0;0;0;65,2;256,8;0;0;
4991;0;0;0;0;0;0;61,1;240,55;0;0;
5001;0;0;0;0;0;0;61,05;240,25;0;0;
5009;0;0;0;0;0;0;61,05;240,15;0;0;
5018;0;0;0;0;0;0;57;224,1;0;0;
5024;0;0;0;0;0;0;61,05;239,7;0;0;
5032;0;0;0;0;0;0;61;239,55;0;0;
5039;0;0;0;0;0;0;60,95;239,35;0;0;
5047;0;0;0;0;0;0;60,95;239,2;0;0;
5056;0;0;0;0;0;0;56,9;223,5;0;0;
5063;0;0;0;0;0;0;60,9;239,1;0;0;
5070;0;0;0;0;0;0;60,85;238,7;0;0;
5079;0;0;0;0;0;0;56,8;222,7;0;0;
5086;0;0;0;0;0;0;60,85;239,05;0;0;
5094;0;0;0;0;0;0;60,85;239,3;0;0;
5110;0;0;0;0;0;0;60,85;239,5;0;0;
5118;0;0;0;0;0;0;64,9;255,8;0;0;
5125;0;0;0;0;0;0;64,9;256,45;0;0;
5132;0;0;0;0;0;0;64,9;257,1;0;0;
5140;0;0;0;0;0;0;60,8;240,85;0;0;
5147;0;0;0;0;0;0;60,8;241,7;0;0;
5154;0;0;0;0;0;0;64,9;258,8;0;0;
5163;0;0;0;0;0;0;60,85;242,85;0;0;
5169;0;0;0;0;0;0;60,9;243,75;0;0;
5176;0;0;0;0;0;0;65;260,6;0;0;
5186;0;0;0;0;0;0;60,95;245;0;0;
5193;0;0;0;0;0;0;61;246,1;0;0;
5202;0;0;0;0;0;0;61,05;247,25;0;0;
5209;0;0;0;0;0;0;61,05;247,75;0;0;
5216;0;0;0;0;0;0;65,1;263,8;0;0;
5225;0;0;0;0;0;0;61,1;248,2;0;0;
5238;0;0;0;0;0;0;61,15;248,9;0;0;
5246;0;0;0;0;0;0;65,2;265,2;0;0;
5253;0;0;0;0;0;0;65,25;265,55;0;0;
5260;0;0;0;0;0;0;65,3;265,9;0;0;
5269;0;0;0;0;0;0;61,25;249,6;0;0;
5277;0;0;0;0;0;0;61,3;250,1;0;0;
5285;0;0;0;0;0;0;61,3;249,95;0;0;
5292;0;0;0;0;0;0;57,2;233;0;0;
5300;0;0;0;0;0;0;61,25;249,85;0;0;
5307;0;0;0;0;0;0;61,2;249,6;0;0;
5317;0;0;0;0;0;0;57,1;232,5;0;0;
5324;0;0;0;0;0;0;61,2;249,25;0;0;
5331;0;0;0;0;0;0;61,2;249,15;0;0;
5339;0;0;0;0;0;0;61,15;248,7;0;0;
5347;0;0;0;0;0;0;65,2;265,1;0;0;
5356;0;0;0;0;0;0;61,1;248,4;0;0;
5364;0;0;0;0;0;0;61,05;247,8;0;0;
5371;0;0;0;0;0;0;61,05;247,85;0;0;
5379;0;0;0;0;0;0;61,05;247,6;0;0;
5387;0;0;0;0;0;0;65,1;263,4;0;0;
5396;0;0;0;0;0;0;61,05;247,1;0;0;
5403;0;0;0;0;0;0;61;246,45;0;0;
5410;0;0;0;0;0;0;60,9;245,4;0;0;
5421;0;0;0;0;0;0;56,8;228,7;0;0;
5430;0;0;0;0;0;0;60,8;244,3;0;0;
5437;0;0;0;0;0;0;60,7;243,1;0;0;
5445;0;0;0;0;0;0;60,6;241,7;0;0;
5452;0;0;0;0;0;0;64,6;257,1;0;0;
5461;0;0;0;0;0;0;60,55;240,25;0;0;
5469;0;0;0;0;0;0;60,5;238,95;0;0;
5479;0;0;0;0;0;0;64,5;254,5;0;0;
5488;0;0;0;0;0;0;64,45;253,6;0;0;
5494;0;0;0;0;0;0;64,4;252,7;0;0;
5503;0;0;0;0;0;0;60,35;236,3;0;0;
5510;0;0;0;0;0;0;60,35;235,9;0;0;
5517;0;0;0;0;0;0;64,4;251,9;0;0;
5525;0;0;0;0;0;0;60,35;235,8;0;0;
5532;0;0;0;0;0;0;60,4;236,35;0;0;
5540;0;0;0;0;0;0;60,45;237,2;0;0;
5550;0;0;0;0;0;0;56,4;221,4;0;0;
5557;0;0;0;0;0;0;60,55;237,8;0;0;
5564;0;0;0;0;0;0;60,7;238,55;0;0;
5571;0;0;0;0;0;0;61,15;239;0;0;
5578;0;0;0;0;0;0;65,6;255,1;0;0;
5589;0;0;0;0;0;0;61,6;239,5;0;0;
5599;0;0;0;0;0;0;65,55;241,15;0;0;
5608;0;0;0;0;0;0;69,5;243;0;0;
5615;0;0;0;0;0;0;80,65;246,1;0;0;
5622;0;0;0;0;0;0;95,8;264,6;0;0;
5631;0;0;0;0;0;0;91,8;249,05;0;0;
5637;0;0;0;0;0;0;104,35;251,5;1;0;
5644;0;0;0;0;0;0;116,85;253,65;1;0;
5653;0;0;0;0;0;0;112,8;237,8;1;0;
5660;0;0;0;0;0;0;127,65;252,45;1;0;
5667;0;0;0;0;0;0;138,45;251,1;1;0;
5676;0;0;0;0;0;0;152,55;249,1;1;0;
5684;0;0;0;0;0;0;170,7;263,1;1;0;
5693;0;0;0;0;0;0;166,6;246,45;1;0;
5701;0;0;0;0;0;0;183,35;245,2;1;0;
5707;0;0;0;0;0;0;204,2;260,6;1;0;
5717;0;0;0;0;0;0;200,05;244,2;1;0;
5725;0;0;0;0;0;0;220,25;242,85;1;0;
5733;0;0;0;0;0;0;240,15;241,8;1;0;
5740;0;0;0;0;0;0;235,7;225,7;1;0;
5748;0;0;0;0;0;0;258,7;239,4;1;0;
5755;0;0;0;0;0;0;273,75;235,85;1;0;
5763;0;0;0;0;0;0;286,05;230,95;1;0;
5769;0;0;0;0;0;0;291,15;224,8;1;0;
5779;0;0;0;0;0;0;276;206,3;1;0;
5787;0;0;0;0;0;0;292,05;216,3;1;0;
5793;0;0;0;0;0;0;291,55;208,3;1;0;
5802;0;0;0;0;0;0;275;190,3;1;0;
5809;0;0;0;0;0;0;288,15;200,45;1;0;
5818;0;0;0;0;0;0;286,45;195,95;1;0;
5825;0;0;0;0;0;0;283,8;193,35;1;0;
5833;0;0;0;0;0;0;277,85;191,4;1;0;
5842;0;0;0;0;0;0;259,7;177,4;1;0;
5848;0;0;0;0;0;0;269,85;188,6;1;0;
5856;0;0;0;0;0;0;259,15;184,4;1;0;
5866;0;0;0;0;0;0;238,3;169;1;0;
5873;0;0;0;0;0;0;246,6;177,2;1;0;
5880;0;0;0;0;0;0;230,55;170,35;1;0;
5889;0;0;0;0;0;0;206,2;155,3;1;0;
5896;0;0;0;0;0;0;213,2;161,55;1;0;
5904;0;0;0;0;0;0;197,2;154,1;1;0;
5910;0;0;0;0;0;0;180,35;145,6;1;0;
5918;0;0;0;0;0;0;166,25;138,45;1;0;
5926;0;0;0;0;0;0;146;126,1;1;0;
5933;0;0;0;0;0;0;151,55;130,9;1;0;
5941;0;0;0;0;0;0;141,05;125,7;1;0;
5950;0;0;0;0;0;0;125;115,7;1;0;
5957;0;0;0;0;0;0;130,8;122,65;1;0;
5966;0;0;0;0;0;0;123,45;119,45;1;0;
5974;0;0;0;0;0;0;115,7;118,2;0;0;
5982;0;0;0;0;0;0;108,9;115,05;0;0;
5991;0;0;0;0;0;0;96,7;103;0;0;
5998;0;0;0;0;0;0;101,75;112,45;0;0;
6006;0;0;0;0;0;0;96,65;110,7;0;0;
6015;0;0;0;0;0;0;86,5;99,5;0;0;
6023;0;0;0;0;0;0;91,25;109,25;0;0;
6030;0;0;0;0;0;0;87,7;110,8;0;0;
6039;0;0;0;0;0;0;83,95;111,95;0;0;
6047;0;0;0;0;0;0;88,5;121,3;0;0;
6056;0;0;0;0;0;0;81,5;115,05;0;0;
6064;0;0;0;0;0;0;78,95;118,8;0;0;
6070;0;0;0;0;0;0;77,25;123,6;0;0;
6079;0;0;0;0;0;0;71,1;118,4;0;0;
6086;0;0;0;0;0;0;75,4;128,85;0;0;
6093;0;0;0;0;0;0;74,15;134,5;0;0;
6105;0;0;0;0;0;0;72,85;140,95;0;0;
6115;0;0;0;0;0;0;77,1;152,2;0;0;
6128;0;0;0;0;0;0;71,3;145,25;0;0;
6136;0;0;0;0;0;0;69,7;150,15;0;0;
6143;0;0;0;0;0;0;68,5;153,1;0;0;
6152;0;0;0;0;0;0;67,3;156,65;0;0;
6158;0;0;0;0;0;0;71,5;169,1;0;0;
6167;0;0;0;0;0;0;70,65;172,8;0;0;
6174;0;0;0;0;0;0;69,8;176,5;0;0;
6184;0;0;0;0;0;0;69,8;176,5;0;0;
6190;0;0;0;0;0;0;69,2;180,3;0;0;
6199;0;0;0;0;0;0;68,6;184,1;0;0;
6207;0;0;0;0;0;0;64,05;174,75;0;0;
6216;0;0;0;0;0;0;63,7;179;0;0;
6224;0;0;0;0;0;0;67,9;192,6;0;0;
6231;0;0;0;0;0;0;67,55;195,95;0;0;
6240;0;0;0;0;0;0;67,2;199,3;0;0;
6249;0;0;0;0;0;0;67,2;199,3;0;0;
6256;0;0;0;0;0;0;67,05;203,25;0;0;
6264;0;0;0;0;0;0;66,9;207,2;0;0;
6271;0;0;0;0;0;0;62,65;195,95;0;0;
6280;0;0;0;0;0;0;62,65;199,8;0;0;
6288;0;0;0;0;0;0;66,9;214,9;0;0;
6296;0;0;0;0;0;0;66,9;217,6;0;0;
6304;0;0;0;0;0;0;66,9;220,3;0;0;
6312;0;0;0;0;0;0;62,7;207,85;0;0;
6321;0;0;0;0;0;0;62,65;209,95;0;0;
6329;0;0;0;0;0;0;62,6;211,35;0;0;
6337;0;0;0;0;0;0;62,55;212,9;0;0;
6344;0;0;0;0;0;0;66,7;227,6;0;0;
6353;0;0;0;0;0;0;62,55;214,05;0;0;
6361;0;0;0;0;0;0;62,55;215,1;0;0;
6368;0;0;0;0;0;0;66,7;229,7;0;0;
6376;0;0;0;0;0;0;62,5;216,1;0;0;
6385;0;0;0;0;0;0;62,35;216,95;0;0;
6391;0;0;0;0;0;0;62,3;218,05;0;0;
6400;0;0;0;0;0;0;58,2;204,7;0;0;
6408;0;0;0;0;0;0;62,3;219,15;0;0;
6416;0;0;0;0;0;0;62,25;219,2;0;0;
6423;0;0;0;0;0;0;62,25;219,5;0;0;
6430;0;0;0;0;0;0;66,4;234,2;0;0;
6440;0;0;0;0;0;0;62,15;219,1;0;0;
6449;0;0;0;0;0;0;62;218,55;0;0;
6457;0;0;0;0;0;0;61,9;218,55;0;0;
6466;0;0;0;0;0;0;61,8;218,75;0;0;
6473;0;0;0;0;0;0;65,9;233,5;0;0;
6481;0;0;0;0;0;0;61,75;218,95;0;0;
6488;0;0;0;0;0;0;61,7;219,2;0;0;
6495;0;0;0;0;0;0;61,65;219,3;0;0;
6505;0;0;0;0;0;0;57,5;204,6;0;0;
6512;0;0;0;0;0;0;61,65;219,6;0;0;
6519;0;0;0;0;0;0;61,65;220;0;0;
6528;0;0;0;0;0;0;61,6;220,65;0;0;
6536;0;0;0;0;0;0;65,7;235,9;0;0;
6545;0;0;0;0;0;0;61,65;221,45;0;0;
6552;0;0;0;0;0;0;61,75;222,15;0;0;
6560;0;0;0;0;0;0;65,9;237,3;0;0;
6569;0;0;0;0;0;0;61,8;222,85;0;0;
6577;0;0;0;0;0;0;61,8;223,2;0;0;
6584;0;0;0;0;0;0;61,75;223,3;0;0;
6591;0;0;0;0;0;0;57,6;208,6;0;0;
6600;0;0;0;0;0;0;61,7;223,3;0;0;
6608;0;0;0;0;0;0;61,7;223,45;0;0;
6619;0;0;0;0;0;0;61,7;224,3;0;0;
6628;0;0;0;0;0;0;61,7;224,95;0;0;
6634;0;0;0;0;0;0;61,75;225,95;0;0;
6641;0;0;0;0;0;0;65,9;241,7;0;0;
6650;0;0;0;0;0;0;61,8;226,9;0;0;
6656;0;0;0;0;0;0;61,9;228,1;0;0;
6664;0;0;0;0;0;0;66,1;244,1;0;0;
6671;0;0;0;0;0;0;61,95;229,1;0;0;
6677;0;0;0;0;0;0;61,9;229,7;0;0;
6684;0;0;0;0;0;0;61,9;230,05;0;0;
6693;0;0;0;0;0;0;57,8;214,8;0;0;
6701;0;0;0;0;0;0;61,95;230,55;0;0;
6708;0;0;0;0;0;0;61,95;231,15;0;0;
6719;0;0;0;0;0;0;57,8;216;0;0;
6726;0;0;0;0;0;0;61,9;231,3;0;0;
6733;0;0;0;0;0;0;61,9;231,8;0;0;
6740;0;0;0;0;0;0;61,85;231,65;0;0;
6748;0;0;0;0;0;0;65,9;246,3;0;0;
6757;0;0;0;0;0;0;61,8;231,6;0;0;
6765;0;0;0;0;0;0;61,85;232,5;0;0;
6772;0;0;0;0;0;0;61,9;232,7;0;0;
6781;0;0;0;0;0;0;57,8;217,3;0;0;
6787;0;0;0;0;0;0;57,75;216,95;0;0;
6793;0;0;0;0;0;0;57,7;216,6;0;0;
6804;0;0;0;0;0;0;57,7;216,6;0;0;
6811;0;0;0;0;0;0;57,6;215,95;0;0;
6819;0;0;0;0;0;0;57,5;215,3;0;0;
6827;0;0;0;0;0;0;61,6;230,65;0;0;
6835;0;0;0;0;0;0;61,6;230,4;0;0;
6843;0;0;0;0;0;0;57,5;214,8;0;0;
6851;0;0;0;0;0;0;61,65;230,9;0;0;
6858;0;0;0;0;0;0;61,65;231,25;0;0;
6868;0;0;0;0;0;0;57,5;215,5;0;0;
6876;0;0;0;0;0;0;61,65;231,1;0;0;
6885;0;0;0;0;0;0;61,7;231,4;0;0;
6893;0;0;0;0;0;0;61,7;231,25;0;0;
6901;0;0;0;0;0;0;61,75;231,75;0;0;
6909;0;0;0;0;0;0;57,7;217,1;0;0;
6917;0;0;0;0;0;0;61,75;232,1;0;0;
6925;0;0;0;0;0;0;61,65;231,5;0;0;
6932;0;0;0;0;0;0;61,6;231,2;0;0;
6940;0;0;0;0;0;0;65,7;246,5;0;0;
6950;0;0;0;0;0;0;61,6;231,1;0;0;
6957;0;0;0;0;0;0;61,6;231,3;0;0;
6964;0;0;0;0;0;0;65,7;246,9;0;0;
6973;0;0;0;0;0;0;61,6;231,55;0;0;
6981;0;0;0;0;0;0;61,6;231,75;0;0;
6988;0;0;0;0;0;0;61,6;231,95;0;0;
6996;0;0;0;0;0;0;61,6;232,15;0;0;
7004;0;0;0;0;0;0;65,7;247,7;0;0;
7013;0;0;0;0;0;0;61,55;231,6;0;0;
7021;0;0;0;0;0;0;61,5;230,95;0;0;
7028;0;0;0;0;0;0;65,6;246,4;0;0;
7036;0;0;0;0;0;0;61,45;230,8;0;0;
7043;0;0;0;0;0;0;61,35;230,35;0;0;
7050;0;0;0;0;0;0;61,3;230,35;0;0;
7060;0;0;0;0;0;0;61,3;230,45;0;0;
7068;0;0;0;0;0;0;65,4;245,7;0;0;
7077;0;0;0;0;0;0;61,35;230,7;0;0;
7085;0;0;0;0;0;0;61,4;231,15;0;0;
7092;0;0;0;0;0;0;61,4;231,3;0;0;
7102;0;0;0;0;0;0;57,3;216;0;0;
7110;0;0;0;0;0;0;61,35;231,35;0;0;
7125;0;0;0;0;0;0;61,3;231,1;0;0;
7133;0;0;0;0;0;0;61,3;231,25;0;0;
7141;0;0;0;0;0;0;65,4;247;0;0;
7149;0;0;0;0;0;0;65,45;247,75;0;0;
7156;0;0;0;0;0;0;65,5;248,5;0;0;
7166;0;0;0;0;0;0;61,4;232,95;0;0;
7173;0;0;0;0;0;0;61,6;235;0;0;
7181;0;0;0;0;0;0;65,9;252,6;0;0;
7188;0;0;0;0;0;0;66;253,6;0;0;
7195;0;0;0;0;0;0;66,1;254,6;0;0;
7208;0;0;0;0;0;0;70,25;270,35;0;0;
7218;0;0;0;0;0;0;70,35;270,95;0;0;
7229;0;0;0;0;0;0;66,3;255,8;0;0;
7236;0;0;0;0;0;0;66,3;255,75;0;0;
7243;0;0;0;0;0;0;66,3;255,7;0;0;
7251;0;0;0;0;0;0;70,4;271,1;0;0;
7260;0;0;0;0;0;0;70,4;271,05;0;0;
7271;0;0;0;0;0;0;66,3;255,6;0;0;
7279;0;0;0;0;0;0;70,4;271,6;0;0;
7286;0;0;0;0;0;0;70,45;272,25;0;0;
7294;0;0;0;0;0;0;70,5;272,4;0;0;
7302;0;0;0;0;0;0;70,5;272,15;0;0;
7310;0;0;0;0;0;0;66,4;256,4;0;0;
7318;0;0;0;0;0;0;66,35;255,6;0;0;
7326;0;0;0;0;0;0;66,3;254,8;0;0;
7334;0;0;0;0;0;0;66,3;254,8;0;0;
7342;0;0;0;0;0;0;66,05;252,65;0;0;
7349;0;0;0;0;0;0;65,8;250,5;0;0;
7357;0;0;0;0;0;0;61,6;234,05;0;0;
7365;0;0;0;0;0;0;61,45;232,85;0;0;
7373;0;0;0;0;0;0;61,35;232,35;0;0;
7390;0;0;0;0;0;0;61,25;231,8;0;0;
7398;0;0;0;0;0;0;65,3;247;0;0;
7406;0;0;0;0;0;0;65,15;245,45;0;0;
7415;0;0;0;0;0;0;65;243,9;0;0;
7423;0;0;0;0;0;0;64,9;242,35;0;0;
7429;0;0;0;0;0;0;64,8;240,8;0;0;
7438;0;0;0;0;0;0;64,8;240,8;0;0;
7446;0;0;0;0;0;0;64,75;239,85;0;0;
7454;0;0;0;0;0;0;64,7;238,9;0;0;
7464;0;0;0;0;0;0;60,6;223,4;0;0;
7471;0;0;0;0;0;0;60,55;222,85;0;0;
7479;0;0;0;0;0;0;64,6;237,8;0;0;
7487;0;0;0;0;0;0;65,45;236,7;0;0;
7495;0;0;0;0;0;0;66,3;235,6;0;0;
7504;0;0;0;0;0;0;66,3;235,6;0;0;
7511;0;0;0;0;0;0;74,5;236,35;0;0;
7519;0;0;0;0;0;0;82,7;237,1;0;0;
7529;0;0;0;0;0;0;82,7;237,1;0;0;
7537;0;0;0;0;0;0;95,9;244,05;0;0;
7546;0;0;0;0;0;0;109,1;251;0;0;
7552;0;0;0;0;0;0;121,3;254,05;0;0;
7560;0;0;0;0;0;0;133,5;257,1;1;0;
7569;0;0;0;0;0;0;129,55;243,45;1;0;
7576;0;0;0;0;0;0;142,4;248,35;1;0;
7585;0;0;0;0;0;0;155,2;253,05;1;0;
7592;0;0;0;0;0;0;166,55;253,55;1;0;
7599;0;0;0;0;0;0;181,9;267,9;1;0;
7612;0;0;0;0;0;0;177,85;252,85;1;0;
7621;0;0;0;0;0;0;190,25;251,35;1;0;
7629;0;0;0;0;0;0;206,7;264,9;1;0;
7636;0;0;0;0;0;0;220,2;263,9;1;0;
7643;0;0;0;0;0;0;233,7;262,9;1;0;
7653;0;0;0;0;0;0;228,75;248,5;1;0;
7661;0;0;0;0;0;0;246,4;248,05;1;0;
7670;0;0;0;0;0;0;269;262;1;0;
7677;0;0;0;0;0;0;280;258,6;1;0;
7684;0;0;0;0;0;0;291;255,2;1;0;
7695;0;0;0;0;0;0;291;255,2;1;0;
7702;0;0;0;0;0;0;294,3;244,45;1;0;
7709;0;0;0;0;0;0;297,6;233,7;1;0;
7719;0;0;0;0;0;0;281,35;215,45;1;0;
7727;0;0;0;0;0;0;280,7;206,35;1;0;
7734;0;0;0;0;0;0;296,3;215,5;1;0;
7742;0;0;0;0;0;0;291,95;206,2;1;0;
7748;0;0;0;0;0;0;287,6;196,9;1;0;
7758;0;0;0;0;0;0;272,25;182,55;1;0;
7766;0;0;0;0;0;0;267,25;177;1;0;
7774;0;0;0;0;0;0;277,6;185,8;1;0;
7783;0;0;0;0;0;0;261,15;172,25;1;0;
7792;0;0;0;0;0;0;253,25;165,35;1;0;
7801;0;0;0;0;0;0;244,25;158,05;1;0;
7808;0;0;0;0;0;0;238,85;151,85;1;0;
7816;0;0;0;0;0;0;251;159,6;1;0;
7825;0;0;0;0;0;0;228,4;145,65;1;0;
7832;0;0;0;0;0;0;216,4;139,65;1;0;
7841;0;0;0;0;0;0;203,75;134,8;1;0;
7849;0;0;0;0;0;0;189,4;128,2;1;0;
7857;0;0;0;0;0;0;198,3;134,4;1;0;
7866;0;0;0;0;0;0;177,75;122,95;1;0;
7874;0;0;0;0;0;0;165;116,95;1;0;
7881;0;0;0;0;0;0;172,8;122,4;1;0;
7889;0;0;0;0;0;0;164;119,15;1;0;
7898;0;0;0;0;0;0;155,2;115,9;0;0;
7907;0;0;0;0;0;0;142,75;106,65;0;0;
7914;0;0;0;0;0;0;136,4;102,85;0;0;
7923;0;0;0;0;0;0;142,5;108,3;0;0;
7930;0;0;0;0;0;0;132,15;99,5;0;0;
7938;0;0;0;0;0;0;127,25;95,3;0;0;
7945;0;0;0;0;0;0;132,7;99,9;0;0;
7953;0;0;0;0;0;0;129,25;98;0;0;
7961;0;0;0;0;0;0;125,8;96,1;0;0;
7970;0;0;0;0;0;0;113,65;88,35;0;0;
7978;0;0;0;0;0;0;106,25;87,05;0;0;
7986;0;0;0;0;0;0;111;93,5;0;0;
7997;0;0;0;0;0;0;100,4;85,55;0;0;
8005;0;0;0;0;0;0;94,35;87,1;0;0;
8012;0;0;0;0;0;0;90;90,4;0;0;
8018;0;0;0;0;0;0;85,5;95,45;0;0;
8025;0;0;0;0;0;0;89,9;106,7;0;0;
8035;0;0;0;0;0;0;82,1;101,25;0;0;
8042;0;0;0;0;0;0;78,65;108,1;0;0;
8048;0;0;0;0;0;0;76,2;114,5;0;0;
8057;0;0;0;0;0;0;69,4;108,6;0;0;
8064;0;0;0;0;0;0;73,65;121,3;0;0;
8070;0;0;0;0;0;0;71,8;128,55;0;0;
8080;0;0;0;0;0;0;65,7;123,1;0;0;
8088;0;0;0;0;0;0;69,95;136,55;0;0;
8095;0;0;0;0;0;0;68,75;145,4;0;0;
8102;0;0;0;0;0;0;67,5;154,8;0;0;
8111;0;0;0;0;0;0;66,6;164,05;0;0;
8120;0;0;0;0;0;0;61,5;159,3;0;0;
8135;0;0;0;0;0;0;65,7;173,95;0;0;
8142;0;0;0;0;0;0;65,15;182,15;0;0;
8149;0;0;0;0;0;0;64,65;191,5;0;0;
8156;0;0;0;0;0;0;68,9;207,3;0;0;
8165;0;0;0;0;0;0;64,35;197,8;0;0;
8172;0;0;0;0;0;0;64,1;204,2;0;0;
8179;0;0;0;0;0;0;64;208,85;0;0;
8188;0;0;0;0;0;0;63,85;213,2;0;0;
8196;0;0;0;0;0;0;68,1;228,8;0;0;
8204;0;0;0;0;0;0;63,75;216,5;0;0;
8211;0;0;0;0;0;0;63,55;219,35;0;0;
8220;0;0;0;0;0;0;67,7;234,5;0;0;
8229;0;0;0;0;0;0;63,45;221,8;0;0;
8237;0;0;0;0;0;0;63,45;225;0;0;
8244;0;0;0;0;0;0;67,7;240,9;0;0;
8252;0;0;0;0;0;0;67,7;243,5;0;0;
8259;0;0;0;0;0;0;67,7;246,1;0;0;
8269;0;0;0;0;0;0;63,5;232,1;0;0;
8277;0;0;0;0;0;0;63,45;233,6;0;0;
8286;0;0;0;0;0;0;67,6;249,1;0;0;
8294;0;0;0;0;0;0;67,6;249,95;0;0;
8303;0;0;0;0;0;0;67,6;250,8;0;0;
8311;0;0;0;0;0;0;63,35;235;0;0;
8320;0;0;0;0;0;0;63,4;235,7;0;0;
8329;0;0;0;0;0;0;67,7;252,2;0;0;
8338;0;0;0;0;0;0;67,65;252,75;0;0;
8346;0;0;0;0;0;0;67,6;253,3;0;0;
8355;0;0;0;0;0;0;63,35;237,7;0;0;
8362;0;0;0;0;0;0;63,35;238,85;0;0;
8370;0;0;0;0;0;0;67,6;255,6;0;0;
8378;0;0;0;0;0;0;63,45;240,45;0;0;
8386;0;0;0;0;0;0;63,5;241,35;0;0;
8393;0;0;0;0;0;0;67,7;257,4;0;0;
8402;0;0;0;0;0;0;67,6;256,85;0;0;
8409;0;0;0;0;0;0;67,5;256,3;0;0;
8418;0;0;0;0;0;0;63,25;240,25;0;0;
8425;0;0;0;0;0;0;63,05;239,1;0;0;
8432;0;0;0;0;0;0;67,1;254;0;0;
8442;0;0;0;0;0;0;62,95;238,5;0;0;
8450;0;0;0;0;0;0;62,85;238;0;0;
8457;0;0;0;0;0;0;62,7;237,5;0;0;
8464;0;0;0;0;0;0;62,55;236,95;0;0;
8471;0;0;0;0;0;0;66,6;251,9;0;0;
8480;0;0;0;0;0;0;62,3;235,4;0;0;
8489;0;0;0;0;0;0;62,1;234,25;0;0;
8496;0;0;0;0;0;0;61,95;233,15;1;0;
8505;0;0;0;0;0;0;57,7;216,7;1;0;
8512;0;0;0;0;0;0;62,7;231,65;1;0;
8521;0;0;0;0;0;0;63,45;229,85;1;0;
8530;0;0;0;0;0;0;65,4;228,85;1;0;
8538;0;0;0;0;0;0;71,6;244,6;1;0;
8547;0;0;0;0;0;0;67,4;228,55;1;0;
8555;0;0;0;0;0;0;70,5;227,55;1;0;
8563;0;0;0;0;0;0;73,65;227,25;1;0;
8570;0;0;0;0;0;0;81,3;227,6;1;0;
8579;0;0;0;0;0;0;93,1;243,3;1;0;
8587;0;0;0;0;0;0;89,05;228,4;1;0;
8595;0;0;0;0;0;0;104,7;232;1;0;
8602;0;0;0;0;0;0;124,4;250,5;1;0;
8613;0;0;0;0;0;0;120,35;235,5;1;0;
8621;0;0;0;0;0;0;136,8;237,85;1;0;
8636;0;0;0;0;0;0;153,25;240,25;1;0;
8643;0;0;0;0;0;0;171,55;240,35;1;0;
8650;0;0;0;0;0;0;193,9;255,4;1;0;
8657;0;0;0;0;0;0;209,05;253,55;1;0;
8665;0;0;0;0;0;0;224,2;251,7;1;0;
8674;0;0;0;0;0;0;224,2;251,7;1;0;
8681;0;0;0;0;0;0;233,9;246,8;1;0;
8689;0;0;0;0;0;0;243,6;241,9;1;0;
8700;0;0;0;0;0;0;237,4;226,15;1;0;
8707;0;0;0;0;0;0;244;222;1;0;
8715;0;0;0;0;0;0;256,8;233,6;1;0;
8724;0;0;0;0;0;0;261,25;229,35;1;0;
8731;0;0;0;0;0;0;265,7;225,1;1;0;
8740;0;0;0;0;0;0;253,9;209,4;1;0;
8752;0;0;0;0;0;0;252,45;202,7;1;0;
8759;0;0;0;0;0;0;262,8;211,7;1;0;
8767;0;0;0;0;0;0;251,7;200,1;1;0;
8775;0;0;0;0;0;0;240,6;188,5;1;0;
8784;0;0;0;0;0;0;240,6;188,5;1;0;
8790;0;0;0;0;0;0;227,75;176,8;1;0;
8798;0;0;0;0;0;0;214,9;165,1;1;0;
8806;0;0;0;0;0;0;199,25;155,25;1;0;
8813;0;0;0;0;0;0;183,6;145,4;1;0;
8823;0;0;0;0;0;0;164,35;131,9;1;0;
8830;0;0;0;0;0;0;151;124,25;1;0;
8838;0;0;0;0;0;0;156,9;130,1;0;0;
8849;0;0;0;0;0;0;142,2;120,05;0;0;
8857;0;0;0;0;0;0;132,95;119,35;0;0;
8864;0;0;0;0;0;0;138,4;128,7;0;0;
8870;0;0;0;0;0;0;130,8;128,6;0;0;
8879;0;0;0;0;0;0;123,2;128,5;0;0;
8889;0;0;0;0;0;0;111,45;117,7;0;0;
8897;0;0;0;0;0;0;104,55;119,25;0;0;
8905;0;0;0;0;0;0;109,4;131,6;0;0;
8914;0;0;0;0;0;0;103,7;135,65;0;0;
8921;0;0;0;0;0;0;98;139,7;0;0;
8931;0;0;0;0;0;0;89,4;132,8;0;0;
8938;0;0;0;0;0;0;85,25;139,45;0;0;
8945;0;0;0;0;0;0;89,7;153;0;0;
8954;0;0;0;0;0;0;82,05;147,35;0;0;
8962;0;0;0;0;0;0;78,75;156,2;0;0;
8968;0;0;0;0;0;0;76,4;165,5;0;0;
8976;0;0;0;0;0;0;74,05;175,35;0;0;
8984;0;0;0;0;0;0;78,4;190,4;0;0;
8992;0;0;0;0;0;0;72,5;184,55;0;0;
8999;0;0;0;0;0;0;70,9;194,7;0;0;
9006;0;0;0;0;0;0;75,2;210,7;0;0;
9016;0;0;0;0;0;0;69,75;201,35;0;0;
9023;0;0;0;0;0;0;68,55;207,85;0;0;
9030;0;0;0;0;0;0;67,6;212,2;0;0;
9038;0;0;0;0;0;0;66,7;216,25;0;0;
9045;0;0;0;0;0;0;71;231,8;0;0;
9053;0;0;0;0;0;0;66,15;219,45;0;0;
9062;0;0;0;0;0;0;65,55;222,85;0;0;
9069;0;0;0;0;0;0;65,15;225,55;0;0;
9078;0;0;0;0;0;0;60,5;212,5;0;0;
9086;0;0;0;0;0;0;64,7;228,2;0;0;
9093;0;0;0;0;0;0;64,45;230,35;0;0;
9102;0;0;0;0;0;0;60;216,8;0;0;
9109;0;0;0;0;0;0;64,15;232,55;0;0;
9116;0;0;0;0;0;0;63,95;233,8;0;0;
9124;0;0;0;0;0;0;63,8;235,4;0;0;
9136;0;0;0;0;0;0;63,65;236,45;0;0;
9149;0;0;0;0;0;0;59,3;221,4;0;0;
9157;0;0;0;0;0;0;63,5;237,8;0;0;
9165;0;0;0;0;0;0;63,4;238,2;0;0;
9172;0;0;0;0;0;0;63,3;238,15;0;0;
9178;0;0;0;0;0;0;67,5;254,1;0;0;
9187;0;0;0;0;0;0;63,25;238,25;0;0;
9194;0;0;0;0;0;0;63,15;238,2;0;0;
9203;0;0;0;0;0;0;63;238,45;0;0;
9211;0;0;0;0;0;0;62,85;238,9;0;0;
9218;0;0;0;0;0;0;67;254,9;0;0;
9232;0;0;0;0;0;0;62,75;239,15;0;0;
9240;0;0;0;0;0;0;62,6;238,9;0;0;
9248;0;0;0;0;0;0;66,7;254,4;0;0;
9256;0;0;0;0;0;0;66,6;253,95;0;0;
9263;0;0;0;0;0;0;66,5;253,5;0;0;
9272;0;0;0;0;0;0;66,5;253,5;0;0;
9279;0;0;0;0;0;0;66,45;253,15;0;0;
9286;0;0;0;0;0;0;66,4;252,8;0;0;
9294;0;0;0;0;0;0;66,3;252,2;0;0;
9302;0;0;0;0;0;0;66,2;251,6;0;0;
9311;0;0;0;0;0;0;66,2;251,6;0;0;
9318;0;0;0;0;0;0;66,1;250,4;0;0;
9325;0;0;0;0;0;0;66;249,2;0;0;
9334;0;0;0;0;0;0;61,8;233,25;0;0;
9342;0;0;0;0;0;0;61,75;232,7;0;0;
9350;0;0;0;0;0;0;65,9;248,1;0;0;
9357;0;0;0;0;0;0;65,85;247,45;0;0;
9365;0;0;0;0;0;0;65,8;246,8;0;0;
9374;0;0;0;0;0;0;61,65;230,8;0;0;
9381;0;0;0;0;0;0;61,55;229,75;0;0;
9388;0;0;0;0;0;0;65,6;244,7;0;0;
9398;0;0;0;0;0;0;61,5;229,2;0;0;
9406;0;0;0;0;0;0;61,45;228,75;0;0;
9412;0;0;0;0;0;0;61,4;228,55;0;0;
9421;0;0;0;0;0;0;57,3;213,3;0;0;
9428;0;0;0;0;0;0;61,35;228,25;0;0;
9435;0;0;0;0;0;0;61,3;227,8;0;0;
9443;0;0;0;0;0;0;57,2;212,4;0;0;
9450;0;0;0;0;0;0;57,15;212;0;0;
9457;0;0;0;0;0;0;57,1;211,6;0;0;
9464;0;0;0;0;0;0;61,2;227,1;0;0;
9472;0;0;0;0;0;0;61,2;227,4;0;0;
9481;0;0;0;0;0;0;57,1;212,2;0;0;
9488;0;0;0;0;0;0;61,15;227,35;0;0;
9495;0;0;0;0;0;0;61,05;227,1;0;0;
9505;0;0;0;0;0;0;56,9;211,7;0;0;
9512;0;0;0;0;0;0;56,9;212;0;0;
9519;0;0;0;0;0;0;56,9;212,3;0;0;
9528;0;0;0;0;0;0;61;227,7;0;0;
9537;0;0;0;0;0;0;61,05;228,15;0;0;
9545;0;0;0;0;0;0;57;213,2;0;0;
9552;0;0;0;0;0;0;61,05;228,3;0;0;
9560;0;0;0;0;0;0;61,05;228,35;0;0;
9569;0;0;0;0;0;0;57;213,3;0;0;
9578;0;0;0;0;0;0;61,15;228,7;0;0;
9586;0;0;0;0;0;0;61,25;229,15;0;0;
9592;0;0;0;0;0;0;61,25;229,65;0;0;
9599;0;0;0;0;0;0;65,3;245,1;0;0;
9607;0;0;0;0;0;0;61,25;230;0;0;
9614;0;0;0;0;0;0;61,35;231,1;0;0;
9622;0;0;0;0;0;0;61,4;231,8;0;0;
9630;0;0;0;0;0;0;57,3;216,3;0;0;
9639;0;0;0;0;0;0;61,45;232,3;0;0;
9651;0;0;0;0;0;0;61,55;233,15;0;0;
9659;0;0;0;0;0;0;61,65;234,8;0;0;
9667;0;0;0;0;0;0;65,8;251,6;0;0;
9675;0;0;0;0;0;0;61,7;236,15;0;0;
9683;0;0;0;0;0;0;61,75;237,6;0;0;
9689;0;0;0;0;0;0;61,8;239,1;0;0;
9699;0;0;0;0;0;0;57,7;223,7;0;0;
9707;0;0;0;0;0;0;61,9;240,2;0;0;
9717;0;0;0;0;0;0;62,05;241,6;0;0;
9724;0;0;0;0;0;0;62,15;242,6;0;0;
9730;0;0;0;0;0;0;66,3;258,7;0;0;
9740;0;0;0;0;0;0;62,15;243,3;0;0;
9748;0;0;0;0;0;0;62,1;243,5;0;0;
9755;0;0;0;0;0;0;62,15;243,65;0;0;
9763;0;0;0;0;0;0;62,2;243,75;0;0;
9771;0;0;0;0;0;0;66,3;259,3;0;0;
9780;0;0;0;0;0;0;62,15;243,1;0;0;
9788;0;0;0;0;0;0;62,1;242,7;0;0;
9796;0;0;0;0;0;0;66,2;258,5;0;0;
9804;0;0;0;0;0;0;62,05;242,5;0;0;
9812;0;0;0;0;0;0;62;242,5;0;0;
9820;0;0;0;0;0;0;61,95;241,7;0;0;
9827;0;0;0;0;0;0;61,9;240,8;0;0;
9834;0;0;0;0;0;0;66;256,7;0;0;
9844;0;0;0;0;0;0;61,85;239,8;0;0;
9850;0;0;0;0;0;0;61,8;238,7;0;0;
9857;0;0;0;0;0;0;65,9;254,5;0;0;
9868;0;0;0;0;0;0;61,7;238;0;0;
9875;0;0;0;0;0;0;61,6;237,1;0;0;
9883;0;0;0;0;0;0;61,55;236,6;0;0;
9890;0;0;0;0;0;0;61,45;235,85;0;0;
9897;0;0;0;0;0;0;65,5;251,2;0;0;
9906;0;0;0;0;0;0;61,4;235,6;0;0;
9913;0;0;0;0;0;0;61,35;235,3;0;0;
9920;0;0;0;0;0;0;61,3;235,05;0;0;
9929;0;0;0;0;0;0;57,2;219,5;0;0;
9937;0;0;0;0;0;0;61,25;234,95;0;0;
9945;0;0;0;0;0;0;61,2;234,6;0;0;
9954;0;0;0;0;0;0;61,15;234,05;0;0;
9961;0;0;0;0;0;0;65,2;249,3;0;0;
9970;0;0;0;0;0;0;61,1;233,3;0;0;
9977;0;0;0;0;0;0;61,05;233,15;0;0;
9985;0;0;0;0;0;0;61;233,1;0;0;
9993;0;0;0;0;0;0;56,9;217,2;0;0;
10001;0;0;0;0;0;0;61;233;0;0;
10008;0;0;0;0;0;0;61;233;0;0;
10016;0;0;0;0;0;0;56,9;217,2;0;0;
10024;0;0;0;0;0;0;61;233,3;0;0;
10032;0;0;0;0;0;0;61;233,8;0;0;
10039;0;0;0;0;0;0;60,95;234,05;0;0;
10046;0;0;0;0;0;0;60,95;234,55;0;0;
10055;0;0;0;0;0;0;56,9;219,2;0;0;
10062;0;0;0;0;0;0;60,95;234,75;0;0;
10070;0;0;0;0;0;0;60,95;235;0;0;
10078;0;0;0;0;0;0;56,9;219,7;0;0;
10085;0;0;0;0;0;0;60,95;234,9;0;0;
10094;0;0;0;0;0;0;60,95;234,65;0;0;
10103;0;0;0;0;0;0;56,9;219,2;0;0;
10111;0;0;0;0;0;0;56,85;219;0;0;
10120;0;0;0;0;0;0;56,8;218,8;0;0;
10128;0;0;0;0;0;0;60,85;234,4;0;0;
10136;0;0;0;0;0;0;60,85;234,15;0;0;
10151;0;0;0;0;0;0;56,8;218,3;0;0;
10159;0;0;0;0;0;0;60,9;234,55;0;0;
10166;0;0;0;0;0;0;60,9;235;0;0;
10173;0;0;0;0;0;0;60,95;236,1;0;0;
10180;0;0;0;0;0;0;65,1;253;0;0;
10187;0;0;0;0;0;0;65,1;253,65;0;0;
10195;0;0;0;0;0;0;65,1;254,3;0;0;
10204;0;0;0;0;0;0;61,05;238,45;0;0;
10210;0;0;0;0;0;0;61,1;238,95;0;0;
10218;0;0;0;0;0;0;65,2;255,3;0;0;
10228;0;0;0;0;0;0;61,15;239,75;0;0;
10235;0;0;0;0;0;0;61,2;240,65;0;0;
10244;0;0;0;0;0;0;65,3;257,1;0;0;
10251;0;0;0;0;0;0;65,3;257,85;0;0;
10259;0;0;0;0;0;0;65,3;258,6;0;0;
10269;0;0;0;0;0;0;65,3;258,6;0;0;
10276;0;0;0;0;0;0;65,35;259,2;0;0;
10284;0;0;0;0;0;0;65,4;259,8;0;0;
10293;0;0;0;0;0;0;65,4;259,9;0;0;
10301;0;0;0;0;0;0;65,4;260;0;0;
10310;0;0;0;0;0;0;65,4;260;0;0;
10318;0;0;0;0;0;0;65,35;259,25;0;0;
10325;0;0;0;0;0;0;65,3;258,5;0;0;
10333;0;0;0;0;0;0;61,15;241,6;0;0;
10341;0;0;0;0;0;0;61,05;240,35;0;0;
10350;0;0;0;0;0;0;61;239,25;0;0;
10358;0;0;0;0;0;0;60,95;237,95;0;0;
10366;0;0;0;0;0;0;65;253,4;0;0;
10374;0;0;0;0;0;0;60,9;237,05;0;0;
10382;0;0;0;0;0;0;60,9;237,2;0;0;
10389;0;0;0;0;0;0;65;253,7;0;0;
10398;0;0;0;0;0;0;60,9;237,25;0;0;
10405;0;0;0;0;0;0;60,85;236,6;0;0;
10413;0;0;0;0;0;0;60,85;236,45;0;0;
10422;0;0;0;0;0;0;56,8;220,5;0;0;
10429;0;0;0;0;0;0;60,85;236,05;0;0;
10437;0;0;0;0;0;0;60,85;235,95;0;0;
10445;0;0;0;0;0;0;60,85;236,05;0;0;
10453;0;0;0;0;0;0;60,85;236,1;0;0;
10463;0;0;0;0;0;0;56,8;220,4;0;0;
10470;0;0;0;0;0;0;60,8;235,7;0;0;
10477;0;0;0;0;0;0;60,75;235,5;0;0;
10485;0;0;0;0;0;0;60,75;235,7;0;0;
10491;0;0;0;0;0;0;64,8;251,4;0;0;
10501;0;0;0;0;0;0;60,75;235,75;0;0;
10510;0;0;0;0;0;0;60,75;235,8;0;0;
10516;0;0;0;0;0;0;60,75;236,05;0;0;
10525;0;0;0;0;0;0;56,7;220,6;0;0;
10532;0;0;0;0;0;0;60,75;236,55;0;0;
10539;0;0;0;0;0;0;60,7;236;0;0;
10549;0;0;0;0;0;0;56,6;219,5;0;0;
10556;0;0;0;0;0;0;60,65;235,6;0;0;
10563;0;0;0;0;0;0;60,65;235,9;0;0;
10571;0;0;0;0;0;0;60,7;236,2;0;0;
10578;0;0;0;0;0;0;64,8;252,3;0;0;
10587;0;0;0;0;0;0;60,75;236,75;0;0;
10594;0;0;0;0;0;0;60,85;238;0;0;
10602;0;0;0;0;0;0;60,95;239,05;0;0;
10610;0;0;0;0;0;0;56,9;223,3;0;0;
10619;0;0;0;0;0;0;61;239,55;0;0;
10626;0;0;0;0;0;0;61,1;240,5;0;0;
10636;0;0;0;0;0;0;57,1;225,2;0;0;
10644;0;0;0;0;0;0;57,1;225,55;0;0;
10653;0;0;0;0;0;0;57,1;225,9;0;0;
10665;0;0;0;0;0;0;61,2;242,1;0;0;
10674;0;0;0;0;0;0;61,25;242,6;0;0;
10680;0;0;0;0;0;0;61,35;243,85;0;0;
10688;0;0;0;0;0;0;65,5;260,8;0;0;
10696;0;0;0;0;0;0;61,45;244,85;0;0;
10703;0;0;0;0;0;0;61,5;245,6;0;0;
10710;0;0;0;0;0;0;65,6;262,3;0;0;
10719;0;0;0;0;0;0;61,55;246,2;0;0;
10726;0;0;0;0;0;0;61,6;246,5;0;0;
10734;0;0;0;0;0;0;61,6;246,8;0;0;
10742;0;0;0;0;0;0;61,55;246,65;0;0;
10749;0;0;0;0;0;0;65,6;262,6;0;0;
10758;0;0;0;0;0;0;61,45;245,8;0;0;
10765;0;0;0;0;0;0;61,3;244,55;0;0;
10774;0;0;0;0;0;0;65,3;260,1;0;0;
10783;0;0;0;0;0;0;65,25;259,55;0;0;
10791;0;0;0;0;0;0;65,2;259;0;0;
10800;0;0;0;0;0;0;65,2;259;0;0;
10808;0;0;0;0;0;0;65,2;258,9;0;0;
10817;0;0;0;0;0;0;65,2;258,8;0;0;
10826;0;0;0;0;0;0;65,15;258,7;0;0;
10833;0;0;0;0;0;0;65,1;258,6;0;0;
10843;0;0;0;0;0;0;60,95;241,65;0;0;
10850;0;0;0;0;0;0;60,85;240,65;0;0;
10858;0;0;0;0;0;0;64,9;256,6;0;0;
10868;0;0;0;0;0;0;60,8;239,9;0;0;
10875;0;0;0;0;0;0;60,75;239;0;0;
10883;0;0;0;0;0;0;64,8;254,8;0;0;
10890;0;0;0;0;0;0;64,8;254,4;0;0;
10897;0;0;0;0;0;0;64,8;254;0;0;
10907;0;0;0;0;0;0;60,75;238,05;0;0;
10913;0;0;0;0;0;0;60,75;237,8;0;0;
10921;0;0;0;0;0;0;64,8;253,5;0;0;
10932;0;0;0;0;0;0;60,8;237,95;0;0;
10940;0;0;0;0;0;0;60,85;237,95;0;0;
10947;0;0;0;0;0;0;60,85;237,8;0;0;
10954;0;0;0;0;0;0;60,9;238,1;0;0;
10962;0;0;0;0;0;0;65;254,1;0;0;
10970;0;0;0;0;0;0;60,95;238,15;0;0;
10977;0;0;0;0;0;0;60,95;237,9;0;0;
10985;0;0;0;0;0;0;60,95;237,5;0;0;
10994;0;0;0;0;0;0;56,9;221,4;0;0;
11001;0;0;0;0;0;0;60,95;237,3;0;0;
11008;0;0;0;0;0;0;60,95;237,25;0;0;
11017;0;0;0;0;0;0;60,95;237,3;0;0;
11024;0;0;0;0;0;0;65;253,3;0;0;
11033;0;0;0;0;0;0;60,95;237,5;0;0;
11041;0;0;0;0;0;0;61;237,7;0;0;
11048;0;0;0;0;0;0;61;237,7;0;0;
11056;0;0;0;0;0;0;56,9;221,7;0;0;
11064;0;0;0;0;0;0;60,95;237,5;0;0;
11071;0;0;0;0;0;0;60,95;237,6;0;0;
11081;0;0;0;0;0;0;56,9;221,9;0;0;
11088;0;0;0;0;0;0;60,95;237,7;0;0;
11096;0;0;0;0;0;0;60,95;237,95;0;0;
11104;0;0;0;0;0;0;60,95;237,75;0;0;
11110;0;0;0;0;0;0;60,9;237,1;0;0;
11118;0;0;0;0;0;0;56,8;221,1;0;0;
11127;0;0;0;0;0;0;60,8;236,5;0;0;
11134;0;0;0;0;0;0;60,75;236,2;0;0;
11144;0;0;0;0;0;0;56,7;220,5;0;0;
11151;0;0;0;0;0;0;60,75;236,3;0;0;
11159;0;0;0;0;0;0;60,75;236,2;0;0;
11174;0;0;0;0;0;0;60,75;236,3;0;0;
11185;0;0;0;0;0;0;60,75;236,3;0;0;
11192;0;0;0;0;0;0;60,9;237,25;0;0;
11199;0;0;0;0;0;0;65,1;254,2;0;0;
11210;0;0;0;0;0;0;65,1;254,6;0;0;
11217;0;0;0;0;0;0;65,1;255;0;0;
11227;0;0;0;0;0;0;65,1;255;0;0;
11236;0;0;0;0;0;0;65,15;255,35;0;0;
11243;0;0;0;0;0;0;65,2;255,7;0;0;
11250;0;0;0;0;0;0;69,35;271,7;0;0;
11257;0;0;0;0;0;0;69,45;271,9;0;0;
11266;0;0;0;0;0;0;65,4;256,1;0;0;
11274;0;0;0;0;0;0;65,4;256,45;0;0;
11281;0;0;0;0;0;0;65,4;256,8;0;0;
11290;0;0;0;0;0;0;65,4;256,8;0;0;
11297;0;0;0;0;0;0;65,45;256,7;0;0;
11305;0;0;0;0;0;0;65,5;256,6;0;0;
11315;0;0;0;0;0;0;65,5;256,6;0;0;
11322;0;0;0;0;0;0;65,55;256,5;0;0;
11329;0;0;0;0;0;0;65,6;256,4;0;0;
11337;0;0;0;0;0;0;65,65;256;0;0;
11346;0;0;0;0;0;0;65,7;255,6;0;0;
11355;0;0;0;0;0;0;61,5;238,65;0;0;
11363;0;0;0;0;0;0;61,35;237,45;0;0;
11372;0;0;0;0;0;0;61,3;236,8;0;0;
11379;0;0;0;0;0;0;61,3;236,6;0;0;
11387;0;0;0;0;0;0;65,4;252,8;0;0;
11396;0;0;0;0;0;0;61,3;236,65;0;0;
11403;0;0;0;0;0;0;61,3;236,4;0;0;
11410;0;0;0;0;0;0;61,25;236,3;0;0;
11421;0;0;0;0;0;0;57,1;220,3;0;0;
11427;0;0;0;0;0;0;61,15;235,7;0;0;
11436;0;0;0;0;0;0;61,15;235,4;0;0;
11444;0;0;0;0;0;0;61,15;235,1;0;0;
11451;0;0;0;0;0;0;65,2;250,5;0;0;
11460;0;0;0;0;0;0;61,15;235,2;0;0;
11467;0;0;0;0;0;0;61,15;235,3;0;0;
11473;0;0;0;0;0;0;65,2;250,7;0;0;
11483;0;0;0;0;0;0;61,1;235;0;0;
11489;0;0;0;0;0;0;61,1;235;0;0;
11497;0;0;0;0;0;0;61,1;235,1;0;0;
11506;0;0;0;0;0;0;57;219,5;0;0;
11513;0;0;0;0;0;0;61,1;235,65;0;0;
11521;0;0;0;0;0;0;61,15;236,05;0;0;
11527;0;0;0;0;0;0;61,2;236,4;0;0;
11536;0;0;0;0;0;0;61,2;236,3;0;0;
11544;0;0;0;0;0;0;57,1;220,1;0;0;
11554;0;0;0;0;0;0;61,25;236,05;0;0;
11562;0;0;0;0;0;0;61,3;236,1;0;0;
11571;0;0;0;0;0;0;57,2;220,2;0;0;
11578;0;0;0;0;0;0;61,25;235,5;0;0;
11585;0;0;0;0;0;0;61,25;235,4;0;0;
11592;0;0;0;0;0;0;61,3;235,55;0;0;
11599;0;0;0;0;0;0;61,35;235,7;0;0;
11609;0;0;0;0;0;0;57,3;220,3;0;0;
11617;0;0;0;0;0;0;61,45;236,4;0;0;
11625;0;0;0;0;0;0;61,55;237,1;0;0;
11633;0;0;0;0;0;0;57,5;221,7;0;0;
11642;0;0;0;0;0;0;61,6;237,45;0;0;
11648;0;0;0;0;0;0;61,6;237,5;0;0;
11657;0;0;0;0;0;0;61,6;237,65;0;0;
11666;0;0;0;0;0;0;65,7;253,5;0;0;
11678;0;0;0;0;0;0;61,6;237,35;0;0;
11685;0;0;0;0;0;0;61,65;237,5;0;0;
11692;0;0;0;0;0;0;61,7;237,7;0;0;
11699;0;0;0;0;0;0;61,8;237,9;0;0;
11707;0;0;0;0;0;0;66;254,2;0;0;
11716;0;0;0;0;0;0;61,85;238,25;0;0;
11724;0;0;0;0;0;0;61,8;238,05;0;0;
11730;0;0;0;0;0;0;65,9;253,8;0;0;
11740;0;0;0;0;0;0;61,85;238,5;0;0;
11748;0;0;0;0;0;0;61,9;238,65;0;0;
11756;0;0;0;0;0;0;61,9;238,55;0;0;
11763;0;0;0;0;0;0;61,9;238,3;0;0;
11771;0;0;0;0;0;0;66;253,6;0;0;
11779;0;0;0;0;0;0;61,85;237,5;0;0;
11786;0;0;0;0;0;0;61,8;236,8;0;0;
11794;0;0;0;0;0;0;65,9;252,2;0;0;
11803;0;0;0;0;0;0;61,8;236,45;0;0;
11810;0;0;0;0;0;0;61,85;236,5;0;0;
11818;0;0;0;0;0;0;61,9;236,45;0;0;
11826;0;0;0;0;0;0;61,95;236,55;0;0;
11835;0;0;0;0;0;0;66,1;252,5;0;0;
11843;0;0;0;0;0;0;61,95;236,2;0;0;
11850;0;0;0;0;0;0;61,9;235,55;0;0;
11857;0;0;0;0;0;0;61,8;234,9;0;0;
11868;0;0;0;0;0;0;57,6;218,6;0;0;
11875;0;0;0;0;0;0;61,7;234,35;0;0;
11883;0;0;0;0;0;0;61,7;234,35;0;0;
11891;0;0;0;0;0;0;61,7;234,3;0;0;
11898;0;0;0;0;0;0;65,8;250;0;0;
11906;0;0;0;0;0;0;61,7;234,55;0;0;
11912;0;0;0;0;0;0;61,75;235,15;0;0;
11919;0;0;0;0;0;0;61,8;235,9;0;0;
11927;0;0;0;0;0;0;57,7;220,6;0;0;
11934;0;0;0;0;0;0;61,85;236,35;0;0;
11942;0;0;0;0;0;0;61,9;236,7;0;0;
11949;0;0;0;0;0;0;57,8;221,3;0;0;
11957;0;0;0;0;0;0;61,9;236,85;0;0;
11964;0;0;0;0;0;0;61,85;236,6;0;0;
11974;0;0;0;0;0;0;57,7;220,8;0;0;
11982;0;0;0;0;0;0;57,75;220,75;0;0;
11989;0;0;0;0;0;0;57,8;220,7;0;0;
11996;0;0;0;0;0;0;61,95;236,1;0;0;
12005;0;0;0;0;0;0;62;235,85;0;0;
12012;0;0;0;0;0;0;57,9;220,2;0;0;
12020;0;0;0;0;0;0;62;235,6;0;0;
12027;0;0;0;0;0;0;62;235,25;0;0;
12035;0;0;0;0;0;0;57,9;219,5;0;0;
12041;0;0;0;0;0;0;57,95;219,55;0;0;
12049;0;0;0;0;0;0;58;219,6;0;0;
12058;0;0;0;0;0;0;58;219,6;0;0;
12065;0;0;0;0;0;0;58;219,1;0;0;
12072;0;0;0;0;0;0;58;218,6;0;0;
12079;0;0;0;0;0;0;58;218,6;0;0;
12086;0;0;0;0;0;0;57,95;218;0;0;
12093;0;0;0;0;0;0;57,9;217,4;0;0;
12101;0;0;0;0;0;0;62,05;232,7;0;0;
12108;0;0;0;0;0;0;62,1;232,45;0;0;
12116;0;0;0;0;0;0;58;216,9;0;0;
12123;0;0;0;0;0;0;62,15;232,6;0;0;
12130;0;0;0;0;0;0;62,1;232,4;0;0;
12139;0;0;0;0;0;0;57,9;216,5;0;0;
12146;0;0;0;0;0;0;57,85;216,65;0;0;
12154;0;0;0;0;0;0;57,8;216,8;0;0;
12164;0;0;0;0;0;0;57,8;216,8;0;0;
12171;0;0;0;0;0;0;57,85;217;0;0;
12179;0;0;0;0;0;0;57,9;217,2;0;0;
12192;0;0;0;0;0;0;62,05;232,8;0;0;
12200;0;0;0;0;0;0;62,05;232,65;0;0;
12208;0;0;0;0;0;0;62,15;233,55;0;0;
12216;0;0;0;0;0;0;66,4;250,2;0;0;
12225;0;0;0;0;0;0;62,25;234,65;0;0;
12234;0;0;0;0;0;0;62,35;235,8;0;0;
12242;0;0;0;0;0;0;66,6;252,5;0;0;
12251;0;0;0;0;0;0;66,7;253,75;0;0;
12258;0;0;0;0;0;0;66,8;255;0;0;
12266;0;0;0;0;0;0;62,65;239,7;0;0;
12274;0;0;0;0;0;0;62,7;240,75;0;0;
12281;0;0;0;0;0;0;66,9;257,1;0;0;
12289;0;0;0;0;0;0;62,75;241,4;0;0;
12297;0;0;0;0;0;0;62,75;241,65;0;0;
12306;0;0;0;0;0;0;66,9;257,6;0;0;
12314;0;0;0;0;0;0;62,8;242,05;0;0;
12322;0;0;0;0;0;0;62,85;242,55;0;0;
12329;0;0;0;0;0;0;67;258,6;0;0;
12336;0;0;0;0;0;0;67,05;259,25;0;0;
12343;0;0;0;0;0;0;67,1;259,9;0;0;
12354;0;0;0;0;0;0;62,95;244,3;0;0;
12362;0;0;0;0;0;0;63;245;0;0;
12369;0;0;0;0;0;0;62,95;244,65;0;0;
12379;0;0;0;0;0;0;62,8;244,1;0;0;
12386;0;0;0;0;0;0;66,9;260,2;0;0;
12396;0;0;0;0;0;0;62,65;243,5;0;0;
12404;0;0;0;0;0;0;62,55;242,6;0;0;
12412;0;0;0;0;0;0;62,5;242;0;0;
12420;0;0;0;0;0;0;62,45;240,85;0;0;
12427;0;0;0;0;0;0;66,6;256,1;0;0;
12437;0;0;0;0;0;0;62,4;239,75;0;0;
12445;0;0;0;0;0;0;62,3;238,6;0;0;
12454;0;0;0;0;0;0;66,4;253,8;0;0;
12463;0;0;0;0;0;0;62,25;237,85;0;0;
12470;0;0;0;0;0;0;62,25;237,45;0;0;
12477;0;0;0;0;0;0;66,4;253;0;0;
12485;0;0;0;0;0;0;66,4;252,8;0;0;
12491;0;0;0;0;0;0;66,4;252,6;0;0;
12499;0;0;0;0;0;0;62,2;236,35;0;0;
12506;0;0;0;0;0;0;62,15;236,05;0;0;
12514;0;0;0;0;0;0;66,3;252;1;0;
12523;0;0;0;0;0;0;62,1;235,7;1;0;
12531;0;0;0;0;0;0;63,4;235,45;1;0;
12539;0;0;0;0;0;0;64,8;235,4;1;0;
12547;0;0;0;0;0;0;60,7;219,3;1;0;
12555;0;0;0;0;0;0;74,4;235,45;1;0;
12565;0;0;0;0;0;0;83,95;235,8;1;0;
12572;0;0;0;0;0;0;95,25;239,7;1;0;
12580;0;0;0;0;0;0;106,55;244,15;1;0;
12588;0;0;0;0;0;0;102,4;228,9;1;0;
12595;0;0;0;0;0;0;119,3;245,35;1;0;
12603;0;0;0;0;0;0;132,1;246,6;1;0;
12611;0;0;0;0;0;0;128;231,4;1;0;
12618;0;0;0;0;0;0;146,75;247,75;1;0;
12625;0;0;0;0;0;0;161,35;248,55;1;0;
12634;0;0;0;0;0;0;157,2;233;1;0;
12642;0;0;0;0;0;0;172,25;230,55;1;0;
12650;0;0;0;0;0;0;187,3;228,1;1;0;
12658;0;0;0;0;0;0;210;241,75;1;0;
12667;0;0;0;0;0;0;228,55;239,45;1;0;
12676;0;0;0;0;0;0;224,4;223,5;1;0;
12683;0;0;0;0;0;0;245,2;236,95;1;0;
12692;0;0;0;0;0;0;260,5;234,35;1;0;
12703;0;0;0;0;0;0;273;229,65;1;0;
12709;0;0;0;0;0;0;291;241;1;0;
12718;0;0;0;0;0;0;277,3;224,85;1;0;
12725;0;0;0;0;0;0;283,65;218;1;0;
12731;0;0;0;0;0;0;288,25;207,6;1;0;
12741;0;0;0;0;0;0;272,8;187,9;1;0;
12749;0;0;0;0;0;0;291,35;197,35;1;0;
12756;0;0;0;0;0;0;293;190,35;1;0;
12764;0;0;0;0;0;0;298,2;183,75;1;0;
12770;0;0;0;0;0;0;320,3;193,6;1;0;
12780;0;0;0;0;0;0;301,55;177,25;1;0;
12787;0;0;0;0;0;0;302,7;171;1;0;
12795;0;0;0;0;0;0;322,6;181,1;1;0;
12803;0;0;0;0;0;0;303,4;167,7;1;0;
12811;0;0;0;0;0;0;299,7;162,65;1;0;
12819;0;0;0;0;0;0;292,5;157,35;1;0;
12827;0;0;0;0;0;0;282,45;151,5;1;0;
12835;0;0;0;0;0;0;295,1;159,3;1;0;
12844;0;0;0;0;0;0;274,3;145,85;1;0;
12851;0;0;0;0;0;0;263,7;140;1;0;
12858;0;0;0;0;0;0;255,9;136,25;0;0;
12867;0;0;0;0;0;0;237,9;124,9;0;0;
12874;0;0;0;0;0;0;246,6;131,1;0;0;
12881;0;0;0;0;0;0;235,25;128;0;0;
12889;0;0;0;0;0;0;222,65;123,7;0;0;
12896;0;0;0;0;0;0;230,1;128,7;0;0;
12905;0;0;0;0;0;0;211,55;119,25;0;0;
12912;0;0;0;0;0;0;199,5;113,9;0;0;
12921;0;0;0;0;0;0;183,9;108,15;0;0;
12929;0;0;0;0;0;0;161,8;98,3;0;0;
12937;0;0;0;0;0;0;167,55;101,85;0;0;
12944;0;0;0;0;0;0;153,4;95,3;0;0;
12954;0;0;0;0;0;0;133,5;85,2;0;0;
12961;0;0;0;0;0;0;138,8;88,7;0;0;
12968;0;0;0;0;0;0;128,6;83,85;0;0;
12975;0;0;0;0;0;0;118,05;80,4;0;0;
12982;0;0;0;0;0;0;110,35;77,5;0;0;
12990;0;0;0;0;0;0;97,7;69,7;0;0;
12997;0;0;0;0;0;0;102,45;78,25;0;0;
13004;0;0;0;0;0;0;97;79,2;0;0;
13016;0;0;0;0;0;0;86,8;71,6;0;0;
13022;0;0;0;0;0;0;91,45;82,4;0;0;
13028;0;0;0;0;0;0;87,4;87;0;0;
13036;0;0;0;0;0;0;78,7;80,8;0;0;
13042;0;0;0;0;0;0;75,7;87,5;0;0;
13048;0;0;0;0;0;0;72,7;94,2;0;0;
13057;0;0;0;0;0;0;72,7;94,2;0;0;
13063;0;0;0;0;0;0;70,6;102,4;0;0;
13069;0;0;0;0;0;0;68,5;110,6;0;0;
13079;0;0;0;0;0;0;68,5;110,6;0;0;
13086;0;0;0;0;0;0;67,15;119,85;0;0;
13097;0;0;0;0;0;0;65,8;129,1;0;0;
13105;0;0;0;0;0;0;70,05;141,95;0;0;
13111;0;0;0;0;0;0;69;151,3;0;0;
13120;0;0;0;0;0;0;63,7;147,8;0;0;
13127;0;0;0;0;0;0;62,95;156;0;0;
13134;0;0;0;0;0;0;62,2;164,2;0;0;
13144;0;0;0;0;0;0;62,2;164,2;0;0;
13151;0;0;0;0;0;0;61,65;168,95;0;0;
13158;0;0;0;0;0;0;61,1;173,7;0;0;
13166;0;0;0;0;0;0;65,25;187,1;0;0;
13174;0;0;0;0;0;0;64,75;189,7;0;0;
13183;0;0;0;0;0;0;60,1;178,9;0;0;
13196;0;0;0;0;0;0;64,3;192,8;0;0;
13204;0;0;0;0;0;0;64,05;195;0;0;
13212;0;0;0;0;0;0;63,8;197,6;0;0;
13219;0;0;0;0;0;0;68;211,9;0;0;
13231;0;0;0;0;0;0;63,6;199,6;0;0;
13238;0;0;0;0;0;0;63,5;202,3;0;0;
13246;0;0;0;0;0;0;67,8;217,3;0;0;
13252;0;0;0;0;0;0;67,8;219,35;0;0;
13259;0;0;0;0;0;0;67,8;221,4;0;0;
13269;0;0;0;0;0;0;63,55;208,55;0;0;
13277;0;0;0;0;0;0;66,1;209,95;1;0;
13286;0;0;0;0;0;0;72,9;224,2;1;0;
13295;0;0;0;0;0;0;80,2;226,35;1;0;
13304;0;0;0;0;0;0;87,5;228,5;1;0;
13314;0;0;0;0;0;0;87,5;228,5;1;0;
13322;0;0;0;0;0;0;100,25;230,75;1;0;
13330;0;0;0;0;0;0;113;233;1;0;
13340;0;0;0;0;0;0;128,8;236,8;1;0;
13351;0;0;0;0;0;0;144,6;240,6;1;0;
13360;0;0;0;0;0;0;168,75;257,55;1;0;
13368;0;0;0;0;0;0;188,7;260,6;1;0;
13377;0;0;0;0;0;0;184,5;246,7;1;0;
13385;0;0;0;0;0;0;204,75;249,35;1;0;
13392;0;0;0;0;0;0;225;252;1;0;
13401;0;0;0;0;0;0;247,15;265,85;1;0;
13408;0;0;0;0;0;0;265;264,7;1;0;
13418;0;0;0;0;0;0;260,7;249,7;1;0;
13424;0;0;0;0;0;0;280,95;246,7;1;0;
13432;0;0;0;0;0;0;301,2;243,7;1;0;
13441;0;0;0;0;0;0;301,2;243,7;1;0;
13450;0;0;0;0;0;0;317,2;240,35;1;0;
13457;0;0;0;0;0;0;333,2;237;1;0;
13464;0;0;0;0;0;0;342,6;232,3;1;0;
13471;0;0;0;0;0;0;352;227,6;1;0;
13480;0;0;0;0;0;0;352;227,6;1;0;
13487;0;0;0;0;0;0;351,05;220,5;1;0;
13494;0;0;0;0;0;0;350,1;213,4;1;0;
13503;0;0;0;0;0;0;330,15;196,2;1;0;
13510;0;0;0;0;0;0;324,6;185,9;1;0;
13517;0;0;0;0;0;0;314,85;175,85;1;0;
13526;0;0;0;0;0;0;290,7;158,9;1;0;
13534;0;0;0;0;0;0;305,6;166,15;1;0;
13540;0;0;0;0;0;0;296,05;156,45;1;0;
13548;0;0;0;0;0;0;283,5;145,25;1;0;
13556;0;0;0;0;0;0;273,25;137,15;1;0;
13564;0;0;0;0;0;0;251,1;123,3;1;0;
13571;0;0;0;0;0;0;260,9;128,25;1;0;
13578;0;0;0;0;0;0;246,05;121,35;1;0;
13588;0;0;0;0;0;0;221,4;109,5;1;0;
13596;0;0;0;0;0;0;229,5;114,1;1;0;
13604;0;0;0;0;0;0;214,8;107,8;1;0;
13611;0;0;0;0;0;0;192;96,9;1;0;
13619;0;0;0;0;0;0;177,95;90;0;0;
13626;0;0;0;0;0;0;163,9;83,1;0;0;
13634;0;0;0;0;0;0;170,05;87,95;0;0;
13641;0;0;0;0;0;0;160,2;84,35;0;0;
13648;0;0;0;0;0;0;144,2;75,9;0;0;
13656;0;0;0;0;0;0;149,95;80,4;0;0;
13666;0;0;0;0;0;0;141,3;78;0;0;
13676;0;0;0;0;0;0;126,9;71,1;0;0;
13683;0;0;0;0;0;0;132,2;75,25;0;0;
13689;0;0;0;0;0;0;122,6;72,15;0;0;
13699;0;0;0;0;0;0;107,7;64,9;0;0;
13711;0;0;0;0;0;0;100,75;65,05;0;0;
13719;0;0;0;0;0;0;93,8;65,2;0;0;
13724;0;0;0;0;0;0;98,6;74,65;0;0;
13732;0;0;0;0;0;0;93,6;79,15;0;0;
13738;0;0;0;0;0;0;88,5;86,2;0;0;
13745;0;0;0;0;0;0;93,2;98,2;0;0;
13753;0;0;0;0;0;0;85,1;93,6;0;0;
13761;0;0;0;0;0;0;81,55;101,6;0;0;
13768;0;0;0;0;0;0;86,1;114,2;0;0;
13778;0;0;0;0;0;0;79,25;110,55;0;0;
13787;0;0;0;0;0;0;76,9;119,85;0;0;
13794;0;0;0;0;0;0;75,25;127,95;0;0;
13803;0;0;0;0;0;0;69,1;123,1;0;0;
13810;0;0;0;0;0;0;73,55;136,25;0;0;
13817;0;0;0;0;0;0;72,25;144,9;0;0;
13826;0;0;0;0;0;0;66,5;140,4;0;0;
13836;0;0;0;0;0;0;71;154,45;0;0;
13843;0;0;0;0;0;0;70,2;164,35;0;0;
13849;0;0;0;0;0;0;69,35;174,75;0;0;
13858;0;0;0;0;0;0;73,8;189,3;0;0;
13867;0;0;0;0;0;0;68,85;183,4;0;0;
13874;0;0;0;0;0;0;68,25;192,25;0;0;
13881;0;0;0;0;0;0;67,8;197,55;0;0;
13888;0;0;0;0;0;0;67,35;203,2;0;0;
13895;0;0;0;0;0;0;67;206,3;0;0;
13904;0;0;0;0;0;0;62,3;194,3;0;0;
13911;0;0;0;0;0;0;66,55;209,6;0;0;
13918;0;0;0;0;0;0;66,25;212,3;0;0;
13929;0;0;0;0;0;0;61,7;199,7;0;0;
13937;0;0;0;0;0;0;65,95;214,5;0;0;
13944;0;0;0;0;0;0;65,7;216,35;0;0;
13952;0;0;0;0;0;0;65,45;218,25;0;0;
13959;0;0;0;0;0;0;69,7;233,1;0;0;
13968;0;0;0;0;0;0;65,25;219,95;0;0;
13974;0;0;0;0;0;0;65;221,6;0;0;
13982;0;0;0;0;0;0;69,2;236,4;0;0;
13991;0;0;0;0;0;0;64,7;222,35;0;0;
13998;0;0;0;0;0;0;64,45;223,6;0;0;
14007;0;0;0;0;0;0;64,25;224,35;0;0;
14016;0;0;0;0;0;0;59,8;209,8;0;0;
14023;0;0;0;0;0;0;64,05;225,2;0;0;
14029;0;0;0;0;0;0;63,95;225,85;0;0;
14038;0;0;0;0;0;0;63,8;226,3;0;0;
14045;0;0;0;0;0;0;63,65;226,4;0;0;
14055;0;0;0;0;0;0;59,3;211,3;0;0;
14062;0;0;0;0;0;0;63,45;226,35;0;0;
14068;0;0;0;0;0;0;63,35;226,1;0;0;
14079;0;0;0;0;0;0;59,1;210,8;0;0;
14086;0;0;0;0;0;0;63,3;226,05;0;0;
14093;0;0;0;0;0;0;63,25;226,5;0;0;
14102;0;0;0;0;0;0;59;211,7;0;0;
14109;0;0;0;0;0;0;58,9;211,6;0;0;
14117;0;0;0;0;0;0;58,8;211,5;0;0;
14124;0;0;0;0;0;0;62,9;226;0;0;
14130;0;0;0;0;0;0;62,8;225,7;0;0;
14140;0;0;0;0;0;0;58,6;210,9;0;0;
14148;0;0;0;0;0;0;62,75;225,55;0;0;
14155;0;0;0;0;0;0;62,65;224,9;0;0;
14165;0;0;0;0;0;0;58,4;209,6;0;0;
14172;0;0;0;0;0;0;62,55;224,3;0;0;
14180;0;0;0;0;0;0;62,45;223,6;0;0;
14188;0;0;0;0;0;0;62,35;222,85;0;0;
14196;0;0;0;0;0;0;62,3;222,3;0;0;
14208;0;0;0;0;0;0;58,1;207,1;0;0;
14217;0;0;0;0;0;0;62,25;222,1;0;0;
14230;0;0;0;0;0;0;62,25;222,05;0;0;
14237;0;0;0;0;0;0;62,25;222,15;0;0;
14244;0;0;0;0;0;0;66,4;237,3;0;0;
14250;0;0;0;0;0;0;66,4;237,5;0;0;
14258;0;0;0;0;0;0;66,4;237,7;0;0;
14266;0;0;0;0;0;0;66,4;237,7;0;0;
14275;0;0;0;0;0;0;66,5;239,2;0;0;
14282;0;0;0;0;0;0;66,6;240,7;0;0;
14291;0;0;0;0;0;0;62,5;226,2;0;0;
14298;0;0;0;0;0;0;62,6;227,05;0;0;
14307;0;0;0;0;0;0;66,8;242,4;0;0;
14316;0;0;0;0;0;0;66,85;242,95;0;0;
14323;0;0;0;0;0;0;66,9;243,5;0;0;
14330;0;0;0;0;0;0;66,9;243,5;0;0;
14339;0;0;0;0;0;0;66,9;243,7;0;0;
14347;0;0;0;0;0;0;66,9;243,9;0;0;
14358;0;0;0;0;0;0;62,75;229,25;0;0;
14365;0;0;0;0;0;0;62,75;229,4;0;0;
14373;0;0;0;0;0;0;66,9;244,2;0;0;
14380;0;0;0;0;0;0;66,95;244,65;0;0;
14387;0;0;0;0;0;0;67;245,1;0;0;
14396;0;0;0;0;0;0;62,85;229,95;0;0;
14405;0;0;0;0;0;0;62,9;230,4;0;0;
14412;0;0;0;0;0;0;62,9;230,55;0;0;
14421;0;0;0;0;0;0;58,7;215,1;0;0;
14428;0;0;0;0;0;0;62,85;230,6;0;0;
14437;0;0;0;0;0;0;62,75;229,85;0;0;
14445;0;0;0;0;0;0;62,65;228,95;0;0;
14451;0;0;0;0;0;0;66,8;244,3;0;0;
14461;0;0;0;0;0;0;62,6;228,95;0;0;
14469;0;0;0;0;0;0;62,55;228,8;0;0;
14475;0;0;0;0;0;0;62,5;228,8;0;0;
14485;0;0;0;0;0;0;62,4;228,65;0;0;
14492;0;0;0;0;0;0;66,5;243,7;0;0;
14500;0;0;0;0;0;0;62,35;228,8;0;0;
14509;0;0;0;0;0;0;62,3;228,8;0;0;
14517;0;0;0;0;0;0;66,4;243,7;0;0;
14526;0;0;0;0;0;0;62,25;228,9;0;0;
14534;0;0;0;0;0;0;62,2;228,9;0;0;
14542;0;0;0;0;0;0;62,1;228,25;0;0;
14550;0;0;0;0;0;0;62;227,35;0;0;
14557;0;0;0;0;0;0;66,1;241,9;0;0;
14565;0;0;0;0;0;0;61,9;226,3;0;0;
14571;0;0;0;0;0;0;61,85;226,25;0;0;
14579;0;0;0;0;0;0;66;241,8;0;0;
14587;0;0;0;0;0;0;61,85;226,3;0;0;
14594;0;0;0;0;0;0;61,85;226,45;0;0;
14602;0;0;0;0;0;0;61,85;226,75;0;0;
14611;0;0;0;0;0;0;57,7;211,4;0;0;
14618;0;0;0;0;0;0;61,95;227,35;0;0;
14625;0;0;0;0;0;0;62,05;228,1;0;0;
14634;0;0;0;0;0;0;57,9;212,9;0;0;
14642;0;0;0;0;0;0;57,95;213,35;0;0;
14649;0;0;0;0;0;0;58;213,8;0;0;
14656;0;0;0;0;0;0;62,15;229,1;0;0;
14663;0;0;0;0;0;0;62,2;229,5;0;0;
14673;0;0;0;0;0;0;58,1;214,6;0;0;
14681;0;0;0;0;0;0;62,35;230,9;0;0;
14687;0;0;0;0;0;0;62,5;232,4;0;0;
14696;0;0;0;0;0;0;58,4;217,6;0;0;
14704;0;0;0;0;0;0;58,5;218,9;0;0;
14711;0;0;0;0;0;0;58,6;220,2;0;0;
14719;0;0;0;0;0;0;62,75;235,85;0;0;
14727;0;0;0;0;0;0;62,75;235,95;0;0;
14742;0;0;0;0;0;0;58,6;220,4;0;0;
14751;0;0;0;0;0;0;62,8;236,2;0;0;
14759;0;0;0;0;0;0;62,85;236,35;0;0;
14766;0;0;0;0;0;0;62,9;236,55;0;0;
14773;0;0;0;0;0;0;67,1;252,4;0;0;
14781;0;0;0;0;0;0;62,85;236,45;0;0;
14788;0;0;0;0;0;0;62,7;235,75;0;0;
14796;0;0;0;0;0;0;66,8;251;0;0;
14803;0;0;0;0;0;0;66,8;251;0;0;
14810;0;0;0;0;0;0;66,8;251;0;0;
14819;0;0;0;0;0;0;62,65;235,7;0;0;
14827;0;0;0;0;0;0;62,65;235,85;0;0;
14835;0;0;0;0;0;0;66,8;251,3;0;0;
14844;0;0;0;0;0;0;62,55;235;0;0;
14851;0;0;0;0;0;0;62,4;233,95;0;0;
14858;0;0;0;0;0;0;66,5;249,2;0;0;
14868;0;0;0;0;0;0;62,3;233,35;0;0;
14876;0;0;0;0;0;0;62,45;234,8;0;0;
14884;0;0;0;0;0;0;62,65;236,45;0;0;
14891;0;0;0;0;0;0;63,1;240,4;0;0;
14898;0;0;0;0;0;0;67,7;260;0;0;
14908;0;0;0;0;0;0;63,5;244,2;0;0;
14917;0;0;0;0;0;0;63,85;247,7;0;0;
14925;0;0;0;0;0;0;64,2;251,15;0;0;
14933;0;0;0;0;0;0;64,4;253,75;0;0;
14940;0;0;0;0;0;0;68,8;272,2;0;0;
14948;0;0;0;0;0;0;64,7;256,95;0;0;
14956;0;0;0;0;0;0;65,05;260,35;0;0;
14964;0;0;0;0;0;0;65,35;263,5;0;0;
14973;0;0;0;0;0;0;61,2;248;0;0;
14981;0;0;0;0;0;0;65,7;267;0;0;
14987;0;0;0;0;0;0;66,05;270,55;0;0;
14996;0;0;0;0;0;0;61,9;255,1;0;0;
15003;0;0;0;0;0;0;66,3;273,75;0;0;
15010;0;0;0;0;0;0;66,6;277,15;0;0;
15020;0;0;0;0;0;0;66,9;280,45;0;0;
15027;0;0;0;0;0;0;71,3;299;0;0;
15037;0;0;0;0;0;0;66,95;281,7;0;0;
15049;0;0;0;0;0;0;66,95;282,15;0;0;
15056;0;0;0;0;0;0;66,7;280,3;0;0;
15064;0;0;0;0;0;0;66,4;278,15;0;0;
15072;0;0;0;0;0;0;70,7;295,6;0;0;
15081;0;0;0;0;0;0;70,5;294,25;0;0;
15089;0;0;0;0;0;0;70,3;292,9;0;0;
15098;0;0;0;0;0;0;65,9;274,45;0;0;
15105;0;0;0;0;0;0;65,9;274,7;0;0;
15112;0;0;0;0;0;0;70,3;293,4;0;0;
15120;0;0;0;0;0;0;65,85;274,75;0;0;
15128;0;0;0;0;0;0;65,75;273,7;0;0;
15136;0;0;0;0;0;0;70,1;291,3;0;0;
15144;0;0;0;0;0;0;69,8;288,6;0;0;
15150;0;0;0;0;0;0;69,5;285,9;0;0;
15158;0;0;0;0;0;0;69,5;285,9;0;0;
15166;0;0;0;0;0;0;69,3;283,45;0;0;
15173;0;0;0;0;0;0;69,1;281;0;0;
15181;0;0;0;0;0;0;64,7;262,45;0;0;
15188;0;0;0;0;0;0;64,5;260,05;0;0;
15196;0;0;0;0;0;0;68,7;276,2;0;0;
15204;0;0;0;0;0;0;64,35;258,45;0;0;
15212;0;0;0;0;0;0;64,25;257,35;0;0;
15220;0;0;0;0;0;0;64,2;256,55;0;0;
15231;0;0;0;0;0;0;59,9;239,1;0;0;
15239;0;0;0;0;0;0;59,75;237,4;0;0;
15248;0;0;0;0;0;0;59,6;235,7;0;0;
15257;0;0;0;0;0;0;63,9;253,15;0;0;
15264;0;0;0;0;0;0;63,8;251,9;0;0;
15271;0;0;0;0;0;0;63,85;251,85;0;0;
15278;0;0;0;0;0;0;68,3;270,5;0;0;
15287;0;0;0;0;0;0;63,95;252,9;0;0;
15294;0;0;0;0;0;0;64,1;254,45;0;0;
15303;0;0;0;0;0;0;64,4;257,3;0;0;
15312;0;0;0;0;0;0;60,2;241;0;0;
15321;0;0;0;0;0;0;64,6;259,65;0;0;
15328;0;0;0;0;0;0;64,8;262,1;0;0;
15336;0;0;0;0;0;0;65,15;265,4;0;0;
15342;0;0;0;0;0;0;69,7;284,9;0;0;
15351;0;0;0;0;0;0;65,5;268,75;0;0;
15358;0;0;0;0;0;0;65,7;271;0;0;
15366;0;0;0;0;0;0;70,1;289,4;0;0;
15374;0;0;0;0;0;0;65,85;272,75;0;0;
15382;0;0;0;0;0;0;65,9;272,95;0;0;
15389;0;0;0;0;0;0;70,2;289,8;0;0;
15398;0;0;0;0;0;0;66;273,55;0;0;
15405;0;0;0;0;0;0;66,05;273,6;0;0;
15413;0;0;0;0;0;0;66;272,45;0;0;
15421;0;0;0;0;0;0;65,95;271;0;0;
15427;0;0;0;0;0;0;65,75;268,35;0;0;
15437;0;0;0;0;0;0;61,3;249,7;0;0;
15443;0;0;0;0;0;0;65,4;264,75;0;0;
15450;0;0;0;0;0;0;65;260,65;0;0;
15459;0;0;0;0;0;0;60,5;241,5;0;0;
15466;0;0;0;0;0;0;64,65;256,6;0;0;
15475;0;0;0;0;0;0;64,4;253,05;0;0;
15484;0;0;0;0;0;0;64,15;249,45;0;0;
15493;0;0;0;0;0;0;63,75;245;0;0;
15503;0;0;0;0;0;0;59,2;225,5;0;0;
15510;0;0;0;0;0;0;63,25;240,1;0;0;
15518;0;0;0;0;0;0;62,9;236,3;0;0;
15527;0;0;0;0;0;0;58,5;217,9;0;0;
15534;0;0;0;0;0;0;62,75;233,3;0;0;
15541;0;0;0;0;0;0;62,7;231,85;0;0;
15548;0;0;0;0;0;0;66,3;231,15;0;0;
15556;0;0;0;0;0;0;74,2;247,3;0;0;
15567;0;0;0;0;0;0;69,95;231;0;0;
15575;0;0;0;0;0;0;74,2;231,65;0;0;
15583;0;0;0;0;0;0;78,45;232,6;0;0;
15590;0;0;0;0;0;0;81,6;231,3;0;0;
15597;0;0;0;0;0;0;89;246;1;0;
15604;0;0;0;0;0;0;84,9;230,95;1;0;
15611;0;0;0;0;0;0;90,65;229,05;1;0;
15618;0;0;0;0;0;0;100,5;242,2;1;0;
15627;0;0;0;0;0;0;96,35;227,1;1;0;
15635;0;0;0;0;0;0;109,25;230,35;1;0;
15643;0;0;0;0;0;0;122,15;233,65;1;0;
15651;0;0;0;0;0;0;118;218,6;1;0;
15658;0;0;0;0;0;0;135;235,05;1;0;
15665;0;0;0;0;0;0;147,95;236,9;1;0;
15674;0;0;0;0;0;0;143,9;222,3;1;0;
15681;0;0;0;0;0;0;161,9;237,9;1;0;
15689;0;0;0;0;0;0;175,65;238,1;1;0;
15696;0;0;0;0;0;0;189;238,85;1;0;
15704;0;0;0;0;0;0;198,7;238,85;1;0;
15714;0;0;0;0;0;0;190,8;222,7;1;0;
15721;0;0;0;0;0;0;204,2;234,9;1;0;
15728;0;0;0;0;0;0;209,1;230,15;1;0;
15740;0;0;0;0;0;0;200,6;213,2;1;0;
15747;0;0;0;0;0;0;203,75;208,35;1;0;
15761;0;0;0;0;0;0;206,9;203,5;1;0;
15767;0;0;0;0;0;0;215,6;211,3;1;0;
15773;0;0;0;0;0;0;214,45;205,95;1;0;
15780;0;0;0;0;0;0;204,6;192,8;1;0;
15786;0;0;0;0;0;0;212;199,1;1;0;
15792;0;0;0;0;0;0;202,35;187,05;1;0;
15801;0;0;0;0;0;0;185,3;168,7;1;0;
15808;0;0;0;0;0;0;199,65;177;1;0;
15816;0;0;0;0;0;0;197;168,85;1;0;
15824;0;0;0;0;0;0;194,6;162,25;1;0;
15831;0;0;0;0;0;0;209,2;172,1;1;0;
15840;0;0;0;0;0;0;191,2;156,5;1;0;
15846;0;0;0;0;0;0;187,55;149,4;1;0;
15853;0;0;0;0;0;0;184,3;141,75;1;0;
15861;0;0;0;0;0;0;166,7;125,6;1;0;
15868;0;0;0;0;0;0;182,5;133,65;1;0;
15876;0;0;0;0;0;0;184,9;129,5;1;0;
15886;0;0;0;0;0;0;171,5;117,3;1;0;
15894;0;0;0;0;0;0;187,1;124,75;1;0;
15901;0;0;0;0;0;0;192,15;122,35;1;0;
15910;0;0;0;0;0;0;181,6;112,5;1;0;
15917;0;0;0;0;0;0;187,3;111,65;1;0;
15924;0;0;0;0;0;0;193;110,8;1;0;
15931;0;0;0;0;0;0;204,75;116,45;1;0;
15939;0;0;0;0;0;0;209,1;115,8;0;0;
15946;0;0;0;0;0;0;201,7;109,5;0;0;
15952;0;0;0;0;0;0;211,3;114,7;0;0;
15959;0;0;0;0;0;0;206,55;111,6;0;0;
15968;0;0;0;0;0;0;192,2;103,3;0;0;
15974;0;0;0;0;0;0;186;98,45;0;0;
15981;0;0;0;0;0;0;179,8;93,6;0;0;
15990;0;0;0;0;0;0;179,8;93,6;0;0;
15998;0;0;0;0;0;0;172,6;89,35;0;0;
16006;0;0;0;0;0;0;165,4;85,1;0;0;
16016;0;0;0;0;0;0;165,4;85,1;0;0;
16025;0;0;0;0;0;0;155,95;80,6;0;0;
16032;0;0;0;0;0;0;146,5;76,1;0;0;
16040;0;0;0;0;0;0;152,2;79,25;0;0;
16047;0;0;0;0;0;0;142,3;74,95;0;0;
16057;0;0;0;0;0;0;126,7;67,5;0;0;
16064;0;0;0;0;0;0;132;70,7;0;0;
16072;0;0;0;0;0;0;122,9;66,95;0;0;
16081;0;0;0;0;0;0;108,5;60;0;0;
16088;0;0;0;0;0;0;101,7;58;0;0;
16095;0;0;0;0;0;0;94,9;56;0;0;
16102;0;0;0;0;0;0;99,6;62,4;0;0;
16109;0;0;0;0;0;0;94,7;63,6;0;0;
16118;0;0;0;0;0;0;85,1;58,4;0;0;
16127;0;0;0;0;0;0;89,65;67,75;0;0;
16134;0;0;0;0;0;0;85,8;72,1;0;0;
16144;0;0;0;0;0;0;81,85;77,55;0;0;
16151;0;0;0;0;0;0;86,3;88;0;0;
16160;0;0;0;0;0;0;79,15;83,75;0;0;
16168;0;0;0;0;0;0;76,35;90,75;0;0;
16175;0;0;0;0;0;0;80,7;102;0;0;
16183;0;0;0;0;0;0;74,35;98,45;0;0;
16190;0;0;0;0;0;0;72,4;107,5;0;0;
16197;0;0;0;0;0;0;71,1;116,95;0;0;
16206;0;0;0;0;0;0;65,4;113,8;0;0;
16213;0;0;0;0;0;0;69,8;127,4;0;0;
16220;0;0;0;0;0;0;68,9;137,8;0;0;
16227;0;0;0;0;0;0;67,9;148,5;0;0;
16235;0;0;0;0;0;0;72,2;162,4;0;0;
16246;0;0;0;0;0;0;67,25;158,75;0;0;
16258;0;0;0;0;0;0;66,5;168,95;0;0;
16265;0;0;0;0;0;0;66;176,4;0;0;
16272;0;0;0;0;0;0;65,5;184,35;0;0;
16278;0;0;0;0;0;0;69,7;198,7;0;0;
16286;0;0;0;0;0;0;65,15;189,35;0;0;
16293;0;0;0;0;0;0;64,9;195,05;0;0;
16300;0;0;0;0;0;0;64,75;199,65;0;0;
16308;0;0;0;0;0;0;60,3;189,2;0;0;
16315;0;0;0;0;0;0;64,55;204,05;0;0;
16323;0;0;0;0;0;0;64,45;207,65;0;0;
16333;0;0;0;0;0;0;60,1;196,4;0;0;
16341;0;0;0;0;0;0;64,35;211,2;0;0;
16347;0;0;0;0;0;0;64,2;213,4;0;0;
16356;0;0;0;0;0;0;59,8;200,8;0;0;
16363;0;0;0;0;0;0;64;215,6;0;0;
16369;0;0;0;0;0;0;63,8;216,8;0;0;
16377;0;0;0;0;0;0;63,6;218,2;0;0;
16384;0;0;0;0;0;0;63,5;219,3;0;0;
16392;0;0;0;0;0;0;59,2;205,4;0;0;
16399;0;0;0;0;0;0;63,35;220;0;0;
16408;0;0;0;0;0;0;63,3;220,75;0;0;
16417;0;0;0;0;0;0;59,1;206,9;0;0;
16426;0;0;0;0;0;0;59,05;207,4;0;0;
16432;0;0;0;0;0;0;59;207,9;0;0;
16440;0;0;0;0;0;0;59;207,9;0;0;
16447;0;0;0;0;0;0;58,9;207,75;0;0;
16454;0;0;0;0;0;0;58,8;207,6;0;0;
16462;0;0;0;0;0;0;62,9;222,15;0;0;
16470;0;0;0;0;0;0;62,75;221,85;0;0;
16478;0;0;0;0;0;0;58,5;207;0;0;
16487;0;0;0;0;0;0;62,65;221,4;0;0;
16494;0;0;0;0;0;0;62,55;221;0;0;
16503;0;0;0;0;0;0;58,3;206,2;0;0;
16510;0;0;0;0;0;0;62,5;221,1;0;0;
16517;0;0;0;0;0;0;62,5;221,2;0;0;
16526;0;0;0;0;0;0;58,3;206,4;0;0;
16534;0;0;0;0;0;0;58,25;205,75;0;0;
16542;0;0;0;0;0;0;58,2;205,1;0;0;
16548;0;0;0;0;0;0;62,4;220,4;0;0;
16555;0;0;0;0;0;0;62,45;221,1;0;0;
16565;0;0;0;0;0;0;58,3;206,5;0;0;
16571;0;0;0;0;0;0;62,45;220,9;0;0;
16579;0;0;0;0;0;0;62,45;220,45;0;0;
16588;0;0;0;0;0;0;58,3;205,6;0;0;
16595;0;0;0;0;0;0;62,45;219,9;0;0;
16602;0;0;0;0;0;0;62,4;219,3;0;0;
16610;0;0;0;0;0;0;58,2;204,4;0;0;
16616;0;0;0;0;0;0;58,25;204,5;0;0;
16622;0;0;0;0;0;0;58,3;204,6;0;0;
16631;0;0;0;0;0;0;58,3;204,6;0;0;
16637;0;0;0;0;0;0;58,3;204,9;0;0;
16646;0;0;0;0;0;0;58,3;205,2;0;0;
16653;0;0;0;0;0;0;58,3;205,2;0;0;
16660;0;0;0;0;0;0;58,25;204,85;0;0;
16667;0;0;0;0;0;0;58,2;204,5;0;0;
16674;0;0;0;0;0;0;62,35;219,05;0;0;
16681;0;0;0;0;0;0;62,35;219,25;0;0;
16689;0;0;0;0;0;0;58,2;204,9;0;0;
16696;0;0;0;0;0;0;58,15;204,25;0;0;
16703;0;0;0;0;0;0;58,1;203,6;0;0;
16712;0;0;0;0;0;0;58,1;203,6;0;0;
16719;0;0;0;0;0;0;58,2;204,7;0;0;
16726;0;0;0;0;0;0;58,3;205,8;0;0;
16736;0;0;0;0;0;0;58,3;205,8;0;0;
16743;0;0;0;0;0;0;58,35;206,75;0;0;
16756;0;0;0;0;0;0;58,4;207,7;0;0;
16763;0;0;0;0;0;0;62,55;223,15;0;0;
16770;0;0;0;0;0;0;62,55;223,95;0;0;
16780;0;0;0;0;0;0;58,4;209,3;0;0;
16787;0;0;0;0;0;0;62,6;224,65;0;0;
16794;0;0;0;0;0;0;62,65;225,3;0;0;
16802;0;0;0;0;0;0;58,5;210,6;0;0;
16809;0;0;0;0;0;0;62,65;225,6;0;0;
16816;0;0;0;0;0;0;62,65;226,05;0;0;
16825;0;0;0;0;0;0;62,65;226,65;0;0;
16831;0;0;0;0;0;0;62,65;227,25;0;0;
16839;0;0;0;0;0;0;58,5;212,7;0;0;
16847;0;0;0;0;0;0;62,65;227,95;0;0;
16853;0;0;0;0;0;0;62,65;228,55;0;0;
16862;0;0;0;0;0;0;58,5;213,9;0;0;
16869;0;0;0;0;0;0;62,65;228,7;0;0;
16876;0;0;0;0;0;0;62,55;228;0;0;
16885;0;0;0;0;0;0;58,3;212,5;0;0;
16892;0;0;0;0;0;0;62,45;227,5;0;0;
16899;0;0;0;0;0;0;62,4;227,25;0;0;
16911;0;0;0;0;0;0;58,2;212;0;0;
16919;0;0;0;0;0;0;58,2;211,85;0;0;
16926;0;0;0;0;0;0;58,2;211,7;0;0;
16933;0;0;0;0;0;0;62,35;227,05;0;0;
16941;0;0;0;0;0;0;62,3;227,05;0;0;
16950;0;0;0;0;0;0;58,1;211,7;0;0;
16957;0;0;0;0;0;0;62,3;227,3;0;0;
16965;0;0;0;0;0;0;62,35;227,9;0;0;
16972;0;0;0;0;0;0;58,2;212,9;0;0;
16979;0;0;0;0;0;0;58,2;213,15;0;0;
16987;0;0;0;0;0;0;58,2;213,4;0;0;
16995;0;0;0;0;0;0;62,3;228,5;0;0;
17002;0;0;0;0;0;0;62,25;228,35;0;0;
17012;0;0;0;0;0;0;58,1;213,1;0;0;
17020;0;0;0;0;0;0;62,25;227,9;0;0;
17026;0;0;0;0;0;0;62,25;227,9;0;0;
17035;0;0;0;0;0;0;58,1;213,1;0;0;
17044;0;0;0;0;0;0;62,2;227,85;0;0;
17052;0;0;0;0;0;0;62,15;227,6;0;0;
17059;0;0;0;0;0;0;62,1;227,25;0;0;
17066;0;0;0;0;0;0;66,2;241,9;0;0;
17074;0;0;0;0;0;0;62,05;226,6;0;0;
17081;0;0;0;0;0;0;62,05;226,25;0;0;
17088;0;0;0;0;0;0;62,05;225,85;0;0;
17096;0;0;0;0;0;0;57,9;210,5;0;0;
17104;0;0;0;0;0;0;62,05;225,5;0;0;
17111;0;0;0;0;0;0;62;224,9;0;0;
17120;0;0;0;0;0;0;57,8;209,3;0;0;
17126;0;0;0;0;0;0;61,85;224;0;0;
17135;0;0;0;0;0;0;61,75;223,3;0;0;
17143;0;0;0;0;0;0;61,7;222,55;0;0;
17150;0;0;0;0;0;0;61,7;222,1;0;0;
17159;0;0;0;0;0;0;57,6;207;0;0;
17166;0;0;0;0;0;0;61,7;221,55;0;0;
17173;0;0;0;0;0;0;61,65;221,3;0;0;
17183;0;0;0;0;0;0;57,5;206,5;0;0;
17189;0;0;0;0;0;0;61,55;220,75;0;0;
17196;0;0;0;0;0;0;61,5;220,25;0;0;
17204;0;0;0;0;0;0;57,4;205,5;0;0;
17211;0;0;0;0;0;0;57,4;205,85;0;0;
17218;0;0;0;0;0;0;57,4;206,2;0;0;
17227;0;0;0;0;0;0;57,4;206,2;0;0;
17234;0;0;0;0;0;0;57,4;206,3;0;0;
17240;0;0;0;0;0;0;57,4;206,4;0;0;
17249;0;0;0;0;0;0;57,4;206,4;0;0;
17257;0;0;0;0;0;0;57,4;206,4;0;0;
17265;0;0;0;0;0;0;57,4;206,4;0;0;
17278;0;0;0;0;0;0;61,5;221,55;0;0;
17285;0;0;0;0;0;0;61,55;222;0;0;
17291;0;0;0;0;0;0;61,65;223,05;0;0;
17297;0;0;0;0;0;0;61,7;224,15;0;0;
17305;0;0;0;0;0;0;57,6;209,5;0;0;
17312;0;0;0;0;0;0;61,8;225;0;0;
17319;0;0;0;0;0;0;61,9;225,95;0;0;
17326;0;0;0;0;0;0;57,8;211,4;0;0;
17335;0;0;0;0;0;0;57,8;211,4;0;0;
17341;0;0;0;0;0;0;57,9;212,25;0;0;
17347;0;0;0;0;0;0;58;213,1;0;0;
17355;0;0;0;0;0;0;58;213,1;0;0;
17361;0;0;0;0;0;0;58;213,2;0;0;
17368;0;0;0;0;0;0;58;213,3;0;0;
17376;0;0;0;0;0;0;58;213,3;0;0;
17383;0;0;0;0;0;0;58,05;213,65;0;0;
17391;0;0;0;0;0;0;58,1;214;0;0;
17398;0;0;0;0;0;0;62,25;228,9;0;0;
17406;0;0;0;0;0;0;62,25;228,8;0;0;
17413;0;0;0;0;0;0;58,1;213,8;0;0;
17421;0;0;0;0;0;0;58,1;213,6;0;0;
17427;0;0;0;0;0;0;58,1;213,4;0;0;
17435;0;0;0;0;0;0;53,95;197,65;0;0;
17443;0;0;0;0;0;0;53,95;197,35;0;0;
17449;0;0;0;0;0;0;58,1;212,8;0;0;
17457;0;0;0;0;0;0;53,9;197,3;0;0;
17463;0;0;0;0;0;0;55,1;197,2;0;0;
17470;0;0;0;0;0;0;60,5;212,6;0;0;
17479;0;0;0;0;0;0;60,5;212,6;0;0;
17486;0;0;0;0;0;0;63,45;215,1;0;0;
17492;0;0;0;0;0;0;66,4;217,6;0;0;
17501;0;0;0;0;0;0;66,4;217,6;0;0;
17508;0;0;0;0;0;0;70,45;221,65;0;0;
17515;0;0;0;0;0;0;74,5;225,7;0;0;
17523;0;0;0;0;0;0;74,5;225,7;0;0;
17529;0;0;0;0;0;0;79,25;230,45;0;0;
17535;0;0;0;0;0;0;84;235,2;1;0;
17542;0;0;0;0;0;0;79,85;220,3;1;0;
17548;0;0;0;0;0;0;84,95;232,65;1;0;
17556;0;0;0;0;0;0;94,2;259,9;1;0;
17564;0;0;0;0;0;0;90,1;244,95;1;0;
17571;0;0;0;0;0;0;95,25;252,5;1;0;
17578;0;0;0;0;0;0;104,5;275;1;0;
17586;0;0;0;0;0;0;100,35;259,55;1;0;
17594;0;0;0;0;0;0;105;262,95;1;0;
17601;0;0;0;0;0;0;113,8;281,8;1;0;
17608;0;0;0;0;0;0;108,4;266,4;1;0;
17615;0;0;0;0;0;0;113,15;267,6;1;0;
17623;0;0;0;0;0;0;123,3;284,2;1;0;
17630;0;0;0;0;0;0;116,2;266,6;1;0;
17638;0;0;0;0;0;0;122,35;266,7;1;0;
17645;0;0;0;0;0;0;135,6;284,4;1;0;
17652;0;0;0;0;0;0;127,45;265,25;1;0;
17659;0;0;0;0;0;0;131,1;261,65;1;0;
17666;0;0;0;0;0;0;142,9;277,2;1;0;
17675;0;0;0;0;0;0;133,95;257,05;1;0;
17681;0;0;0;0;0;0;135,05;249,1;1;0;
17689;0;0;0;0;0;0;145,1;261,3;1;0;
17697;0;0;0;0;0;0;144,75;243,4;1;0;
17704;0;0;0;0;0;0;144,4;225,5;1;0;
17715;0;0;0;0;0;0;144,4;225,5;1;0;
17722;0;0;0;0;0;0;143,6;210,9;1;0;
17729;0;0;0;0;0;0;142,8;196,3;1;0;
17737;0;0;0;0;0;0;142,8;196,3;1;0;
17744;0;0;0;0;0;0;142,45;185,65;1;0;
17750;0;0;0;0;0;0;142,1;175;1;0;
17759;0;0;0;0;0;0;142,1;175;1;0;
17767;0;0;0;0;0;0;141,25;168;1;0;
17775;0;0;0;0;0;0;140,4;161;1;0;
17787;0;0;0;0;0;0;149,45;169,95;1;0;
17793;0;0;0;0;0;0;145,25;161,2;1;0;
17801;0;0;0;0;0;0;132;143,5;1;0;
17807;0;0;0;0;0;0;141,35;152,25;1;0;
17812;0;0;0;0;0;0;138,9;145,45;1;0;
17820;0;0;0;0;0;0;127,1;129,9;1;0;
17827;0;0;0;0;0;0;139,55;139,25;1;0;
17834;0;0;0;0;0;0;141,95;136,4;1;0;
17842;0;0;0;0;0;0;131,9;124,2;1;0;
17849;0;0;0;0;0;0;134,4;123,75;1;0;
17856;0;0;0;0;0;0;136,9;123,3;1;0;
17865;0;0;0;0;0;0;136,9;123,3;1;0;
17874;0;0;0;0;0;0;139,95;123,4;0;0;
17881;0;0;0;0;0;0;143;123,5;0;0;
17887;0;0;0;0;0;0;154,55;131,4;0;0;
17896;0;0;0;0;0;0;157,65;131,1;0;0;
17904;0;0;0;0;0;0;149,2;122,9;0;0;
17909;0;0;0;0;0;0;159,5;129,4;0;0;
17917;0;0;0;0;0;0;160,5;126,3;0;0;
17926;0;0;0;0;0;0;151,2;116,7;0;0;
17935;0;0;0;0;0;0;151,25;113,4;0;0;
17941;0;0;0;0;0;0;151,3;110,1;0;0;
17950;0;0;0;0;0;0;151,3;110,1;0;0;
17957;0;0;0;0;0;0;153,2;108,2;0;0;
17964;0;0;0;0;0;0;155,1;106,3;0;0;
17971;0;0;0;0;0;0;155,1;106,3;0;0;
17979;0;0;0;0;0;0;152,9;103,25;0;0;
17985;0;0;0;0;0;0;150,7;100,2;0;0;
17993;0;0;0;0;0;0;150,7;100,2;0;0;
18000;0;0;0;0;0;0;147,65;96,35;0;0;
18006;0;0;0;0;0;0;144,6;92,5;0;0;
18013;0;0;0;0;0;0;144,6;92,5;0;0;
18019;0;0;0;0;0;0;140,3;88,8;0;0;
18025;0;0;0;0;0;0;136;85,1;0;0;
18035;0;0;0;0;0;0;124,45;77,2;0;0;
18043;0;0;0;0;0;0;119,3;73,2;0;0;
18050;0;0;0;0;0;0;125,7;77,1;0;0;
18058;0;0;0;0;0;0;121,35;74,15;0;0;
18064;0;0;0;0;0;0;117;71,2;0;0;
18075;0;0;0;0;0;0;117;71,2;0;0;
18082;0;0;0;0;0;0;113,35;68,9;0;0;
18088;0;0;0;0;0;0;109,7;66,6;0;0;
18097;0;0;0;0;0;0;109,7;66,6;0;0;
18104;0;0;0;0;0;0;103,55;62,95;0;0;
18111;0;0;0;0;0;0;97,4;59,3;0;0;
18120;0;0;0;0;0;0;97,4;59,3;0;0;
18129;0;0;0;0;0;0;92,05;56,2;0;0;
18136;0;0;0;0;0;0;86,7;53,1;0;0;
18144;0;0;0;0;0;0;91,3;56,4;0;0;
18152;0;0;0;0;0;0;87,55;54,65;0;0;
18162;0;0;0;0;0;0;79,2;49,6;0;0;
18168;0;0;0;0;0;0;83,7;54,6;0;0;
18175;0;0;0;0;0;0;81;55,3;0;0;
18183;0;0;0;0;0;0;73,8;51;0;0;
18189;0;0;0;0;0;0;78,25;58,2;0;0;
18196;0;0;0;0;0;0;76,3;61,5;0;0;
18205;0;0;0;0;0;0;69,9;57,6;0;0;
18211;0;0;0;0;0;0;68,3;63,2;0;0;
18218;0;0;0;0;0;0;66,7;68,8;0;0;
18228;0;0;0;0;0;0;66,7;68,8;0;0;
18236;0;0;0;0;0;0;65,6;76,1;0;0;
18243;0;0;0;0;0;0;64,5;83,4;0;0;
18249;0;0;0;0;0;0;68,75;94,3;0;0;
18256;0;0;0;0;0;0;67,9;102;0;0;
18265;0;0;0;0;0;0;62,8;98,8;0;0;
18273;0;0;0;0;0;0;67,05;110,05;0;0;
18280;0;0;0;0;0;0;66,4;118,1;0;0;
18289;0;0;0;0;0;0;61,5;114,9;0;0;
18300;0;0;0;0;0;0;61,15;124,25;0;0;
18310;0;0;0;0;0;0;60,8;133,6;0;0;
18316;0;0;0;0;0;0;65,15;147,65;0;0;
18323;0;0;0;0;0;0;65;156,7;0;0;
18329;0;0;0;0;0;0;60,5;151,7;0;0;
18337;0;0;0;0;0;0;64,85;166,25;0;0;
18343;0;0;0;0;0;0;64,75;173,6;0;0;
18351;0;0;0;0;0;0;60,3;166,4;0;0;
18358;0;0;0;0;0;0;64,55;180,2;0;0;
18364;0;0;0;0;0;0;64,45;184,85;0;0;
18371;0;0;0;0;0;0;60,1;175,7;0;0;
18378;0;0;0;0;0;0;64,3;189,4;0;0;
18385;0;0;0;0;0;0;64,15;192,45;0;0;
18394;0;0;0;0;0;0;59,8;181,8;0;0;
18402;0;0;0;0;0;0;59,75;184,7;0;0;
18408;0;0;0;0;0;0;59,7;187,6;0;0;
18418;0;0;0;0;0;0;59,7;187,6;0;0;
18425;0;0;0;0;0;0;59,6;189,65;0;0;
18431;0;0;0;0;0;0;59,5;191,7;0;0;
18441;0;0;0;0;0;0;59,5;191,7;0;0;
18448;0;0;0;0;0;0;59,35;192,55;0;0;
18456;0;0;0;0;0;0;59,2;193,4;0;0;
18463;0;0;0;0;0;0;59;193,25;0;0;
18470;0;0;0;0;0;0;58,8;193,1;0;0;
18479;0;0;0;0;0;0;58,8;193,1;0;0;
18488;0;0;0;0;0;0;58,6;192,15;0;0;
18496;0;0;0;0;0;0;58,4;191,2;0;0;
18507;0;0;0;0;0;0;62,45;204,45;0;0;
18515;0;0;0;0;0;0;62,25;203,9;0;0;
18524;0;0;0;0;0;0;58;190,1;0;0;
18530;0;0;0;0;0;0;62,15;203,35;0;0;
18537;0;0;0;0;0;0;62,1;202,9;0;0;
18546;0;0;0;0;0;0;57,9;189,2;0;0;
18553;0;0;0;0;0;0;62;202,4;0;0;
18560;0;0;0;0;0;0;61,9;201,8;0;0;
18567;0;0;0;0;0;0;57,7;188;0;0;
18574;0;0;0;0;0;0;61,8;201,35;0;0;
18581;0;0;0;0;0;0;61,75;201,4;0;0;
18589;0;0;0;0;0;0;57,6;188,1;0;0;
18596;0;0;0;0;0;0;61,7;201,4;0;0;
18604;0;0;0;0;0;0;61,7;201,2;0;0;
18611;0;0;0;0;0;0;61,7;201,1;0;0;
18618;0;0;0;0;0;0;61,65;200,6;0;0;
18629;0;0;0;0;0;0;57,5;186,7;0;0;
18636;0;0;0;0;0;0;61,6;199,9;0;0;
18643;0;0;0;0;0;0;61,55;199,5;0;0;
18651;0;0;0;0;0;0;57,4;185,9;0;0;
18660;0;0;0;0;0;0;57,4;185,25;0;0;
18667;0;0;0;0;0;0;57,4;184,6;0;0;
18675;0;0;0;0;0;0;61,5;197,85;0;0;
18687;0;0;0;0;0;0;61,45;197,85;0;0;
18697;0;0;0;0;0;0;61,45;198,1;0;0;
18705;0;0;0;0;0;0;65,6;211,6;0;0;
18712;0;0;0;0;0;0;61,5;198,4;0;0;
18720;0;0;0;0;0;0;61,5;198,7;0;0;
18726;0;0;0;0;0;0;65,6;212,2;0;0;
18734;0;0;0;0;0;0;61,5;198,85;0;0;
18741;0;0;0;0;0;0;61,55;199,45;0;0;
18747;0;0;0;0;0;0;65,7;213,4;0;0;
18756;0;0;0;0;0;0;61,6;200,1;0;0;
18763;0;0;0;0;0;0;61,65;200,95;0;0;
18771;0;0;0;0;0;0;61,7;201,7;0;0;
18779;0;0;0;0;0;0;57,6;188,3;0;0;
18786;0;0;0;0;0;0;61,7;201,85;0;0;
18793;0;0;0;0;0;0;61,7;202,2;0;0;
18801;0;0;0;0;0;0;57,6;189;0;0;
18808;0;0;0;0;0;0;61,7;202,9;0;0;
18814;0;0;0;0;0;0;61,75;204,2;0;0;
18830;0;0;0;0;0;0;57,7;191,6;0;0;
18836;0;0;0;0;0;0;57,8;193,05;0;0;
18843;0;0;0;0;0;0;57,9;194,5;0;0;
18850;0;0;0;0;0;0;58;196,05;0;0;
18857;0;0;0;0;0;0;58,1;197,6;0;0;
18865;0;0;0;0;0;0;58,1;197,6;0;0;
18872;0;0;0;0;0;0;58,15;198,9;0;0;
18878;0;0;0;0;0;0;58,2;200,2;0;0;
18887;0;0;0;0;0;0;58,2;200,2;0;0;
18893;0;0;0;0;0;0;58,25;201,2;0;0;
18900;0;0;0;0;0;0;58,3;202,2;0;0;
18910;0;0;0;0;0;0;58,3;202,2;0;0;
18916;0;0;0;0;0;0;58,3;202,6;0;0;
18925;0;0;0;0;0;0;58,3;203;0;0;
18932;0;0;0;0;0;0;62,5;217,6;0;0;
18938;0;0;0;0;0;0;62,6;218,65;0;0;
18947;0;0;0;0;0;0;58,5;205,1;0;0;
18955;0;0;0;0;0;0;62,65;219,9;0;0;
18962;0;0;0;0;0;0;62,7;220,8;0;0;
18971;0;0;0;0;0;0;58,6;206,9;0;0;
18978;0;0;0;0;0;0;62,75;221,3;0;0;
18986;0;0;0;0;0;0;62,7;221;0;0;
18993;0;0;0;0;0;0;58,5;206,3;0;0;
19002;0;0;0;0;0;0;58,4;205,45;0;0;
19009;0;0;0;0;0;0;58,3;204,6;0;0;
19016;0;0;0;0;0;0;62,35;218,1;0;0;
19025;0;0;0;0;0;0;62,25;216,8;0;0;
19034;0;0;0;0;0;0;58,1;202;0;0;
19042;0;0;0;0;0;0;62,15;215,45;0;0;
19048;0;0;0;0;0;0;62;213,95;0;0;
19056;0;0;0;0;0;0;57,8;199;0;0;
19063;0;0;0;0;0;0;61,95;213,1;0;0;
19070;0;0;0;0;0;0;61,95;212,65;0;0;
19079;0;0;0;0;0;0;57,8;198,1;0;0;
19086;0;0;0;0;0;0;57,75;197,85;0;0;
19095;0;0;0;0;0;0;57,7;197,6;0;0;
19103;0;0;0;0;0;0;61,75;211,2;0;0;
19110;0;0;0;0;0;0;61,65;210;0;0;
19119;0;0;0;0;0;0;57,5;195,2;0;0;
19127;0;0;0;0;0;0;61,65;209,5;0;0;
19134;0;0;0;0;0;0;61,65;209,4;0;0;
19142;0;0;0;0;0;0;57,5;195;0;0;
19149;0;0;0;0;0;0;61,65;209,7;0;0;
19156;0;0;0;0;0;0;61,65;210,2;0;0;
19164;0;0;0;0;0;0;61,6;210,1;0;0;
19171;0;0;0;0;0;0;61,65;210,7;0;0;
19179;0;0;0;0;0;0;57,6;197,2;0;0;
19187;0;0;0;0;0;0;62,35;211,3;0;0;
19194;0;0;0;0;0;0;63,05;211,95;0;0;
19205;0;0;0;0;0;0;59;198,5;0;0;
19212;0;0;0;0;0;0;67,35;212,8;0;0;
19219;0;0;0;0;0;0;71,55;213;0;0;
19227;0;0;0;0;0;0;67,4;198,9;0;0;
19234;0;0;0;0;0;0;75,85;213,25;0;0;
19241;0;0;0;0;0;0;80,15;213,25;0;0;
19248;0;0;0;0;0;0;76;198,9;0;0;
19256;0;0;0;0;0;0;85,4;199,8;0;0;
19263;0;0;0;0;0;0;94,8;200,7;0;0;
19270;0;0;0;0;0;0;115,35;217,05;0;0;
19278;0;0;0;0;0;0;131,75;219,1;0;0;
19287;0;0;0;0;0;0;127,6;204,8;0;0;
19297;0;0;0;0;0;0;144,6;220,3;1;0;
19306;0;0;0;0;0;0;157,45;221,1;1;0;
19313;0;0;0;0;0;0;173,25;221,35;1;0;
19330;0;0;0;0;0;0;189,1;222,2;1;0;
19337;0;0;0;0;0;0;211,35;227,2;1;0;
19343;0;0;0;0;0;0;237,7;246,3;1;0;
19350;0;0;0;0;0;0;232,95;232,2;1;0;
19357;0;0;0;0;0;0;260,7;234,95;1;0;
19364;0;0;0;0;0;0;293,2;251,8;1;0;
19372;0;0;0;0;0;0;284,85;237,5;1;0;
19381;0;0;0;0;0;0;304,95;239,6;1;0;
19389;0;0;0;0;0;0;333,4;256;1;0;
19398;0;0;0;0;0;0;324,95;241,65;1;0;
19408;0;0;0;0;0;0;341,95;242,9;1;0;
19415;0;0;0;0;0;0;367,4;258,5;1;0;
19423;0;0;0;0;0;0;382,95;257,5;1;0;
19430;0;0;0;0;0;0;398,5;256,5;1;0;
19439;0;0;0;0;0;0;377,95;240,15;1;0;
19447;0;0;0;0;0;0;382,85;237,65;1;0;
19456;0;0;0;0;0;0;408,3;251,5;1;0;
19464;0;0;0;0;0;0;412,05;247,65;1;0;
19470;0;0;0;0;0;0;415,8;243,8;1;0;
19477;0;0;0;0;0;0;395,85;228,85;1;0;
19484;0;0;0;0;0;0;394,95;224;1;0;
19491;0;0;0;0;0;0;387,65;215;1;0;
19502;0;0;0;0;0;0;361,3;195,9;1;0;
19511;0;0;0;0;0;0;378,6;204,5;1;0;
19517;0;0;0;0;0;0;363,4;196,25;1;0;
19526;0;0;0;0;0;0;330,9;179,4;1;0;
19532;0;0;0;0;0;0;346,05;186,9;1;0;
19539;0;0;0;0;0;0;332,75;178;1;0;
19547;0;0;0;0;0;0;316,65;167,75;1;0;
19554;0;0;0;0;0;0;329;173,9;1;0;
19562;0;0;0;0;0;0;303,55;158,3;1;0;
19570;0;0;0;0;0;0;288;147,85;1;0;
19577;0;0;0;0;0;0;268,9;139,5;1;0;
19588;0;0;0;0;0;0;239,9;126;1;0;
19595;0;0;0;0;0;0;248,25;130,15;1;0;
19604;0;0;0;0;0;0;231,15;120,45;1;0;
19611;0;0;0;0;0;0;205,7;106,6;1;0;
19618;0;0;0;0;0;0;192,1;98,55;1;0;
19625;0;0;0;0;0;0;178,5;90,5;1;0;
19632;0;0;0;0;0;0;184,7;93,7;1;0;
19639;0;0;0;0;0;0;171,85;86,8;0;0;
19646;0;0;0;0;0;0;152,8;76,7;0;0;
19655;0;0;0;0;0;0;158,4;79,6;0;0;
19662;0;0;0;0;0;0;146,7;73,9;0;0;
19671;0;0;0;0;0;0;129,4;65,3;0;0;
19678;0;0;0;0;0;0;134,5;68,1;0;0;
19686;0;0;0;0;0;0;124,45;63,4;0;0;
19696;0;0;0;0;0;0;109,3;55,9;0;0;
19703;0;0;0;0;0;0;101,8;53,85;0;0;
19710;0;0;0;0;0;0;94,3;51,8;0;0;
19718;0;0;0;0;0;0;99,05;59,65;0;0;
19725;0;0;0;0;0;0;93,9;62,35;0;0;
19736;0;0;0;0;0;0;84;57,2;0;0;
19744;0;0;0;0;0;0;88,6;67,25;0;0;
19750;0;0;0;0;0;0;84,85;73,15;0;0;
19759;0;0;0;0;0;0;76,5;69;0;0;
19767;0;0;0;0;0;0;81;80,2;0;0;
19774;0;0;0;0;0;0;78,35;87,8;0;0;
19781;0;0;0;0;0;0;75,65;96,15;0;0;
19789;0;0;0;0;0;0;73,9;104,9;0;0;
19797;0;0;0;0;0;0;67,7;101,7;0;0;
19804;0;0;0;0;0;0;72,05;114,15;0;0;
19811;0;0;0;0;0;0;70,8;123,7;0;0;
19827;0;0;0;0;0;0;65,2;120,8;0;0;
19836;0;0;0;0;0;0;69,45;133,55;0;0;
19843;0;0;0;0;0;0;68,6;143,5;0;0;
19850;0;0;0;0;0;0;67,8;154,2;0;0;
19859;0;0;0;0;0;0;72,1;167,7;0;0;
19866;0;0;0;0;0;0;71,5;177,4;0;0;
19873;0;0;0;0;0;0;70,9;187,1;0;0;
19883;0;0;0;0;0;0;66,15;179,25;0;0;
19890;0;0;0;0;0;0;65,55;185,15;0;0;
19897;0;0;0;0;0;0;69,7;198,9;0;0;
19906;0;0;0;0;0;0;65,1;188,85;0;0;
19913;0;0;0;0;0;0;64,65;192,7;0;0;
19920;0;0;0;0;0;0;68,8;206,6;0;0;
19928;0;0;0;0;0;0;64,3;195,4;0;0;
19935;0;0;0;0;0;0;64,1;199,15;0;0;
19942;0;0;0;0;0;0;63,95;202,15;0;0;
19951;0;0;0;0;0;0;63,75;205,05;0;0;
19959;0;0;0;0;0;0;68;219,9;0;0;
19971;0;0;0;0;0;0;63,65;207,45;0;0;
19977;0;0;0;0;0;0;63,55;210;0;0;
19985;0;0;0;0;0;0;67,8;225;0;0;
19995;0;0;0;0;0;0;63,55;212,25;0;0;
20001;0;0;0;0;0;0;63,5;214,45;0;0;
20008;0;0;0;0;0;0;63,4;215,9;0;0;
20016;0;0;0;0;0;0;59,1;202,4;0;0;
20024;0;0;0;0;0;0;59,1;203,4;0;0;
20031;0;0;0;0;0;0;59,1;204,4;0;0;
20038;0;0;0;0;0;0;63,25;218,65;0;0;
20045;0;0;0;0;0;0;63,25;219,15;0;0;
20053;0;0;0;0;0;0;59,1;205,4;0;0;
20061;0;0;0;0;0;0;63,3;220,1;0;0;
20067;0;0;0;0;0;0;63,35;220,9;0;0;
20075;0;0;0;0;0;0;59,2;207;0;0;
20083;0;0;0;0;0;0;63,45;221,95;0;0;
20090;0;0;0;0;0;0;63,4;221,95;0;0;
20098;0;0;0;0;0;0;59,1;207;0;0;
20105;0;0;0;0;0;0;59,05;207,1;0;0;
20112;0;0;0;0;0;0;59;207,2;0;0;
20121;0;0;0;0;0;0;59;207,2;0;0;
20128;0;0;0;0;0;0;58,9;206,8;0;0;
20136;0;0;0;0;0;0;58,8;206,4;0;0;
20143;0;0;0;0;0;0;58,8;206,4;0;0;
20150;0;0;0;0;0;0;58,75;205,9;0;0;
20157;0;0;0;0;0;0;58,7;205,4;0;0;
20164;0;0;0;0;0;0;62,85;219,6;0;0;
20170;0;0;0;0;0;0;62,75;219;0;0;
20180;0;0;0;0;0;0;58,5;204,2;0;0;
20187;0;0;0;0;0;0;58,4;203,8;0;0;
20194;0;0;0;0;0;0;58,3;203,4;0;0;
20202;0;0;0;0;0;0;58,3;203,4;0;0;
20209;0;0;0;0;0;0;58,2;203,05;0;0;
20216;0;0;0;0;0;0;58,1;202,7;0;0;
20226;0;0;0;0;0;0;58,1;202,7;0;0;
20233;0;0;0;0;0;0;58;202;0;0;
20241;0;0;0;0;0;0;57,9;201,3;0;0;
20249;0;0;0;0;0;0;62,05;215,95;0;0;
20258;0;0;0;0;0;0;62;215,65;0;0;
20267;0;0;0;0;0;0;57,8;200,7;0;0;
20277;0;0;0;0;0;0;62;215,5;0;0;
20284;0;0;0;0;0;0;62,05;215,7;0;0;
20292;0;0;0;0;0;0;57,9;201,1;0;0;
20299;0;0;0;0;0;0;62,05;215,9;0;0;
20307;0;0;0;0;0;0;62,05;216,25;0;0;
20320;0;0;0;0;0;0;62,2;217,8;0;0;
20329;0;0;0;0;0;0;62,35;219,6;0;0;
20335;0;0;0;0;0;0;62,55;222,25;0;0;
20342;0;0;0;0;0;0;66,9;239,1;0;0;
20350;0;0;0;0;0;0;62,85;225,25;0;0;
20357;0;0;0;0;0;0;63,1;227,6;0;0;
20365;0;0;0;0;0;0;67,4;243,8;0;0;
20372;0;0;0;0;0;0;63,3;229,45;0;0;
20380;0;0;0;0;0;0;63,45;230,85;0;0;
20387;0;0;0;0;0;0;67,7;246,6;0;0;
20397;0;0;0;0;0;0;63,55;232,35;0;0;
20404;0;0;0;0;0;0;63,6;233,4;0;0;
20411;0;0;0;0;0;0;63,65;234,05;0;0;
20420;0;0;0;0;0;0;59,5;219,4;0;0;
20429;0;0;0;0;0;0;63,65;234,3;0;0;
20436;0;0;0;0;0;0;63,6;234,4;0;0;
20443;0;0;0;0;0;0;63,6;235;0;0;
20449;0;0;0;0;0;0;67,8;250,4;0;0;
20458;0;0;0;0;0;0;63,65;235,6;0;0;
20467;0;0;0;0;0;0;63,7;236,2;0;0;
20474;0;0;0;0;0;0;63,6;235,6;0;0;
20484;0;0;0;0;0;0;63,4;234,2;0;0;
20491;0;0;0;0;0;0;63,15;231,95;0;0;
20501;0;0;0;0;0;0;58,8;215,1;0;0;
20510;0;0;0;0;0;0;62,9;229,5;0;0;
20517;0;0;0;0;0;0;62,7;227,7;0;0;
20526;0;0;0;0;0;0;58,4;211,5;0;0;
20534;0;0;0;0;0;0;62,5;225,8;0;0;
20541;0;0;0;0;0;0;62,35;224,35;0;0;
20554;0;0;0;0;0;0;62,25;223,6;0;0;
20562;0;0;0;0;0;0;66,4;238,6;0;0;
20568;0;0;0;0;0;0;66,35;238,7;0;0;
20575;0;0;0;0;0;0;66,3;238,8;0;0;
20584;0;0;0;0;0;0;66,3;238,8;0;0;
20591;0;0;0;0;0;0;66,3;238,8;0;0;
20599;0;0;0;0;0;0;66,3;238,8;0;0;
20608;0;0;0;0;0;0;62,1;223,4;0;0;
20615;0;0;0;0;0;0;62,05;222,8;0;0;
20622;0;0;0;0;0;0;66,2;237,6;0;0;
20630;0;0;0;0;0;0;62;222,2;0;0;
20637;0;0;0;0;0;0;61,9;221,9;0;0;
20644;0;0;0;0;0;0;61,9;222,4;0;0;
20652;0;0;0;0;0;0;57,8;207,8;0;0;
20659;0;0;0;0;0;0;61,9;222,4;0;0;
20665;0;0;0;0;0;0;61,9;222,6;0;0;
20673;0;0;0;0;0;0;57,8;208,2;0;0;
20680;0;0;0;0;0;0;61,95;223;0;0;
20687;0;0;0;0;0;0;62;223,5;0;0;
20695;0;0;0;0;0;0;57,9;209,2;0;0;
20702;0;0;0;0;0;0;57,85;209,1;0;0;
20709;0;0;0;0;0;0;57,8;209;0;0;
20717;0;0;0;0;0;0;57,75;208,5;0;0;
20724;0;0;0;0;0;0;57,7;208;0;0;
20731;0;0;0;0;0;0;57,7;208;0;0;
20738;0;0;0;0;0;0;57,75;208,7;0;0;
20745;0;0;0;0;0;0;57,8;209,4;0;0;
20755;0;0;0;0;0;0;57,8;209,4;0;0;
20763;0;0;0;0;0;0;57,85;210,2;0;0;
20770;0;0;0;0;0;0;57,9;211;0;0;
20778;0;0;0;0;0;0;57,9;211;0;0;
20785;0;0;0;0;0;0;57,95;211,3;0;0;
20791;0;0;0;0;0;0;58;211,6;0;0;
20800;0;0;0;0;0;0;58;211,6;0;0;
20807;0;0;0;0;0;0;58,05;212,35;0;0;
20815;0;0;0;0;0;0;58,1;213,1;0;0;
20829;0;0;0;0;0;0;62,25;227,85;0;0;
20836;0;0;0;0;0;0;62,25;227,8;0;0;
20845;0;0;0;0;0;0;58,1;213;0;0;
20851;0;0;0;0;0;0;62,2;227,65;0;0;
20858;0;0;0;0;0;0;62,2;227,4;0;0;
20866;0;0;0;0;0;0;58,1;212,5;0;0;
20874;0;0;0;0;0;0;58,25;213,4;0;0;
20880;0;0;0;0;0;0;58,4;214,3;0;0;
20887;0;0;0;0;0;0;62,6;230,15;0;0;
20895;0;0;0;0;0;0;62,6;230,4;0;0;
20903;0;0;0;0;0;0;58,4;214,8;0;0;
20909;0;0;0;0;0;0;62,55;230,15;0;0;
20916;0;0;0;0;0;0;62,5;229,9;0;0;
20927;0;0;0;0;0;0;58,3;214,3;0;0;
20933;0;0;0;0;0;0;62,45;229,55;0;0;
20943;0;0;0;0;0;0;62,45;229,4;0;0;
20950;0;0;0;0;0;0;58,3;214;0;0;
20958;0;0;0;0;0;0;62,45;229,45;0;0;
20965;0;0;0;0;0;0;62,45;229,55;0;0;
20974;0;0;0;0;0;0;62,55;230,5;0;0;
20982;0;0;0;0;0;0;62,65;232,05;0;0;
20990;0;0;0;0;0;0;58,5;217,3;0;0;
20997;0;0;0;0;0;0;62,65;232,8;0;0;
21005;0;0;0;0;0;0;62,7;233,65;0;0;
21014;0;0;0;0;0;0;58,6;219;0;0;
21022;0;0;0;0;0;0;62,75;233,6;0;0;
21028;0;0;0;0;0;0;62,65;232,4;0;0;
21038;0;0;0;0;0;0;58,4;216,6;0;0;
21045;0;0;0;0;0;0;58,4;215,9;0;0;
21052;0;0;0;0;0;0;58,4;215,2;0;0;
21059;0;0;0;0;0;0;62,55;230,2;0;0;
21066;0;0;0;0;0;0;62,55;229,85;0;0;
21076;0;0;0;0;0;0;58,4;214,5;0;0;
21084;0;0;0;0;0;0;63,5;229,85;0;0;
21090;0;0;0;0;0;0;64,45;229,95;0;0;
21100;0;0;0;0;0;0;60,3;214,7;0;0;
21107;0;0;0;0;0;0;68,1;230,6;0;0;
21113;0;0;0;0;0;0;71,75;231,05;0;0;
21121;0;0;0;0;0;0;80,4;235,65;0;0;
21127;0;0;0;0;0;0;88,95;239,4;0;0;
21138;0;0;0;0;0;0;84,7;223,1;0;0;
21145;0;0;0;0;0;0;102,7;245,2;0;0;
21151;0;0;0;0;0;0;116,55;251,8;0;0;
21160;0;0;0;0;0;0;112,4;236,3;1;0;
21167;0;0;0;0;0;0;143,55;262,85;1;0;
21174;0;0;0;0;0;0;170,55;274,8;1;0;
21182;0;0;0;0;0;0;166,4;260,2;1;0;
21189;0;0;0;0;0;0;197,5;284,45;1;0;
21196;0;0;0;0;0;0;224,4;293,55;1;0;
21204;0;0;0;0;0;0;220,2;278,4;1;0;
21211;0;0;0;0;0;0;242;282,4;1;0;
21218;0;0;0;0;0;0;263,8;286,4;1;0;
21227;0;0;0;0;0;0;263,8;286,4;1;0;
21234;0;0;0;0;0;0;285,45;291,1;1;0;
21244;0;0;0;0;0;0;307,1;295,8;1;0;
21251;0;0;0;0;0;0;330,6;311,85;1;0;
21258;0;0;0;0;0;0;346,3;312;1;0;
21267;0;0;0;0;0;0;338,5;296,1;1;0;
21275;0;0;0;0;0;0;353,1;291,45;1;0;
21282;0;0;0;0;0;0;367,7;286,8;1;0;
21290;0;0;0;0;0;0;367,7;286,8;1;0;
21297;0;0;0;0;0;0;379,5;280,15;1;0;
21304;0;0;0;0;0;0;391,3;273,5;1;0;
21311;0;0;0;0;0;0;391,3;273,5;1;0;
21318;0;0;0;0;0;0;387,45;260,1;1;0;
21324;0;0;0;0;0;0;383,6;246,7;1;0;
21335;0;0;0;0;0;0;383,6;246,7;1;0;
21346;0;0;0;0;0;0;374,65;233,95;1;0;
21353;0;0;0;0;0;0;365,7;221,2;1;0;
21360;0;0;0;0;0;0;388,5;233,4;1;0;
21367;0;0;0;0;0;0;385,35;226,6;1;0;
21376;0;0;0;0;0;0;359,4;207,6;1;0;
21383;0;0;0;0;0;0;380,55;218,6;1;0;
21390;0;0;0;0;0;0;374,95;209,55;1;0;
21400;0;0;0;0;0;0;364,25;197,65;1;0;
21407;0;0;0;0;0;0;356,8;189,75;1;0;
21416;0;0;0;0;0;0;333,3;173,7;1;0;
21423;0;0;0;0;0;0;345,75;179,9;1;0;
21430;0;0;0;0;0;0;330,8;170,7;1;0;
21439;0;0;0;0;0;0;303,4;155,3;1;0;
21447;0;0;0;0;0;0;313,35;160,35;1;0;
21455;0;0;0;0;0;0;293,5;149,95;1;0;
21462;0;0;0;0;0;0;272,1;138,9;1;0;
21468;0;0;0;0;0;0;280,5;143,3;1;0;
21478;0;0;0;0;0;0;253,2;130,15;1;0;
21485;0;0;0;0;0;0;233,2;120,85;1;0;
21492;0;0;0;0;0;0;240,5;124,7;1;0;
21500;0;0;0;0;0;0;218,35;113,2;0;0;
21507;0;0;0;0;0;0;202,6;105;0;0;
21514;0;0;0;0;0;0;186,2;96,1;0;0;
21522;0;0;0;0;0;0;163,4;83,9;0;0;
21528;0;0;0;0;0;0;169,15;87,05;0;0;
21534;0;0;0;0;0;0;153,75;79,2;0;0;
21542;0;0;0;0;0;0;132,6;68,2;0;0;
21548;0;0;0;0;0;0;121,8;63,85;0;0;
21555;0;0;0;0;0;0;111;59,5;0;0;
21563;0;0;0;0;0;0;111;59,5;0;0;
21568;0;0;0;0;0;0;103,5;60,35;0;0;
21574;0;0;0;0;0;0;96;61,2;0;0;
21583;0;0;0;0;0;0;96;61,2;0;0;
21589;0;0;0;0;0;0;90,85;65,8;0;0;
21596;0;0;0;0;0;0;85,7;70,4;0;0;
21603;0;0;0;0;0;0;77,3;66;0;0;
21611;0;0;0;0;0;0;73,55;72,85;0;0;
21617;0;0;0;0;0;0;78,2;84,1;0;0;
21626;0;0;0;0;0;0;70,9;80,25;0;0;
21633;0;0;0;0;0;0;68,2;88,65;0;0;
21641;0;0;0;0;0;0;72,8;100,9;0;0;
21648;0;0;0;0;0;0;66,4;97,6;0;0;
21655;0;0;0;0;0;0;64,45;107,15;0;0;
21662;0;0;0;0;0;0;68,9;120;0;0;
21670;0;0;0;0;0;0;63,15;116,85;0;0;
21677;0;0;0;0;0;0;61,75;126,95;0;0;
21684;0;0;0;0;0;0;66,1;140,2;0;0;
21691;0;0;0;0;0;0;60,85;136,4;0;0;
21698;0;0;0;0;0;0;59,95;146,65;0;0;
21705;0;0;0;0;0;0;64,3;160,7;0;0;
21712;0;0;0;0;0;0;59,35;153,65;0;0;
21720;0;0;0;0;0;0;58,7;161;0;0;
21727;0;0;0;0;0;0;63;175,4;0;0;
21736;0;0;0;0;0;0;58,2;165,75;0;0;
21743;0;0;0;0;0;0;57,65;170,8;0;0;
21749;0;0;0;0;0;0;61,9;185,5;0;0;
21759;0;0;0;0;0;0;57,25;174,25;0;0;
21767;0;0;0;0;0;0;56,85;178,1;0;0;
21776;0;0;0;0;0;0;61,1;193,2;0;0;
21784;0;0;0;0;0;0;60,75;196,55;0;0;
21794;0;0;0;0;0;0;60,4;199,9;0;0;
21803;0;0;0;0;0;0;64,85;217,9;0;0;
21812;0;0;0;0;0;0;64,85;223,05;0;0;
21823;0;0;0;0;0;0;60,4;210,2;0;0;
21831;0;0;0;0;0;0;65,05;229,6;0;0;
21845;0;0;0;0;0;0;65,35;235,75;0;0;
21850;0;0;0;0;0;0;65,5;240,7;0;0;
21856;0;0;0;0;0;0;70;258,9;0;0;
21865;0;0;0;0;0;0;65,65;244,85;0;0;
21871;0;0;0;0;0;0;65,65;247,9;0;0;
21878;0;0;0;0;0;0;70;265;0;0;
21887;0;0;0;0;0;0;65,7;250,6;0;0;
21894;0;0;0;0;0;0;65,7;252,95;0;0;
21902;0;0;0;0;0;0;70;269,7;0;0;
21909;0;0;0;0;0;0;70;271,15;0;0;
21916;0;0;0;0;0;0;70;272,6;0;0;
21924;0;0;0;0;0;0;70;272,6;0;0;
21931;0;0;0;0;0;0;69,95;273,2;0;0;
21938;0;0;0;0;0;0;69,9;273,8;0;0;
21948;0;0;0;0;0;0;65,65;258,2;0;0;
21956;0;0;0;0;0;0;65,6;258,35;0;0;
21964;0;0;0;0;0;0;65,35;256,1;0;0;
21971;0;0;0;0;0;0;60,9;238,1;0;0;
21978;0;0;0;0;0;0;65,1;253,65;0;0;
21985;0;0;0;0;0;0;64,65;249,8;0;0;
21995;0;0;0;0;0;0;64,2;245,9;0;0;
22002;0;0;0;0;0;0;63,9;243,2;0;0;
22011;0;0;0;0;0;0;59,4;225;0;0;
22019;0;0;0;0;0;0;63,55;239,95;0;0;
22026;0;0;0;0;0;0;63,35;237,8;0;0;
22035;0;0;0;0;0;0;59;220,7;0;0;
22042;0;0;0;0;0;0;63,15;235,65;0;0;
22049;0;0;0;0;0;0;63;233,85;0;0;
22057;0;0;0;0;0;0;58,7;217,1;0;0;
22064;0;0;0;0;0;0;58,65;216,2;0;0;
22071;0;0;0;0;0;0;58,6;215,3;0;0;
22078;0;0;0;0;0;0;58,6;215,3;0;0;
22086;0;0;0;0;0;0;58,6;214,95;0;0;
22093;0;0;0;0;0;0;58,6;214,6;0;0;
22100;0;0;0;0;0;0;62,75;229,75;0;0;
22106;0;0;0;0;0;0;62,7;229,15;0;0;
22116;0;0;0;0;0;0;58,5;213,4;0;0;
22126;0;0;0;0;0;0;62,65;228,3;0;0;
22132;0;0;0;0;0;0;62,6;227,65;0;0;
22142;0;0;0;0;0;0;58,4;212,1;0;0;
22149;0;0;0;0;0;0;58,35;211,75;0;0;
22157;0;0;0;0;0;0;58,3;211,4;0;0;
22165;0;0;0;0;0;0;62,4;226,1;0;0;
22172;0;0;0;0;0;0;62,35;225,85;0;0;
22182;0;0;0;0;0;0;58,2;210,9;0;0;
22189;0;0;0;0;0;0;62,3;225,55;0;0;
22196;0;0;0;0;0;0;62,25;225,25;0;0;
22206;0;0;0;0;0;0;58,1;210,3;0;0;
22213;0;0;0;0;0;0;62,25;225,1;0;0;
22222;0;0;0;0;0;0;62,2;224,65;0;0;
22230;0;0;0;0;0;0;62,1;224,35;0;0;
22238;0;0;0;0;0;0;66,2;239,3;0;0;
22245;0;0;0;0;0;0;62;223,95;0;0;
22252;0;0;0;0;0;0;61,9;223,7;0;0;
22261;0;0;0;0;0;0;61,85;223,65;0;0;
22268;0;0;0;0;0;0;57,7;208,5;0;0;
22276;0;0;0;0;0;0;61,85;224,05;0;0;
22283;0;0;0;0;0;0;61,85;224,7;0;0;
22291;0;0;0;0;0;0;57,7;209,8;0;0;
22298;0;0;0;0;0;0;61,9;225,5;0;0;
22305;0;0;0;0;0;0;61,95;226,05;0;0;
22315;0;0;0;0;0;0;61,95;226,4;0;0;
22324;0;0;0;0;0;0;62;227,2;0;0;
22331;0;0;0;0;0;0;57,9;212,5;0;0;
22344;0;0;0;0;0;0;62,05;228,3;0;0;
22350;0;0;0;0;0;0;62,1;229,45;0;0;
22357;0;0;0;0;0;0;62,25;231,4;0;0;
22369;0;0;0;0;0;0;66,5;248;0;0;
22377;0;0;0;0;0;0;62,35;233,2;0;0;
22383;0;0;0;0;0;0;62,5;235,35;0;0;
22391;0;0;0;0;0;0;62,7;237,35;0;0;
22398;0;0;0;0;0;0;62,85;238,7;0;0;
22405;0;0;0;0;0;0;67,1;255;0;0;
22413;0;0;0;0;0;0;63;239,9;0;0;
22420;0;0;0;0;0;0;63,2;241,55;0;0;
22427;0;0;0;0;0;0;67,5;258,3;0;0;
22436;0;0;0;0;0;0;63,35;242,75;0;0;
22444;0;0;0;0;0;0;63,5;244,4;0;0;
22451;0;0;0;0;0;0;67,8;261,6;0;0;
22459;0;0;0;0;0;0;63,6;245,9;0;0;
22466;0;0;0;0;0;0;63,65;246,95;0;0;
22476;0;0;0;0;0;0;63,75;248,2;0;0;
22485;0;0;0;0;0;0;64;250,75;0;0;
22493;0;0;0;0;0;0;68,4;268,8;0;0;
22501;0;0;0;0;0;0;64,25;253;0;0;
22508;0;0;0;0;0;0;64,8;257,3;0;0;
22517;0;0;0;0;0;0;65,25;260,8;0;0;
22526;0;0;0;0;0;0;61;244,2;0;0;
22532;0;0;0;0;0;0;65,45;262,05;0;0;
22538;0;0;0;0;0;0;65,6;262,95;0;0;
22548;0;0;0;0;0;0;61,3;246;0;0;
22556;0;0;0;0;0;0;61,4;246,35;0;0;
22563;0;0;0;0;0;0;61,5;246,7;0;0;
22571;0;0;0;0;0;0;65,75;262,8;0;0;
22577;0;0;0;0;0;0;65,7;262,15;0;0;
22584;0;0;0;0;0;0;61,4;245,4;0;0;
22591;0;0;0;0;0;0;65,6;261,15;0;0;
22598;0;0;0;0;0;0;65,5;259,7;0;0;
22606;0;0;0;0;0;0;61,2;242,5;0;0;
22614;0;0;0;0;0;0;65,4;258,25;0;0;
22622;0;0;0;0;0;0;65,35;257,25;0;0;
22629;0;0;0;0;0;0;61,1;240,5;0;0;
22637;0;0;0;0;0;0;60,85;238,05;0;0;
22644;0;0;0;0;0;0;60,6;235,6;0;0;
22653;0;0;0;0;0;0;60,6;235,6;0;0;
22660;0;0;0;0;0;0;60,05;230,8;0;0;
22666;0;0;0;0;0;0;59,5;226;0;0;
22674;0;0;0;0;0;0;59,5;226;0;0;
22680;0;0;0;0;0;0;59,15;223,15;0;0;
22687;0;0;0;0;0;0;58,8;220,3;0;0;
22694;0;0;0;0;0;0;58,8;220,3;0;0;
22701;0;0;0;0;0;0;58,55;218,6;0;0;
22708;0;0;0;0;0;0;58,3;216,9;0;0;
22717;0;0;0;0;0;0;54,05;200,8;0;0;
22724;0;0;0;0;0;0;53,95;200,05;0;0;
22730;0;0;0;0;0;0;58,1;215,4;0;0;
22738;0;0;0;0;0;0;53,9;199,65;0;0;
22744;0;0;0;0;0;0;53,9;200,1;0;0;
22751;0;0;0;0;0;0;58,1;216,3;0;0;
22760;0;0;0;0;0;0;53,9;200,55;0;0;
22766;0;0;0;0;0;0;53,9;201;0;0;
22774;0;0;0;0;0;0;58,1;217,2;0;0;
22781;0;0;0;0;0;0;58,2;217,85;0;0;
22790;0;0;0;0;0;0;58,3;218,5;0;0;
22802;0;0;0;0;0;0;58,3;218,5;0;0;
22811;0;0;0;0;0;0;58,55;221,25;0;0;
22819;0;0;0;0;0;0;58,8;224;0;0;
22829;0;0;0;0;0;0;63,3;243,45;0;0;
22837;0;0;0;0;0;0;63,7;247,9;0;0;
22846;0;0;0;0;0;0;59,6;232,9;0;0;
22857;0;0;0;0;0;0;64,35;254,4;0;0;
22863;0;0;0;0;0;0;65;260,95;0;0;
22869;0;0;0;0;0;0;65,6;266,75;0;0;
22876;0;0;0;0;0;0;70,3;287,5;0;0;
22884;0;0;0;0;0;0;66,15;272,15;0;0;
22890;0;0;0;0;0;0;66,45;275,55;0;0;
22897;0;0;0;0;0;0;70,9;294,3;1;0;
22907;0;0;0;0;0;0;66,7;278,1;1;0;
22914;0;0;0;0;0;0;66,85;279,8;1;0;
22922;0;0;0;0;0;0;71,2;297,7;1;0;
22929;0;0;0;0;0;0;67;281,5;1;0;
22936;0;0;0;0;0;0;67,1;282,45;1;0;
22944;0;0;0;0;0;0;67,15;283,35;1;0;
22952;0;0;0;0;0;0;67,75;283,65;1;0;
22960;0;0;0;0;0;0;72,6;300,2;1;0;
22968;0;0;0;0;0;0;68,2;282,15;1;0;
22976;0;0;0;0;0;0;75,7;282,1;1;0;
22984;0;0;0;0;0;0;83,1;280,65;1;0;
22992;0;0;0;0;0;0;78,6;261,2;1;0;
23000;0;0;0;0;0;0;93,15;280,4;1;0;
23007;0;0;0;0;0;0;102,95;278,1;1;0;
23015;0;0;0;0;0;0;110,65;272,6;1;0;
23022;0;0;0;0;0;0;118,4;267,85;1;0;
23031;0;0;0;0;0;0;113,7;247,1;1;0;
23039;0;0;0;0;0;0;135,35;267,3;1;0;
23046;0;0;0;0;0;0;152,55;268,75;1;0;
23056;0;0;0;0;0;0;148,1;250;1;0;
23063;0;0;0;0;0;0;167,35;268,25;1;0;
23069;0;0;0;0;0;0;182,25;268,6;1;0;
23078;0;0;0;0;0;0;177,9;250,7;1;0;
23085;0;0;0;0;0;0;196,25;266,6;1;0;
23092;0;0;0;0;0;0;210,3;265,35;1;0;
23101;0;0;0;0;0;0;206;248,2;1;0;
23108;0;0;0;0;0;0;216,5;245,7;1;0;
23116;0;0;0;0;0;0;227;243,2;1;0;
23126;0;0;0;0;0;0;239,05;253,65;1;0;
23134;0;0;0;0;0;0;239,2;246,1;1;0;
23142;0;0;0;0;0;0;227,3;228,1;1;0;
23148;0;0;0;0;0;0;237,25;239,55;1;0;
23157;0;0;0;0;0;0;232,65;231,8;1;0;
23166;0;0;0;0;0;0;226,7;222,5;1;0;
23173;0;0;0;0;0;0;222,85;216,4;1;0;
23183;0;0;0;0;0;0;210,4;200,4;1;0;
23190;0;0;0;0;0;0;218,9;208,3;1;0;
23198;0;0;0;0;0;0;205,75;196;1;0;
23206;0;0;0;0;0;0;197,35;184,3;1;0;
23213;0;0;0;0;0;0;210,6;192,8;1;0;
23221;0;0;0;0;0;0;191,35;174,55;1;0;
23228;0;0;0;0;0;0;184,6;165,55;1;0;
23235;0;0;0;0;0;0;197,1;174,8;0;0;
23245;0;0;0;0;0;0;178,75;158,9;0;0;
23253;0;0;0;0;0;0;170,95;150;0;0;
23260;0;0;0;0;0;0;181,5;157;0;0;
23269;0;0;0;0;0;0;166,15;142,95;0;0;
23277;0;0;0;0;0;0;163,3;137,9;0;0;
23286;0;0;0;0;0;0;163,75;136,45;0;0;
23294;0;0;0;0;0;0;162,15;134;0;0;
23302;0;0;0;0;0;0;172,6;142;0;0;
23310;0;0;0;0;0;0;162,65;130,55;0;0;
23318;0;0;0;0;0;0;161,4;125,3;0;0;
23326;0;0;0;0;0;0;161,5;121,6;0;0;
23335;0;0;0;0;0;0;160,5;117,1;0;0;
23344;0;0;0;0;0;0;168,1;122,5;0;0;
23359;0;0;0;0;0;0;159,6;114,6;0;0;
23366;0;0;0;0;0;0;158,2;112,4;0;0;
23374;0;0;0;0;0;0;152,05;109,6;0;0;
23380;0;0;0;0;0;0;145,55;106,9;0;0;
23387;0;0;0;0;0;0;152,3;112,7;0;0;
23394;0;0;0;0;0;0;139,8;103,45;0;0;
23401;0;0;0;0;0;0;133,25;98,95;0;0;
23408;0;0;0;0;0;0;139,2;103,7;0;0;
23416;0;0;0;0;0;0;128,65;96,7;0;0;
23424;0;0;0;0;0;0;123,55;93,75;0;0;
23430;0;0;0;0;0;0;129;97,8;0;0;
23439;0;0;0;0;0;0;116,5;88,8;0;0;
23446;0;0;0;0;0;0;109,1;83,65;0;0;
23452;0;0;0;0;0;0;103,75;79,5;0;0;
23461;0;0;0;0;0;0;93,3;71,5;0;0;
23468;0;0;0;0;0;0;98,2;75,65;0;0;
23476;0;0;0;0;0;0;94,4;73,6;0;0;
23483;0;0;0;0;0;0;85,7;67,4;0;0;
23491;0;0;0;0;0;0;82,75;67,45;0;0;
23498;0;0;0;0;0;0;79,8;67,5;0;0;
23506;0;0;0;0;0;0;84,3;75,8;0;0;
23513;0;0;0;0;0;0;81,7;78,4;0;0;
23523;0;0;0;0;0;0;74,6;72,7;0;0;
23529;0;0;0;0;0;0;72,25;77,25;0;0;
23536;0;0;0;0;0;0;69,9;81,8;0;0;
23546;0;0;0;0;0;0;69,9;81,8;0;0;
23554;0;0;0;0;0;0;68,3;88,45;0;0;
23561;0;0;0;0;0;0;66,7;95,1;0;0;
23568;0;0;0;0;0;0;71;107,4;0;0;
23575;0;0;0;0;0;0;69,85;115,65;0;0;
23582;0;0;0;0;0;0;64,4;111,6;0;0;
23590;0;0;0;0;0;0;68,7;124,6;0;0;
23597;0;0;0;0;0;0;67,9;133,75;0;0;
23605;0;0;0;0;0;0;62,8;129,9;0;0;
23611;0;0;0;0;0;0;67,1;143,85;0;0;
23618;0;0;0;0;0;0;66,5;153,65;0;0;
23626;0;0;0;0;0;0;61,6;149,5;0;0;
23633;0;0;0;0;0;0;65,85;163,95;0;0;
23640;0;0;0;0;0;0;65,45;172,95;0;0;
23649;0;0;0;0;0;0;60,8;167,5;0;0;
23656;0;0;0;0;0;0;60,5;173,75;0;0;
23663;0;0;0;0;0;0;60,2;180;0;0;
23672;0;0;0;0;0;0;60,2;180;0;0;
23678;0;0;0;0;0;0;60,05;184,3;0;0;
23685;0;0;0;0;0;0;59,9;188,6;0;0;
23694;0;0;0;0;0;0;59,9;188,6;0;0;
23700;0;0;0;0;0;0;59,7;191,8;0;0;
23707;0;0;0;0;0;0;59,5;195;0;0;
23716;0;0;0;0;0;0;55,2;182,7;0;0;
23723;0;0;0;0;0;0;55,05;184,95;0;0;
23730;0;0;0;0;0;0;59,2;199,5;0;0;
23738;0;0;0;0;0;0;54,9;186,5;0;0;
23747;0;0;0;0;0;0;54,8;188,6;0;0;
23754;0;0;0;0;0;0;59;203,7;0;0;
23761;0;0;0;0;0;0;58,85;204,95;0;0;
23767;0;0;0;0;0;0;58,7;206,2;0;0;
23777;0;0;0;0;0;0;58,7;206,2;0;0;
23785;0;0;0;0;0;0;58,6;207,15;0;0;
23792;0;0;0;0;0;0;58,5;208,1;0;0;
23801;0;0;0;0;0;0;58,5;208,1;0;0;
23809;0;0;0;0;0;0;58,55;209,4;0;0;
23816;0;0;0;0;0;0;58,6;210,7;0;0;
23823;0;0;0;0;0;0;62,8;226,4;0;0;
23829;0;0;0;0;0;0;62,75;227,45;0;0;
23839;0;0;0;0;0;0;58,5;212,8;0;0;
23851;0;0;0;0;0;0;62,65;228,05;0;0;
23860;0;0;0;0;0;0;62,65;228,7;0;0;
23868;0;0;0;0;0;0;62,65;229,35;0;0;
23876;0;0;0;0;0;0;66,8;244,6;0;0;
23885;0;0;0;0;0;0;62,65;230,05;0;0;
23891;0;0;0;0;0;0;62,7;230,75;0;0;
23898;0;0;0;0;0;0;66,9;246;0;0;
23907;0;0;0;0;0;0;62,7;230,9;0;0;
23915;0;0;0;0;0;0;62,7;231;0;0;
23923;0;0;0;0;0;0;62,75;231;0;0;
23930;0;0;0;0;0;0;62,85;231,25;0;0;
23937;0;0;0;0;0;0;67,1;246,7;0;0;
23946;0;0;0;0;0;0;62,95;231,3;0;0;
23952;0;0;0;0;0;0;63,05;231,5;0;0;
23961;0;0;0;0;0;0;67,3;247,1;0;0;
23968;0;0;0;0;0;0;63,05;231,25;0;0;
23975;0;0;0;0;0;0;63,05;231;0;0;
23981;0;0;0;0;0;0;63,1;230,9;0;0;
23990;0;0;0;0;0;0;58,9;215,2;0;0;
23998;0;0;0;0;0;0;63,1;231,15;0;0;
24004;0;0;0;0;0;0;63,15;231,85;0;0;
24012;0;0;0;0;0;0;59;216,6;0;0;
24020;0;0;0;0;0;0;59;216,65;0;0;
24028;0;0;0;0;0;0;59;216,7;0;0;
24037;0;0;0;0;0;0;59;216,7;0;0;
24043;0;0;0;0;0;0;59,05;217,2;0;0;
24050;0;0;0;0;0;0;59,1;217,7;0;0;
24057;0;0;0;0;0;0;63,25;232,8;0;0;
24064;0;0;0;0;0;0;63,2;232,7;0;0;
24074;0;0;0;0;0;0;59;217,5;0;0;
24082;0;0;0;0;0;0;58,9;217,25;0;0;
24089;0;0;0;0;0;0;58,8;217;0;0;
24098;0;0;0;0;0;0;58,8;217;0;0;
24105;0;0;0;0;0;0;58,75;216,6;0;0;
24112;0;0;0;0;0;0;58,7;216,2;0;0;
24120;0;0;0;0;0;0;58,7;216,2;0;0;
24127;0;0;0;0;0;0;58,6;215,65;0;0;
24134;0;0;0;0;0;0;58,5;215,1;0;0;
24142;0;0;0;0;0;0;62,65;230,35;0;0;
24149;0;0;0;0;0;0;62,6;229,65;0;0;
24157;0;0;0;0;0;0;58,4;213,7;0;0;
24164;0;0;0;0;0;0;62,55;229;0;0;
24171;0;0;0;0;0;0;62,55;229;0;0;
24184;0;0;0;0;0;0;58,4;213,7;0;0;
24194;0;0;0;0;0;0;62,55;228,85;0;0;
24201;0;0;0;0;0;0;62,45;228,25;0;0;
24208;0;0;0;0;0;0;62,25;227,05;0;0;
24214;0;0;0;0;0;0;62,15;226,5;0;0;
24224;0;0;0;0;0;0;58;211,4;0;0;
24230;0;0;0;0;0;0;62,1;226,2;0;0;
24239;0;0;0;0;0;0;62,05;225,8;0;0;
24246;0;0;0;0;0;0;57,9;210,6;0;0;
24252;0;0;0;0;0;0;62,05;225,85;0;0;
24260;0;0;0;0;0;0;62;225,9;0;0;
24268;0;0;0;0;0;0;57,8;210,7;0;0;
24275;0;0;0;0;0;0;61,95;225,8;0;0;
24282;0;0;0;0;0;0;61,95;225,85;0;0;
24289;0;0;0;0;0;0;57,8;210,8;0;0;
24296;0;0;0;0;0;0;57,8;210,7;0;0;
24304;0;0;0;0;0;0;57,8;210,6;0;0;
24313;0;0;0;0;0;0;57,8;210,6;0;0;
24320;0;0;0;0;0;0;57,8;210,6;0;0;
24326;0;0;0;0;0;0;57,8;210,6;0;0;
24334;0;0;0;0;0;0;61,95;226;0;0;
24341;0;0;0;0;0;0;61,95;226,25;0;0;
24349;0;0;0;0;0;0;57,8;211,1;0;0;
24356;0;0;0;0;0;0;57,9;212,1;0;0;
24364;0;0;0;0;0;0;58;213,1;0;0;
24380;0;0;0;0;0;0;58;213,1;0;0;
24386;0;0;0;0;0;0;58,05;213,75;0;0;
24392;0;0;0;0;0;0;58,1;214,4;0;0;
24398;0;0;0;0;0;0;62,45;231,35;0;0;
24405;0;0;0;0;0;0;62,65;233,05;0;0;
24416;0;0;0;0;0;0;58,5;217,8;0;0;
24423;0;0;0;0;0;0;62,75;234,5;0;0;
24430;0;0;0;0;0;0;62,85;236,1;0;0;
24438;0;0;0;0;0;0;58,7;221;0;0;
24445;0;0;0;0;0;0;62,9;237,2;0;0;
24452;0;0;0;0;0;0;62,95;238,25;0;0;
24461;0;0;0;0;0;0;58,8;223,1;0;0;
24468;0;0;0;0;0;0;63,1;239,75;0;0;
24476;0;0;0;0;0;0;63,25;241,1;0;0;
24483;0;0;0;0;0;0;63,35;242,15;0;0;
24490;0;0;0;0;0;0;63,45;243,1;0;0;
24499;0;0;0;0;0;0;59,3;227,7;0;0;
24507;0;0;0;0;0;0;63,5;243,8;0;0;
24513;0;0;0;0;0;0;63,55;244,35;0;0;
24522;0;0;0;0;0;0;59,4;228,8;0;0;
24531;0;0;0;0;0;0;63,55;244,45;0;0;
24538;0;0;0;0;0;0;63,55;244,65;0;0;
24547;0;0;0;0;0;0;63,55;244,5;0;0;
24554;0;0;0;0;0;0;63,35;242,85;0;0;
24563;0;0;0;0;0;0;59;225,9;0;0;
24570;0;0;0;0;0;0;63,1;241;0;0;
24577;0;0;0;0;0;0;62,95;239,4;0;0;
24585;0;0;0;0;0;0;58,7;222,7;0;0;
24592;0;0;0;0;0;0;62,8;237,55;0;0;
24599;0;0;0;0;0;0;62,7;236,2;0;0;
24609;0;0;0;0;0;0;58,5;220;0;0;
24616;0;0;0;0;0;0;62,65;235,25;0;0;
24624;0;0;0;0;0;0;62,5;233,85;0;0;
24633;0;0;0;0;0;0;62,4;232,6;0;0;
24640;0;0;0;0;0;0;62,35;231,65;0;0;
24649;0;0;0;0;0;0;58,1;215,3;0;0;
24656;0;0;0;0;0;0;62,25;230,5;0;0;
24663;0;0;0;0;0;0;62,2;229,6;0;0;
24673;0;0;0;0;0;0;58;213,5;0;0;
24680;0;0;0;0;0;0;62,15;228,8;0;0;
24688;0;0;0;0;0;0;62,15;228,45;0;0;
24696;0;0;0;0;0;0;62,2;228,6;1;0;
24703;0;0;0;0;0;0;62,25;229,1;1;0;
24711;0;0;0;0;0;0;58,1;213,8;1;0;
24718;0;0;0;0;0;0;62,25;229,25;1;0;
24726;0;0;0;0;0;0;62,3;229,6;1;0;
24735;0;0;0;0;0;0;58,2;214,5;1;0;
24743;0;0;0;0;0;0;62,4;230,3;1;0;
24749;0;0;0;0;0;0;62,5;231,25;1;0;
24758;0;0;0;0;0;0;58,4;216,4;1;0;
24765;0;0;0;0;0;0;62,65;232,55;1;0;
24772;0;0;0;0;0;0;62,75;233,45;1;0;
24780;0;0;0;0;0;0;58,6;218,2;1;0;
24788;0;0;0;0;0;0;59,3;219,25;1;0;
24795;0;0;0;0;0;0;60;220,3;1;0;
24803;0;0;0;0;0;0;72,45;237,75;1;0;
24810;0;0;0;0;0;0;80,75;240;1;0;
24820;0;0;0;0;0;0;76,6;224,8;1;0;
24827;0;0;0;0;0;0;90,8;244,2;1;0;
24834;0;0;0;0;0;0;100,85;248,3;1;0;
24842;0;0;0;0;0;0;96,7;233;1;0;
24849;0;0;0;0;0;0;104,9;233,55;1;0;
24856;0;0;0;0;0;0;113,1;234,1;1;0;
24866;0;0;0;0;0;0;113,1;234,1;1;0;
24873;0;0;0;0;0;0;119;231,1;1;0;
24883;0;0;0;0;0;0;124,9;228,1;1;0;
24894;0;0;0;0;0;0;133,3;238,4;1;0;
24900;0;0;0;0;0;0;137,5;232,9;1;0;
24907;0;0;0;0;0;0;133,3;217,1;1;0;
24914;0;0;0;0;0;0;140,75;226,75;1;0;
24920;0;0;0;0;0;0;143,95;220,25;1;0;
24927;0;0;0;0;0;0;139,7;204,1;1;0;
24935;0;0;0;0;0;0;154,4;217,85;1;0;
24941;0;0;0;0;0;0;164,2;215,15;1;0;
24950;0;0;0;0;0;0;159,3;198,7;1;0;
24957;0;0;0;0;0;0;166,65;202,6;1;0;
24963;0;0;0;0;0;0;174;206,5;1;0;
24970;0;0;0;0;0;0;174;206,5;1;0;
24977;0;0;0;0;0;0;177,75;206,6;1;0;
24984;0;0;0;0;0;0;181,5;206,7;1;0;
24992;0;0;0;0;0;0;181,5;206,7;1;0;
24998;0;0;0;0;0;0;188,7;208,95;1;0;
25004;0;0;0;0;0;0;195,9;211,2;1;0;
25013;0;0;0;0;0;0;195,9;211,2;1;0;
25020;0;0;0;0;0;0;204,5;215,2;1;0;
25028;0;0;0;0;0;0;213,1;219,2;1;0;
25036;0;0;0;0;0;0;224,1;224,9;1;0;
25043;0;0;0;0;0;0;235,1;230,6;1;0;
25051;0;0;0;0;0;0;235,1;230,6;1;0;
25058;0;0;0;0;0;0;243,05;233,45;0;0;
25066;0;0;0;0;0;0;251;236,3;0;0;
25075;0;0;0;0;0;0;251;236,3;0;0;
25082;0;0;0;0;0;0;248,3;231,8;0;0;
25089;0;0;0;0;0;0;245,6;227,3;0;0;
25097;0;0;0;0;0;0;245,6;227,3;0;0;
25104;0;0;0;0;0;0;235,55;213,4;0;0;
25112;0;0;0;0;0;0;225,5;199,5;0;0;
25122;0;0;0;0;0;0;225,5;199,5;0;0;
25129;0;0;0;0;0;0;216,7;188,7;0;0;
25136;0;0;0;0;0;0;207,9;177,9;0;0;
25143;0;0;0;0;0;0;216,2;186,55;0;0;
25150;0;0;0;0;0;0;204,9;176,6;0;0;
25160;0;0;0;0;0;0;185,3;158;0;0;
25167;0;0;0;0;0;0;192,95;166,3;0;0;
25175;0;0;0;0;0;0;181,95;158,15;0;0;
25185;0;0;0;0;0;0;163,3;141,7;0;0;
25192;0;0;0;0;0;0;150,6;132,55;0;0;
25200;0;0;0;0;0;0;137,9;123,4;0;0;
25209;0;0;0;0;0;0;143,9;129,05;0;0;
25217;0;0;0;0;0;0;134,5;122,2;0;0;
25225;0;0;0;0;0;0;119,1;109,7;0;0;
25232;0;0;0;0;0;0;124,55;115,15;0;0;
25240;0;0;0;0;0;0;118;111,35;0;0;
25247;0;0;0;0;0;0;106;102,1;0;0;
25255;0;0;0;0;0;0;111,2;110,5;0;0;
25262;0;0;0;0;0;0;106,65;111,45;0;0;
25270;0;0;0;0;0;0;101,85;115,4;0;0;
25277;0;0;0;0;0;0;106,8;126,8;0;0;
25285;0;0;0;0;0;0;97,65;118,1;0;0;
25292;0;0;0;0;0;0;93,3;121,85;0;0;
25300;0;0;0;0;0;0;89,8;125,65;0;0;
25309;0;0;0;0;0;0;81,5;117;0;0;
25316;0;0;0;0;0;0;86,1;130,35;0;0;
25323;0;0;0;0;0;0;83,05;135,4;0;0;
25334;0;0;0;0;0;0;75,4;127,1;0;0;
25341;0;0;0;0;0;0;79,9;141,1;0;0;
25347;0;0;0;0;0;0;77,7;148,25;0;0;
25356;0;0;0;0;0;0;75,45;155,6;0;0;
25362;0;0;0;0;0;0;73,9;164,15;0;0;
25370;0;0;0;0;0;0;67,9;158,5;0;0;
25377;0;0;0;0;0;0;72,25;173,15;0;0;
25388;0;0;0;0;0;0;71,15;182,35;0;0;
25396;0;0;0;0;0;0;65,7;176,9;0;0;
25402;0;0;0;0;0;0;70,1;193,5;0;0;
25410;0;0;0;0;0;0;69,3;201,7;0;0;
25420;0;0;0;0;0;0;64,1;193,3;0;0;
25427;0;0;0;0;0;0;63,55;198,15;0;0;
25434;0;0;0;0;0;0;63;203;0;0;
25441;0;0;0;0;0;0;67,25;219;0;0;
25448;0;0;0;0;0;0;66,7;222,55;0;0;
25457;0;0;0;0;0;0;61,9;210,1;0;0;
25465;0;0;0;0;0;0;66,15;226,1;0;0;
25471;0;0;0;0;0;0;65,8;228,75;0;0;
25480;0;0;0;0;0;0;61,2;215,4;0;0;
25489;0;0;0;0;0;0;65,45;231,4;0;0;
25496;0;0;0;0;0;0;65,2;233,4;0;0;
25505;0;0;0;0;0;0;65;235,55;0;0;
25512;0;0;0;0;0;0;64,85;237,5;0;0;
25523;0;0;0;0;0;0;60,4;223,3;0;0;
25531;0;0;0;0;0;0;64,55;238,5;0;0;
25539;0;0;0;0;0;0;64,35;239,05;0;0;
25547;0;0;0;0;0;0;60;224,4;0;0;
25554;0;0;0;0;0;0;64,15;239,25;0;0;
25560;0;0;0;0;0;0;63,9;237,5;0;0;
25566;0;0;0;0;0;0;59,5;220,9;0;0;
25573;0;0;0;0;0;0;63,7;236;0;0;
25580;0;0;0;0;0;0;63,5;234,85;0;0;
25588;0;0;0;0;0;0;59,1;218,6;0;0;
25595;0;0;0;0;0;0;59;217,85;0;0;
25602;0;0;0;0;0;0;58,9;217,1;0;0;
25611;0;0;0;0;0;0;58,9;217,1;0;0;
25618;0;0;0;0;0;0;58,85;216,5;0;0;
25627;0;0;0;0;0;0;58,8;215,9;0;0;
25634;0;0;0;0;0;0;63,05;231,5;0;0;
25641;0;0;0;0;0;0;63,05;231,1;0;0;
25649;0;0;0;0;0;0;58,8;215,1;0;0;
25655;0;0;0;0;0;0;58,7;214,45;0;0;
25662;0;0;0;0;0;0;58,6;213,8;0;0;
25670;0;0;0;0;0;0;58,6;213,8;0;0;
25676;0;0;0;0;0;0;58,6;213,85;0;0;
25683;0;0;0;0;0;0;58,6;213,9;0;0;
25691;0;0;0;0;0;0;58,6;213,9;0;0;
25698;0;0;0;0;0;0;58,6;214,1;0;0;
25704;0;0;0;0;0;0;58,6;214,3;0;0;
25714;0;0;0;0;0;0;58,6;214,3;0;0;
25720;0;0;0;0;0;0;58,6;214,2;0;0;
25727;0;0;0;0;0;0;58,6;214,1;0;0;
25737;0;0;0;0;0;0;58,6;214,1;0;0;
25745;0;0;0;0;0;0;58,6;213,9;0;0;
25751;0;0;0;0;0;0;58,6;213,7;0;0;
25760;0;0;0;0;0;0;58,6;213,7;0;0;
25767;0;0;0;0;0;0;58,55;213,3;0;0;
25773;0;0;0;0;0;0;58,5;212,9;0;0;
25781;0;0;0;0;0;0;58,45;212,8;0;0;
25788;0;0;0;0;0;0;58,4;212,7;0;0;
25796;0;0;0;0;0;0;58,4;212,7;0;0;
25802;0;0;0;0;0;0;58,4;212,8;0;0;
25809;0;0;0;0;0;0;58,4;212,9;0;0;
25818;0;0;0;0;0;0;58,4;212,9;0;0;
25826;0;0;0;0;0;0;58,4;212,8;0;0;
25832;0;0;0;0;0;0;58,4;212,7;0;0;
25841;0;0;0;0;0;0;58,4;212,7;0;0;
25849;0;0;0;0;0;0;58,4;213,1;0;0;
25857;0;0;0;0;0;0;58,4;213,5;0;0;
25866;0;0;0;0;0;0;58,4;213,5;0;0;
25873;0;0;0;0;0;0;58,35;213,75;0;0;
25886;0;0;0;0;0;0;58,3;214;0;0;
25892;0;0;0;0;0;0;62,4;228,8;0;0;
25899;0;0;0;0;0;0;62,35;228,55;0;0;
25908;0;0;0;0;0;0;62,35;228,55;0;0;
25914;0;0;0;0;0;0;66,5;243,6;0;0;
25923;0;0;0;0;0;0;62,35;228,6;0;0;
25930;0;0;0;0;0;0;62,35;228,95;0;0;
25937;0;0;0;0;0;0;62,3;228,8;0;0;
25945;0;0;0;0;0;0;58,1;213,3;0;0;
25952;0;0;0;0;0;0;62,25;228,65;0;0;
25959;0;0;0;0;0;0;62,2;228,4;0;0;
25966;0;0;0;0;0;0;58;212,8;0;0;
25977;0;0;0;0;0;0;62,15;228,3;0;0;
25984;0;0;0;0;0;0;62,15;228,65;0;0;
25992;0;0;0;0;0;0;58;213,5;0;0;
26000;0;0;0;0;0;0;62,15;228,95;0;0;
26007;0;0;0;0;0;0;62,15;228,95;0;0;
26015;0;0;0;0;0;0;58;213,5;0;0;
26022;0;0;0;0;0;0;62,25;229,6;0;0;
26030;0;0;0;0;0;0;62,35;230,45;0;0;
26037;0;0;0;0;0;0;62,35;230,7;0;0;
26045;0;0;0;0;0;0;62,4;231,4;0;0;
26054;0;0;0;0;0;0;58,3;216,6;0;0;
26062;0;0;0;0;0;0;58,3;216,85;0;0;
26069;0;0;0;0;0;0;58,3;217,1;0;0;
26078;0;0;0;0;0;0;58,3;217,1;0;0;
26085;0;0;0;0;0;0;58,3;216,95;0;0;
26092;0;0;0;0;0;0;58,3;216,8;0;0;
26099;0;0;0;0;0;0;58,3;216,8;0;0;
26106;0;0;0;0;0;0;58,25;216,7;0;0;
26112;0;0;0;0;0;0;58,2;216,6;0;0;
26121;0;0;0;0;0;0;58,2;216,6;0;0;
26128;0;0;0;0;0;0;58,15;216,4;0;0;
26134;0;0;0;0;0;0;58,1;216,2;0;0;
26142;0;0;0;0;0;0;62,25;231,7;0;0;
26148;0;0;0;0;0;0;62,25;231,75;0;0;
26158;0;0;0;0;0;0;58,1;216,3;0;0;
26166;0;0;0;0;0;0;62,25;231,85;0;0;
26173;0;0;0;0;0;0;62,15;231,3;0;0;
26180;0;0;0;0;0;0;57,9;215,2;0;0;
26187;0;0;0;0;0;0;57,8;214,7;0;0;
26193;0;0;0;0;0;0;57,7;214,2;0;0;
26203;0;0;0;0;0;0;57,7;214,2;0;0;
26210;0;0;0;0;0;0;57,7;214,1;0;0;
26217;0;0;0;0;0;0;57,7;214;0;0;
26226;0;0;0;0;0;0;57,7;214;0;0;
26232;0;0;0;0;0;0;57,7;213,85;0;0;
26240;0;0;0;0;0;0;57,7;213,7;0;0;
26251;0;0;0;0;0;0;57,7;213,7;0;0;
26258;0;0;0;0;0;0;57,75;213,9;0;0;
26266;0;0;0;0;0;0;57,8;214,1;0;0;
26272;0;0;0;0;0;0;61,95;229,55;0;0;
26279;0;0;0;0;0;0;62;229,7;0;0;
26287;0;0;0;0;0;0;57,9;214,4;0;0;
26296;0;0;0;0;0;0;57,9;214,7;0;0;
26303;0;0;0;0;0;0;57,9;215;0;0;
26311;0;0;0;0;0;0;57,9;215;0;0;
26319;0;0;0;0;0;0;57,9;214,85;0;0;
26327;0;0;0;0;0;0;57,9;214,7;0;0;
26334;0;0;0;0;0;0;62;230;0;0;
26341;0;0;0;0;0;0;62,05;230,3;0;0;
26348;0;0;0;0;0;0;58;215,3;0;0;
26355;0;0;0;0;0;0;62,1;230,55;0;0;
26362;0;0;0;0;0;0;62,05;230,6;0;0;
26370;0;0;0;0;0;0;57,9;215,4;0;0;
26378;0;0;0;0;0;0;62,05;230,85;0;0;
26394;0;0;0;0;0;0;62,05;231,25;0;0;
26401;0;0;0;0;0;0;62,1;232,35;0;0;
26409;0;0;0;0;0;0;66,3;248,5;0;0;
26416;0;0;0;0;0;0;62,15;233,05;0;0;
26423;0;0;0;0;0;0;62,25;234,3;0;0;
26430;0;0;0;0;0;0;62,35;235,55;0;0;
26439;0;0;0;0;0;0;58,2;220,1;0;0;
26446;0;0;0;0;0;0;62,45;236,95;0;0;
26454;0;0;0;0;0;0;62,55;238;1;0;
26462;0;0;0;0;0;0;62,6;238,5;1;0;
26469;0;0;0;0;0;0;66,8;254,8;1;0;
26478;0;0;0;0;0;0;62,65;239,4;1;0;
26485;0;0;0;0;0;0;62,75;240,9;1;0;
26492;0;0;0;0;0;0;62,9;242,5;1;0;
26499;0;0;0;0;0;0;58,8;227,2;1;0;
26507;0;0;0;0;0;0;63,1;244,45;1;0;
26514;0;0;0;0;0;0;63,3;246,45;1;0;
26522;0;0;0;0;0;0;59,2;231,2;1;0;
26529;0;0;0;0;0;0;63,45;248;1;0;
26537;0;0;0;0;0;0;63,55;249,35;1;0;
26546;0;0;0;0;0;0;59,4;233,9;1;0;
26553;0;0;0;0;0;0;61,85;233,4;1;0;
26560;0;0;0;0;0;0;64,3;232,9;1;0;
26567;0;0;0;0;0;0;77,7;250,9;1;0;
26576;0;0;0;0;0;0;86,85;252,2;1;0;
26584;0;0;0;0;0;0;82,6;235,5;1;0;
26592;0;0;0;0;0;0;100,3;256,1;1;0;
26599;0;0;0;0;0;0;113,75;259,85;1;0;
26609;0;0;0;0;0;0;109,5;243;1;0;
26616;0;0;0;0;0;0;121,45;248,3;1;0;
26624;0;0;0;0;0;0;133,4;253,6;1;0;
26633;0;0;0;0;0;0;133,4;253,6;1;0;
26642;0;0;0;0;0;0;148,45;256,2;1;0;
26650;0;0;0;0;0;0;163,5;258,8;1;0;
26658;0;0;0;0;0;0;182,25;280,25;1;0;
26666;0;0;0;0;0;0;196,7;284,45;1;0;
26675;0;0;0;0;0;0;215,4;285,7;1;0;
26684;0;0;0;0;0;0;238,4;304,2;1;0;
26694;0;0;0;0;0;0;234,15;287,4;1;0;
26702;0;0;0;0;0;0;251,45;287,1;1;0;
26709;0;0;0;0;0;0;273;303,6;1;0;
26719;0;0;0;0;0;0;292,05;304,7;1;0;
26727;0;0;0;0;0;0;311,1;305,8;1;0;
26738;0;0;0;0;0;0;297,7;287,8;1;0;
26746;0;0;0;0;0;0;311,7;284,65;1;0;
26757;0;0;0;0;0;0;339,1;299,5;1;0;
26765;0;0;0;0;0;0;342,3;291,45;1;0;
26774;0;0;0;0;0;0;345,5;283,4;1;0;
26783;0;0;0;0;0;0;361,9;293,4;1;0;
26791;0;0;0;0;0;0;362,15;281,8;1;0;
26801;0;0;0;0;0;0;346;260,2;1;0;
26808;0;0;0;0;0;0;365,65;270,25;1;0;
26815;0;0;0;0;0;0;366;260,8;0;0;
26823;0;0;0;0;0;0;364,7;251,5;0;0;
26829;0;0;0;0;0;0;363,95;240,25;0;0;
26838;0;0;0;0;0;0;345,2;218,8;0;0;
26845;0;0;0;0;0;0;336;208;0;0;
26853;0;0;0;0;0;0;326,8;197,2;0;0;
26861;0;0;0;0;0;0;326,8;197,2;0;0;
26868;0;0;0;0;0;0;316,7;189,05;0;0;
26877;0;0;0;0;0;0;306,6;180,9;0;0;
26890;0;0;0;0;0;0;280,9;164,15;0;0;
26896;0;0;0;0;0;0;264,95;155,4;0;0;
26903;0;0;0;0;0;0;274,7;163,4;0;0;
26909;0;0;0;0;0;0;255,5;155,25;0;0;
26916;0;0;0;0;0;0;236,3;147,1;0;0;
26923;0;0;0;0;0;0;215,4;134,55;0;0;
26930;0;0;0;0;0;0;201,8;127,75;0;0;
26937;0;0;0;0;0;0;192,7;123,5;0;0;
26947;0;0;0;0;0;0;176,3;113,5;0;0;
26954;0;0;0;0;0;0;182,8;118,65;0;0;
26962;0;0;0;0;0;0;169,65;113,75;0;0;
26970;0;0;0;0;0;0;150;103,7;0;0;
26977;0;0;0;0;0;0;137,8;98,1;0;0;
26985;0;0;0;0;0;0;125,6;92,5;0;0;
26995;0;0;0;0;0;0;125,6;92,5;0;0;
27001;0;0;0;0;0;0;117,1;90,2;0;0;
27009;0;0;0;0;0;0;108,6;87,9;0;0;
27015;0;0;0;0;0;0;113,65;97,45;0;0;
27023;0;0;0;0;0;0;107,25;98,65;0;0;
27029;0;0;0;0;0;0;95,8;90,3;0;0;
27037;0;0;0;0;0;0;100,7;101,75;0;0;
27046;0;0;0;0;0;0;95,85;105,2;0;0;
27055;0;0;0;0;0;0;86,1;97,2;0;0;
27062;0;0;0;0;0;0;82,65;102,9;0;0;
27069;0;0;0;0;0;0;79,2;108,6;0;0;
27078;0;0;0;0;0;0;79,2;108,6;0;0;
27086;0;0;0;0;0;0;76,55;116,1;0;0;
27092;0;0;0;0;0;0;73,9;123,6;0;0;
27099;0;0;0;0;0;0;78,5;137,9;0;0;
27107;0;0;0;0;0;0;76,6;147,05;0;0;
27114;0;0;0;0;0;0;70,1;141,9;0;0;
27122;0;0;0;0;0;0;70,1;141,9;0;0;
27129;0;0;0;0;0;0;68,75;151,8;0;0;
27135;0;0;0;0;0;0;67,4;161,7;0;0;
27143;0;0;0;0;0;0;71,75;176,85;0;0;
27150;0;0;0;0;0;0;70,8;186,6;0;0;
27159;0;0;0;0;0;0;65,5;181,2;0;0;
27166;0;0;0;0;0;0;64,8;187,3;0;0;
27173;0;0;0;0;0;0;64,1;193,4;0;0;
27182;0;0;0;0;0;0;64,1;193,4;0;0;
27189;0;0;0;0;0;0;63,5;197,9;0;0;
27196;0;0;0;0;0;0;62,9;202,4;0;0;
27203;0;0;0;0;0;0;62,9;202,4;0;0;
27210;0;0;0;0;0;0;62,35;204,95;0;0;
27217;0;0;0;0;0;0;61,8;207,5;0;0;
27225;0;0;0;0;0;0;61,8;207,5;0;0;
27231;0;0;0;0;0;0;61,35;209,05;0;0;
27239;0;0;0;0;0;0;60,9;210,6;0;0;
27248;0;0;0;0;0;0;56,3;196,3;0;0;
27256;0;0;0;0;0;0;55,9;196,95;0;0;
27263;0;0;0;0;0;0;60,1;211,9;0;0;
27270;0;0;0;0;0;0;64,25;227,1;0;0;
27277;0;0;0;0;0;0;63,95;227,8;0;0;
27284;0;0;0;0;0;0;59,5;213,3;0;0;
27291;0;0;0;0;0;0;59,5;215,1;0;0;
27298;0;0;0;0;0;0;59,5;216,9;0;0;
27306;0;0;0;0;0;0;59,5;216,9;0;0;
27312;0;0;0;0;0;0;59,45;217,6;0;0;
27320;0;0;0;0;0;0;59,4;218,3;0;0;
27330;0;0;0;0;0;0;59,4;218,3;0;0;
27337;0;0;0;0;0;0;59,35;217,95;0;0;
27344;0;0;0;0;0;0;59,3;217,6;0;0;
27351;0;0;0;0;0;0;59,3;217,6;0;0;
27358;0;0;0;0;0;0;59,35;217,85;0;0;
27366;0;0;0;0;0;0;59,4;218,1;0;0;
27374;0;0;0;0;0;0;59,4;218,1;0;0;
27383;0;0;0;0;0;0;59,4;218,3;0;0;
27393;0;0;0;0;0;0;59,4;218,5;0;0;
27401;0;0;0;0;0;0;63,65;233,85;0;0;
27409;0;0;0;0;0;0;63,7;234,25;0;0;
27418;0;0;0;0;0;0;59,5;219,3;0;0;
27426;0;0;0;0;0;0;59,6;220,15;0;0;
27432;0;0;0;0;0;0;59,7;221;0;0;
27440;0;0;0;0;0;0;63,9;236,8;0;0;
27447;0;0;0;0;0;0;63,75;235,65;0;0;
27456;0;0;0;0;0;0;59,4;218,7;0;0;
27463;0;0;0;0;0;0;63,65;234,6;0;0;
27471;0;0;0;0;0;0;63,6;234,15;0;0;
27480;0;0;0;0;0;0;59,3;217,8;0;0;
27487;0;0;0;0;0;0;63,5;233,5;0;0;
27495;0;0;0;0;0;0;63,45;233,6;0;0;
27502;0;0;0;0;0;0;59,2;218;0;0;
27508;0;0;0;0;0;0;63,35;233,45;0;0;
27515;0;0;0;0;0;0;63,25;233,7;0;0;
27523;0;0;0;0;0;0;59;218,5;0;0;
27529;0;0;0;0;0;0;63,25;234,7;0;0;
27537;0;0;0;0;0;0;63,3;235,9;0;0;
27544;0;0;0;0;0;0;59,1;220,9;0;0;
27552;0;0;0;0;0;0;59,1;221,15;0;0;
27559;0;0;0;0;0;0;59,1;221,4;0;0;
27568;0;0;0;0;0;0;59,1;221,4;0;0;
27576;0;0;0;0;0;0;59;220,6;0;0;
27584;0;0;0;0;0;0;58,9;219,8;0;0;
27590;0;0;0;0;0;0;58,95;220;0;0;
27598;0;0;0;0;0;0;59;220,2;0;0;
27606;0;0;0;0;0;0;59;220,2;0;0;
27613;0;0;0;0;0;0;59;220,35;0;0;
27619;0;0;0;0;0;0;59;220,5;0;0;
27629;0;0;0;0;0;0;59;220,5;0;0;
27636;0;0;0;0;0;0;59;220,5;0;0;
27643;0;0;0;0;0;0;59;220,5;0;0;
27649;0;0;0;0;0;0;59;220,5;0;0;
27656;0;0;0;0;0;0;59,05;220,9;0;0;
27663;0;0;0;0;0;0;59,1;221,3;0;0;
27672;0;0;0;0;0;0;59,1;221,3;0;0;
27679;0;0;0;0;0;0;59;220,7;0;0;
27686;0;0;0;0;0;0;58,9;220,1;0;0;
27695;0;0;0;0;0;0;58,9;220,1;0;0;
27702;0;0;0;0;0;0;58,85;220,15;0;0;
27709;0;0;0;0;0;0;58,8;220,2;0;0;
27717;0;0;0;0;0;0;58,8;220,2;0;0;
27725;0;0;0;0;0;0;58,8;220,4;0;0;
27733;0;0;0;0;0;0;58,8;220,6;0;0;
27742;0;0;0;0;0;0;58,7;219,8;0;0;
27749;0;0;0;0;0;0;58,6;219;0;0;
27756;0;0;0;0;0;0;58,6;219;0;0;
27763;0;0;0;0;0;0;58,55;218,3;0;0;
27769;0;0;0;0;0;0;58,5;217,6;0;0;
27782;0;0;0;0;0;0;58,5;217,6;0;0;
27789;0;0;0;0;0;0;58,5;218,05;0;0;
27796;0;0;0;0;0;0;58,5;218,5;0;0;
27803;0;0;0;0;0;0;62,7;234,35;0;0;
27811;0;0;0;0;0;0;62,7;234,35;0;0;
27818;0;0;0;0;0;0;58,5;218,5;0;0;
27826;0;0;0;0;0;0;62,7;234,4;0;0;
27833;0;0;0;0;0;0;62,75;234,7;0;0;
27843;0;0;0;0;0;0;58,6;219,1;0;0;
