Time;EMG1;EMG2;EMG3;EMG4;EMG1_F;EMG2_F;EMG3_F;EMG4_F;Note_R;Note_V;;Level 4;Joueur;Score;Notes hit;% Reussite R;Offset EMG1;Onset EMG1;% Reussite V;Offset EMG2;Onset EMG2
7;0;0;0;0;0;0;956,25;42,95;0;0;;;1;600;6;100;1023;0,65;0;0;148,1025
15;0;0;0;0;0;0;956,25;40,7;0;0;;;2;0;0;0;0;0,65;0;0;0,65
21;0;0;0;0;0;0;956,3;39,25;0;0;
26;0;0;0;0;0;0;956,35;37,8;0;0;
31;0;0;0;0;0;0;956,35;36,75;0;0;
37;0;0;0;0;0;0;956,35;35,7;0;0;
43;0;0;0;0;0;0;956,3;35,25;0;0;
48;0;0;0;0;0;0;956,25;35,6;0;0;
55;0;0;0;0;0;0;956,2;35,95;0;0;
67;0;0;0;0;0;0;956,15;36,3;0;0;
75;0;0;0;0;0;0;956,15;37,65;0;0;
81;0;0;0;0;0;0;956,15;39;0;0;
87;0;0;0;0;0;0;956,15;40,35;0;0;
92;0;0;0;0;0;0;956,2;42,35;0;0;
98;0;0;0;0;0;0;956,25;44,35;0;0;
102;0;0;0;0;0;0;956,3;46,35;0;0;
108;0;0;0;0;0;0;956,35;48,35;0;0;
114;0;0;0;0;0;0;956,35;49,65;0;0;
118;0;0;0;0;0;0;956,35;50,95;0;0;
124;0;0;0;0;0;0;956,35;52,25;0;0;
129;0;0;0;0;0;0;956,35;53,55;0;0;
133;0;0;0;0;0;0;956,3;54,85;0;0;
138;0;0;0;0;0;0;956,25;56,15;0;0;
144;0;0;0;0;0;0;956,2;57,45;0;0;
148;0;0;0;0;0;0;956,2;58,35;0;0;
154;0;0;0;0;0;0;956,2;59,1;0;0;
160;0;0;0;0;0;0;956,2;59,85;0;0;
165;0;0;0;0;0;0;956,2;59,8;0;0;
170;0;0;0;0;0;0;956,2;59,75;0;0;
175;0;0;0;0;0;0;956,25;59,15;0;0;
179;0;0;0;0;0;0;956,3;58,1;0;0;
186;0;0;0;0;0;0;956,35;57,05;0;0;
193;0;0;0;0;0;0;956,4;56;0;0;
198;0;0;0;0;0;0;956,35;54,45;0;0;
203;0;0;0;0;0;0;956,3;52,9;0;0;
208;0;0;0;0;0;0;956,25;51,35;0;0;
215;0;0;0;0;0;0;956,2;49,8;0;0;
220;0;0;0;0;0;0;956,2;48,25;0;0;
226;0;0;0;0;0;0;956,2;46,7;0;0;
232;0;0;0;0;0;0;956,2;45,15;0;0;
236;0;0;0;0;0;0;956,2;43,6;0;0;
240;0;0;0;0;0;0;956,2;41,55;0;0;
244;0;0;0;0;0;0;956,2;39,5;0;0;
250;0;0;0;0;0;0;956,2;37,45;0;0;
257;0;0;0;0;0;0;956,2;35,4;0;0;
260;0;0;0;0;0;0;956,25;32,85;0;0;
265;0;0;0;0;0;0;956,3;30,3;0;0;
271;0;0;0;0;0;0;956,35;27,75;0;0;
276;0;0;0;0;0;0;956,4;25,2;0;0;
280;0;0;0;0;0;0;956,35;23,11;0;0;
284;0;0;0;0;0;0;956,3;21,02;0;0;
288;0;0;0;0;0;0;956,25;18,93;1;0;
292;0;0;0;0;0;0;956,2;16,84;1;0;
297;0;0;0;0;0;0;956,2;15;1;0;
301;0;0;0;0;0;0;956,2;13,16;1;0;
304;0;0;0;0;0;0;956,2;11,57;1;0;
308;0;0;0;0;0;0;956,2;9,98;1;0;
313;0;0;0;0;0;0;956,2;8,84;1;0;
318;0;0;0;0;0;0;956,2;7,7;1;0;
322;0;0;0;0;0;0;956,2;6,56;1;0;
327;0;0;0;0;0;0;956,25;5,32;1;0;
331;0;0;0;0;0;0;956,3;4,73;1;0;
337;0;0;0;0;0;0;956,35;4,14;1;0;
343;0;0;0;0;0;0;956,4;3,55;1;0;
348;0;0;0;0;0;0;956,4;3,3;1;0;
353;0;0;0;0;0;0;956,35;3,7;1;0;
359;0;0;0;0;0;0;956,3;4,1;1;0;
365;0;0;0;0;0;0;956,25;4,5;1;0;
370;0;0;0;0;0;0;956,25;4,8;1;0;
374;0;0;0;0;0;0;956,3;5,19;1;0;
380;0;0;0;0;0;0;956,35;5,58;1;0;
384;0;0;0;0;0;0;956,4;5,97;1;0;
389;0;0;0;0;0;0;956,4;7,71;1;0;
396;0;0;0;0;0;0;956,4;9,45;1;0;
402;0;0;0;0;0;0;956,4;11,19;1;0;
410;0;0;0;0;0;0;956,4;13,03;1;0;
415;0;0;0;0;0;0;956,4;14,87;1;0;
420;0;0;0;0;0;0;956,4;16,71;1;0;
424;0;0;0;0;0;0;956,4;18,55;1;0;
430;0;0;0;0;0;0;956,45;20,04;1;0;
434;0;0;0;0;0;0;956,45;21,63;1;0;
438;0;0;0;0;0;0;956,45;23,22;1;0;
443;0;0;0;0;0;0;956,45;24,81;1;0;
450;0;0;0;0;0;0;956,45;26,4;1;0;
455;0;0;0;0;0;0;956,45;28,4;1;0;
460;0;0;0;0;0;0;956,45;30,4;1;0;
465;0;0;0;0;0;0;956,45;32,4;1;0;
473;0;0;0;0;0;0;956,45;34,4;1;0;
477;0;0;0;0;0;0;956,4;36,05;1;0;
481;0;0;0;0;0;0;956,35;37,7;1;0;
486;0;0;0;0;0;0;956,3;39,35;1;0;
490;0;0;0;0;0;0;956,25;41;1;0;
494;0;0;0;0;0;0;956,25;41,45;1;0;
498;0;0;0;0;0;0;956,25;41,9;1;0;
503;0;0;0;0;0;0;956,25;42,35;1;0;
508;0;0;0;0;0;0;956,25;42,45;1;0;
513;0;0;0;0;0;0;956,25;42,55;1;0;
517;0;0;0;0;0;0;956,25;41,95;1;0;
522;0;0;0;0;0;0;956,25;41,35;1;0;
527;0;0;0;0;0;0;956,2;41,1;1;0;
532;0;0;0;0;0;0;956,15;40,85;1;0;
536;0;0;0;0;0;0;956,1;40,15;1;0;
540;0;0;0;0;0;0;956,05;39,45;1;0;
545;0;0;0;0;0;0;956;38,75;1;0;
551;0;0;0;0;0;0;956;37,3;1;0;
557;0;0;0;0;0;0;956;35,85;1;0;
560;0;0;0;0;0;0;956;33,8;1;0;
563;0;0;0;0;0;0;956;31,75;1;0;
578;0;0;0;0;0;0;956;30,15;1;0;
583;0;0;0;0;0;0;956;28,3;1;0;
587;0;0;0;0;0;0;956;26,45;1;0;
591;0;0;0;0;0;0;956;24,6;1;0;
603;0;0;0;0;0;0;956;22,6;0;0;
612;0;0;0;0;0;0;956;21,26;0;0;
617;0;0;0;0;0;0;956;19,92;0;0;
623;0;0;0;0;0;0;956,05;18,73;0;0;
630;0;0;0;0;0;0;956,1;17,54;0;0;
634;0;0;0;0;0;0;956,15;17,05;0;0;
640;0;0;0;0;0;0;956,2;16,56;0;0;
646;0;0;0;0;0;0;956,2;15,32;0;0;
650;0;0;0;0;0;0;956,2;14,08;0;0;
657;0;0;0;0;0;0;956,2;13,29;0;0;
665;0;0;0;0;0;0;956,2;12,5;0;0;
674;0;0;0;0;0;0;956,25;11,7;0;0;
682;0;0;0;0;0;0;956,3;10,9;0;0;
690;0;0;0;0;0;0;956,3;9,85;0;1;
696;0;0;0;0;0;0;956,3;9,4;0;1;
702;0;0;0;0;0;0;956,3;8,95;0;1;
708;0;0;0;0;0;0;956,35;8,6;0;1;
714;0;0;0;0;0;0;956,4;8,5;0;1;
720;0;0;0;0;0;0;956,45;8,4;0;1;
726;0;0;0;0;0;0;956,5;8,3;0;1;
732;0;0;0;0;0;0;956,5;8,75;0;1;
737;0;0;0;0;0;0;956,5;8,54;0;1;
743;0;0;0;0;0;0;956,5;8,33;0;1;
749;0;0;0;0;0;0;956,45;7,97;0;1;
754;0;0;0;0;0;0;956,45;7,76;0;1;
760;0;0;0;0;0;0;956,45;7,55;0;1;
765;0;0;0;0;0;0;956,45;7,34;0;1;
772;0;0;0;0;0;0;956,5;7,88;0;1;
777;0;0;0;0;0;0;956,5;8,82;0;1;
782;0;0;0;0;0;0;956,5;9,76;0;1;
788;0;0;0;0;0;0;956,5;10,7;0;1;
795;0;0;0;0;0;0;956,45;10,71;0;1;
801;0;0;0;0;0;0;956,4;10,72;0;1;
810;0;0;0;0;0;0;956,4;10,98;0;1;
815;0;0;0;0;0;0;956,45;11,19;0;1;
831;0;0;0;0;0;0;956,5;11,4;0;1;
839;0;0;0;0;0;0;956,45;11,35;0;1;
846;0;0;0;0;0;0;956,4;11,3;0;1;
851;0;0;0;0;0;0;956,35;11,25;0;1;
857;0;0;0;0;0;0;956,3;11,2;0;1;
864;0;0;0;0;0;0;956,35;10,86;0;1;
868;0;0;0;0;0;0;956,4;10,52;0;1;
874;0;0;0;0;0;0;956,45;10,18;0;1;
879;0;0;0;0;0;0;956,45;9,68;0;1;
883;0;0;0;0;0;0;956,4;9,03;0;1;
895;0;0;0;0;0;0;956,35;8,38;0;1;
901;0;0;0;0;0;0;956,35;9,23;0;1;
905;0;0;0;0;0;0;956,35;10,08;0;1;
912;0;0;0;0;0;0;956,4;10,53;0;1;
921;0;0;0;0;0;0;956,45;10,98;0;1;
927;0;0;0;0;0;0;956,45;11,23;0;1;
933;0;0;0;0;0;0;956,45;12,42;0;1;
939;0;0;0;0;0;0;956,45;13,61;0;1;
945;0;0;0;0;0;0;956,5;14,1;0;1;
950;0;0;0;0;0;0;956,5;14,64;0;1;
957;0;0;0;0;0;0;956,5;15,18;0;1;
964;0;0;0;0;0;0;956,55;15,88;0;1;
970;0;0;0;0;0;0;956,55;16,78;0;1;
976;0;0;0;0;0;0;956,55;17,68;0;1;
981;0;0;0;0;0;0;956,55;18,58;0;1;
986;0;0;0;0;0;0;956,5;18,57;0;1;
992;0;0;0;0;0;0;956,45;18,56;0;1;
997;0;0;0;0;0;0;956,4;18,55;0;1;
1003;0;0;0;0;0;0;956,4;18,7;0;1;
1008;0;0;0;0;0;0;956,4;18,65;0;1;
1014;0;0;0;0;0;0;956,4;18,6;0;1;
1021;0;0;0;0;0;0;956,35;17,05;0;1;
1028;0;0;0;0;0;0;956,3;15,5;0;1;
1032;0;0;0;0;0;0;956,25;14,25;0;1;
1035;0;0;0;0;0;0;956,2;13;0;1;
1044;0;0;0;0;0;0;956,2;11,95;0;1;
1050;0;0;0;0;0;0;956,25;10,55;0;0;
1053;0;0;0;0;0;0;956,3;9,15;0;0;
1058;0;0;0;0;0;0;956,3;8,45;0;0;
1064;0;0;0;0;0;0;956,3;7,75;0;0;
1069;0;0;0;0;0;0;956,25;8,25;1;0;
1073;0;0;0;0;0;0;956,2;8,75;1;0;
1079;0;0;0;0;0;0;956,2;9,05;1;0;
1084;0;0;0;0;0;0;956,2;9,35;1;0;
1090;0;0;0;0;0;0;956,2;9,65;1;0;
1096;0;0;0;0;0;0;956,25;10,5;1;0;
1100;0;0;0;0;0;0;956,3;11,35;1;0;
1106;0;0;0;0;0;0;956,35;12,2;1;0;
1113;0;0;0;0;0;0;956,35;12,5;1;0;
1117;0;0;0;0;0;0;956,35;13;1;0;
1123;0;0;0;0;0;0;956,35;13,5;1;0;
1138;0;0;0;0;0;0;956,35;14;1;0;
1146;0;0;0;0;0;0;956,4;14,85;1;0;
1152;0;0;0;0;0;0;956,45;15,4;0;0;
1158;0;0;0;0;0;0;956,5;15,56;0;0;
1162;0;0;0;0;0;0;956,55;15,72;0;0;
1170;0;0;0;0;0;0;956,55;16,23;0;0;
1177;0;0;0;0;0;0;956,5;16,84;0;0;
1183;0;0;0;0;0;0;956,45;17,45;0;0;
1191;0;0;0;0;0;0;956,4;18,06;0;0;
1196;0;0;0;0;0;0;956,4;17,47;0;0;
1202;0;0;0;0;0;0;956,4;17,23;0;0;
1207;0;0;0;0;0;0;956,4;16,99;0;0;
1214;0;0;0;0;0;0;956,4;16,75;0;0;
1219;0;0;0;0;0;0;956,4;16,51;0;0;
1224;0;0;0;0;0;0;956,35;16,37;0;0;
1229;0;0;0;0;0;0;956,3;16,23;0;0;
1234;0;0;0;0;0;0;956,25;16,09;0;0;
1240;0;0;0;0;0;0;956,3;16,65;0;0;
1246;0;0;0;0;0;0;956,35;17,21;0;0;
1252;0;0;0;0;0;0;956,4;17,77;0;0;
1260;0;0;0;0;0;0;956,45;18,33;0;0;
1266;0;0;0;0;0;0;956,45;18,24;0;0;
1271;0;0;0;0;0;0;956,45;18,15;1;0;
1277;0;0;0;0;0;0;956,45;18,45;1;0;
1289;0;0;0;0;0;0;956,4;17,95;1;0;
1297;0;0;0;0;0;0;956,35;17,45;1;0;
1304;0;0;0;0;0;0;956,35;16,85;1;0;
1309;0;0;0;0;0;0;956,35;16,44;1;0;
1314;0;0;0;0;0;0;956,35;16,03;1;0;
1319;0;0;0;0;0;0;956,35;15,62;1;0;
1323;0;0;0;0;0;0;956,35;14,61;1;0;
1327;0;0;0;0;0;0;956,35;13,6;1;0;
1333;0;0;0;0;0;0;956,35;12,59;1;0;
1339;0;0;0;0;0;0;956,35;11,58;1;0;
1344;0;0;0;0;0;0;956,35;10,57;1;0;
1347;0;0;0;0;0;0;956,35;9,66;1;0;
1350;0;0;0;0;0;0;956,35;8,75;1;0;
1356;0;0;0;0;0;0;956,3;7,69;1;0;
1360;0;0;0;0;0;0;956,25;6,63;1;0;
1365;0;0;0;0;0;0;956,25;5,93;1;0;
1368;0;0;0;0;0;0;956,25;5,23;1;0;
1372;0;0;0;0;0;0;956,25;4,83;1;0;
1377;0;0;0;0;0;0;956,25;4,43;1;0;
1381;0;0;0;0;0;0;956,25;4,03;1;0;
1387;0;0;0;0;0;0;956,3;4,43;1;0;
1391;0;0;0;0;0;0;956,35;4,68;1;0;
1394;0;0;0;0;0;0;956,4;4,93;1;0;
1400;0;0;0;0;0;0;956,45;4,99;1;0;
1405;0;0;0;0;0;0;956,5;5,05;1;0;
1409;0;0;0;0;0;0;956,5;5,26;1;0;
1414;0;0;0;0;0;0;956,5;5,72;1;0;
1421;0;0;0;0;0;0;956,5;6,18;0;0;
1428;0;0;0;0;0;0;956,5;6,64;0;0;
1437;0;0;0;0;0;0;956,55;7,7;0;0;
1442;0;0;0;0;0;0;956,6;8,76;0;0;
1449;0;0;0;0;0;0;956,65;9,72;0;0;
1452;0;0;0;0;0;0;956,65;9,78;0;0;
1457;0;0;0;0;0;0;956,65;9,84;0;0;
1462;0;0;0;0;0;0;956,65;9,9;0;0;
1469;0;0;0;0;0;0;956,6;9,6;0;1;
1473;0;0;0;0;0;0;956,55;9,29;0;1;
1479;0;0;0;0;0;0;956,5;8,98;0;1;
1484;0;0;0;0;0;0;956,45;8,67;0;1;
1491;0;0;0;0;0;0;956,4;8,36;0;1;
1499;0;0;0;0;0;0;956,35;8,65;0;1;
1505;0;0;0;0;0;0;956,3;9,09;0;1;
1511;0;0;0;0;0;0;956,25;9,53;0;1;
1517;0;0;0;0;0;0;956,2;9,72;0;1;
1521;0;0;0;0;0;0;956,15;9,91;0;1;
1528;0;0;0;0;0;0;956,15;9,95;0;1;
1535;0;0;0;0;0;0;956,15;9,99;0;1;
1542;0;0;0;0;0;0;956,15;9,63;0;1;
1554;0;0;0;0;0;0;956,15;9,27;0;1;
1558;0;0;0;0;0;0;956,1;8,77;0;1;
1562;0;0;0;0;0;0;956,05;8,27;0;1;
1565;0;0;0;0;0;0;956;7,77;0;1;
1569;0;0;0;0;0;0;956;8,17;0;1;
1573;0;0;0;0;0;0;956;8,57;0;1;
1579;0;0;0;0;0;0;956;8,87;0;1;
1594;0;0;0;0;0;0;956;9,17;0;1;
1602;0;0;0;0;0;0;956;9,48;0;1;
1607;0;0;0;0;0;0;956;9,38;0;1;
1611;0;0;0;0;0;0;956;9,28;0;1;
1615;0;0;0;0;0;0;956;9,18;0;1;
1620;0;0;0;0;0;0;956;8,48;0;1;
1625;0;0;0;0;0;0;956,05;8,18;0;1;
1631;0;0;0;0;0;0;956,1;7,88;0;1;
1637;0;0;0;0;0;0;956,15;7,83;0;1;
1645;0;0;0;0;0;0;956,15;7,63;0;1;
1650;0;0;0;0;0;0;956,15;7,43;1;1;
1656;0;0;0;0;0;0;956,15;7,23;1;1;
1661;0;0;0;0;0;0;956,15;7,43;1;1;
1665;0;0;0;0;0;0;956,15;8,14;1;1;
1669;0;0;0;0;0;0;956,15;8,39;1;1;
1676;0;0;0;0;0;0;956,15;8,64;0;1;
1684;0;0;0;0;0;0;956,15;8,89;0;1;
1689;0;0;0;0;0;0;956,2;10,54;0;1;
1693;0;0;0;0;0;0;956,25;12,19;0;1;
1700;0;0;0;0;0;0;956,3;13,94;0;1;
1705;0;0;0;0;0;0;956,35;15,69;0;1;
1709;0;0;0;0;0;0;956,4;16,69;0;1;
1713;0;0;0;0;0;0;956,45;18,1;0;1;
1718;0;0;0;0;0;0;956,5;19,51;0;1;
1725;0;0;0;0;0;0;956,55;20,92;0;1;
1730;0;0;0;0;0;0;956,55;21,78;0;1;
1737;0;0;0;0;0;0;956,5;22,24;0;1;
1747;0;0;0;0;0;0;956,45;22,7;0;1;
1752;0;0;0;0;0;0;956,45;23,4;0;1;
1758;0;0;0;0;0;0;956,5;24,25;0;1;
1763;0;0;0;0;0;0;956,55;25,1;0;1;
1771;0;0;0;0;0;0;956,6;25,95;0;1;
1777;0;0;0;0;0;0;956,6;26,7;0;1;
1782;0;0;0;0;0;0;956,6;26,94;0;1;
1790;0;0;0;0;0;0;956,6;27,18;0;1;
1794;0;0;0;0;0;0;956,6;27,02;0;1;
1797;0;0;0;0;0;0;956,6;26,86;0;1;
1805;0;0;0;0;0;0;956,55;25,3;0;1;
1812;0;0;0;0;0;0;956,5;23,74;0;1;
1816;0;0;0;0;0;0;956,45;21,59;0;1;
1822;0;0;0;0;0;0;956,4;19,44;0;1;
1830;0;0;0;0;0;0;956,35;18,04;0;0;
1838;0;0;0;0;0;0;956,35;17,09;0;0;
1843;0;0;0;0;0;0;956,35;16,14;0;0;
1851;0;0;0;0;0;0;956,35;15,19;0;0;
1856;0;0;0;0;0;0;956,4;14,79;0;0;
1861;0;0;0;0;0;0;956,45;14,64;0;0;
1866;0;0;0;0;0;0;956,5;14,49;0;0;
1872;0;0;0;0;0;0;956,5;14,1;0;0;
1878;0;0;0;0;0;0;956,45;13,16;0;0;
1883;0;0;0;0;0;0;956,4;12,22;0;0;
1900;0;0;0;0;0;0;956,35;11,28;0;0;
1906;0;0;0;0;0;0;956,4;10,29;0;0;
1911;0;0;0;0;0;0;956,45;9,3;0;0;
1916;0;0;0;0;0;0;956,5;8,31;0;0;
1920;0;0;0;0;0;0;956,55;7,72;0;0;
1924;0;0;0;0;0;0;956,6;7,13;0;0;
1930;0;0;0;0;0;0;956,65;6,54;0;0;
1938;0;0;0;0;0;0;956,7;5,95;0;0;
1942;0;0;0;0;0;0;956,7;6,04;0;0;
1947;0;0;0;0;0;0;956,7;6,13;0;0;
1952;0;0;0;0;0;0;956,7;6,22;0;0;
1956;0;0;0;0;0;0;956,65;5,86;0;0;
1963;0;0;0;0;0;0;956,6;5,71;0;0;
1967;0;0;0;0;0;0;956,55;5,56;0;0;
1974;0;0;0;0;0;0;956,5;5,41;0;0;
1981;0;0;0;0;0;0;956,45;5,01;0;0;
1986;0;0;0;0;0;0;956,45;6,41;0;0;
1992;0;0;0;0;0;0;956,45;7,81;0;0;
1998;0;0;0;0;0;0;956,5;9,76;0;0;
2003;0;0;0;0;0;0;956,55;11,71;0;0;
2008;0;0;0;0;0;0;956,6;12,91;0;0;
2012;0;0;0;0;0;0;956,6;14,26;0;0;
2018;0;0;0;0;0;0;956,6;15,61;0;0;
2025;0;0;0;0;0;0;956,6;16,96;0;0;
2029;0;0;0;0;0;0;956,55;17,36;0;0;
2035;0;0;0;0;0;0;956,5;17,76;0;0;
2041;0;0;0;0;0;0;956,45;18,16;0;0;
2048;0;0;0;0;0;0;956,4;18,56;0;0;
2055;0;0;0;0;0;0;956,45;19,06;0;0;
2060;0;0;0;0;0;0;956,5;19,56;0;0;
2068;0;0;0;0;0;0;956,55;20,06;0;0;
2073;0;0;0;0;0;0;956,55;21,31;0;0;
2077;0;0;0;0;0;0;956,55;22,35;0;0;
2083;0;0;0;0;0;0;956,55;23,39;0;0;
2089;0;0;0;0;0;0;956,55;24,43;0;0;
2094;0;0;0;0;0;0;956,55;25,37;0;0;
2098;0;0;0;0;0;0;956,5;24,51;0;0;
2106;0;0;0;0;0;0;956,45;23,65;0;0;
2112;0;0;0;0;0;0;956,4;22,79;0;0;
2117;0;0;0;0;0;0;956,35;21,53;0;0;
2123;0;0;0;0;0;0;956,3;21,02;0;0;
2131;0;0;0;0;0;0;956,25;20,51;0;0;
2137;0;0;0;0;0;0;956,25;19,7;0;0;
2142;0;0;0;0;0;0;956,25;18,89;0;0;
2150;0;0;0;0;0;0;956,3;19,03;0;0;
2155;0;0;0;0;0;0;956,35;19,42;0;0;
2159;0;0;0;0;0;0;956,4;19,81;0;0;
2165;0;0;0;0;0;0;956,45;20,2;0;0;
2169;0;0;0;0;0;0;956,45;20,4;0;0;
2175;0;0;0;0;0;0;956,4;21,75;0;0;
2181;0;0;0;0;0;0;956,35;23,1;0;0;
2188;0;0;0;0;0;0;956,35;23,7;0;0;
2196;0;0;0;0;0;0;956,35;24,3;0;0;
2203;0;0;0;0;0;0;956,4;25,5;0;0;
2211;0;0;0;0;0;0;956,45;26,7;0;0;
2217;0;0;0;0;0;0;956,5;28;0;0;
2221;0;0;0;0;0;0;956,5;28,55;0;0;
2225;0;0;0;0;0;0;956,5;29,1;0;0;
2232;0;0;0;0;0;0;956,5;29,65;0;0;
2236;0;0;0;0;0;0;956,5;30,6;0;0;
2242;0;0;0;0;0;0;956,5;30,2;0;0;
2247;0;0;0;0;0;0;956,5;29,8;0;1;
2257;0;0;0;0;0;0;956,45;29,7;0;1;
2262;0;0;0;0;0;0;956,4;29,15;0;1;
2267;0;0;0;0;0;0;956,35;28,6;0;1;
2272;0;0;0;0;0;0;956,3;27,8;0;1;
2276;0;0;0;0;0;0;956,25;27;0;1;
2280;0;0;0;0;0;0;956,2;26,91;0;1;
2285;0;0;0;0;0;0;956,15;26,82;0;1;
2292;0;0;0;0;0;0;956,15;25,58;0;1;
2300;0;0;0;0;0;0;956,15;24,34;0;1;
2304;0;0;0;0;0;0;956,2;23,55;0;1;
2307;0;0;0;0;0;0;956,25;22,76;0;1;
2314;0;0;0;0;0;0;956,25;21,37;0;1;
2319;0;0;0;0;0;0;956,25;19,98;0;1;
2323;0;0;0;0;0;0;956,25;18,59;0;1;
2327;0;0;0;0;0;0;956,25;17,4;0;1;
2333;0;0;0;0;0;0;956,25;16,21;0;1;
2339;0;0;0;0;0;0;956,25;15,02;0;1;
2353;0;0;0;0;0;0;956,25;13,83;0;1;
2358;0;0;0;0;0;0;956,3;13,39;0;1;
2364;0;0;0;0;0;0;956,35;12,95;0;1;
2368;0;0;0;0;0;0;956,35;12,5;0;1;
2372;0;0;0;0;0;0;956,35;12,5;0;1;
2379;0;0;0;0;0;0;956,35;12,5;0;1;
2384;0;0;0;0;0;0;956,35;12,5;0;1;
2387;0;0;0;0;0;0;956,4;12,86;0;1;
2391;0;0;0;0;0;0;956,45;12,51;0;1;
2395;0;0;0;0;0;0;956,5;12,16;0;1;
2399;0;0;0;0;0;0;956,55;11,81;0;1;
2403;0;0;0;0;0;0;956,6;11,46;0;1;
2408;0;0;0;0;0;0;956,6;10,66;0;1;
2412;0;0;0;0;0;0;956,6;9,86;0;1;
2416;0;0;0;0;0;0;956,6;9,06;0;1;
2422;0;0;0;0;0;0;956,6;8,26;0;1;
2428;0;0;0;0;0;0;956,6;7,46;1;1;
2432;0;0;0;0;0;0;956,6;7,96;1;1;
2436;0;0;0;0;0;0;956,6;8,46;1;1;
2441;0;0;0;0;0;0;956,6;8,96;1;1;
2448;0;0;0;0;0;0;956,6;9,46;1;1;
2452;0;0;0;0;0;0;956,6;10,06;1;1;
2456;0;0;0;0;0;0;956,6;10,66;1;1;
2462;0;0;0;0;0;0;956,65;11,27;1;1;
2468;0;0;0;0;0;0;956,7;11,88;1;1;
2474;0;0;0;0;0;0;956,7;12,28;1;1;
2477;0;0;0;0;0;0;956,7;12,68;1;1;
2482;0;0;0;0;0;0;956,65;12,72;1;1;
2489;0;0;0;0;0;0;956,6;12,76;1;1;
2494;0;0;0;0;0;0;956,55;13,9;1;1;
2499;0;0;0;0;0;0;956,5;15,04;1;1;
2505;0;0;0;0;0;0;956,45;16,18;1;1;
2511;0;0;0;0;0;0;956,4;17,32;1;1;
2516;0;0;0;0;0;0;956,35;18,36;1;1;
2520;0;0;0;0;0;0;956,3;19,4;1;1;
2525;0;0;0;0;0;0;956,25;20,44;1;1;
2529;0;0;0;0;0;0;956,2;21,48;1;1;
2533;0;0;0;0;0;0;956,2;21,77;1;1;
2538;0;0;0;0;0;0;956,2;21,26;1;1;
2542;0;0;0;0;0;0;956,2;20,75;1;1;
2548;0;0;0;0;0;0;956,2;20,24;0;1;
2557;0;0;0;0;0;0;956,15;20,23;0;1;
2565;0;0;0;0;0;0;956,15;19,73;0;1;
2567;0;0;0;0;0;0;956,15;19,23;0;1;
2570;0;0;0;0;0;0;956,15;18,73;0;1;
2574;0;0;0;0;0;0;956,2;18,44;0;1;
2578;0;0;0;0;0;0;956,25;18,15;0;1;
2580;0;0;0;0;0;0;956,25;18,21;0;1;
2583;0;0;0;0;0;0;956,25;18,27;0;1;
2588;0;0;0;0;0;0;956,25;17,23;0;1;
2593;0;0;0;0;0;0;956,25;16,19;0;1;
2597;0;0;0;0;0;0;956,25;15,15;0;1;
2600;0;0;0;0;0;0;956,3;13,86;0;1;
2603;0;0;0;0;0;0;956,35;12,67;0;1;
2609;0;0;0;0;0;0;956,4;11,48;0;0;
2612;0;0;0;0;0;0;956,45;10,29;0;0;
2616;0;0;0;0;0;0;956,5;9,1;0;0;
2619;0;0;0;0;0;0;956,55;7,91;0;0;
2622;0;0;0;0;0;0;956,55;7,31;0;0;
2626;0;0;0;0;0;0;956,55;6,71;0;0;
2629;0;0;0;0;0;0;956,55;6,11;0;0;
2634;0;0;0;0;0;0;956,55;5,51;0;0;
2639;0;0;0;0;0;0;956,5;5,4;0;0;
2642;0;0;0;0;0;0;956,5;5,65;0;0;
2645;0;0;0;0;0;0;956,5;5,9;0;0;
2662;0;0;0;0;0;0;956,5;6,15;0;0;
2669;0;0;0;0;0;0;956,5;6,75;0;0;
2676;0;0;0;0;0;0;956,55;7;0;0;
2682;0;0;0;0;0;0;956,6;7,25;0;0;
2688;0;0;0;0;0;0;956,6;7,75;0;0;
2692;0;0;0;0;0;0;956,6;8,25;0;0;
2697;0;0;0;0;0;0;956,6;8,75;0;0;
2704;0;0;0;0;0;0;956,55;9,5;0;0;
2708;0;0;0;0;0;0;956,55;9,6;0;0;
2713;0;0;0;0;0;0;956,55;9,7;0;0;
2720;0;0;0;0;0;0;956,55;9,8;0;0;
2724;0;0;0;0;0;0;956,55;9,9;0;0;
2729;0;0;0;0;0;0;956,5;9,94;0;0;
2737;0;0;0;0;0;0;956,5;10,19;0;0;
2743;0;0;0;0;0;0;956,5;10,44;0;0;
2750;0;0;0;0;0;0;956,5;10,69;0;0;
2756;0;0;0;0;0;0;956,5;12,09;0;0;
2762;0;0;0;0;0;0;956,5;13,49;0;0;
2769;0;0;0;0;0;0;956,45;14,53;0;0;
2774;0;0;0;0;0;0;956,4;15,37;0;0;
2779;0;0;0;0;0;0;956,35;16,21;0;0;
2785;0;0;0;0;0;0;956,3;16,7;0;0;
2791;0;0;0;0;0;0;956,25;17,19;0;0;
2799;0;0;0;0;0;0;956,25;16,78;0;0;
2805;0;0;0;0;0;0;956,3;16,12;0;0;
2816;0;0;0;0;0;0;956,35;15,46;0;0;
2822;0;0;0;0;0;0;956,35;14,91;0;0;
2826;0;0;0;0;0;0;956,35;14,36;0;0;
2833;0;0;0;0;0;0;956,3;14,46;1;0;
2837;0;0;0;0;0;0;956,25;14,36;1;0;
2840;0;0;0;0;0;0;956,2;14,26;1;0;
2847;0;0;0;0;0;0;956,15;14,16;1;0;
2854;0;0;0;0;0;0;956,15;14,12;1;0;
2857;0;0;0;0;0;0;956,2;14,23;1;0;
2861;0;0;0;0;0;0;956,25;14,34;1;0;
2865;0;0;0;0;0;0;956,3;14,45;1;0;
2869;0;0;0;0;0;0;956,35;13,41;1;0;
2875;0;0;0;0;0;0;956,4;12,37;1;0;
2880;0;0;0;0;0;0;956,4;10,92;1;0;
2884;0;0;0;0;0;0;956,4;9,67;1;0;
2891;0;0;0;0;0;0;956,4;8,42;1;0;
2898;0;0;0;0;0;0;956,4;7,17;1;0;
2901;0;0;0;0;0;0;956,45;6,92;1;0;
2908;0;0;0;0;0;0;956,45;7,57;1;0;
2915;0;0;0;0;0;0;956,45;8,22;1;0;
2919;0;0;0;0;0;0;956,4;8,17;1;0;
2923;0;0;0;0;0;0;956,4;8,01;1;0;
2928;0;0;0;0;0;0;956,4;7,85;1;0;
2933;0;0;0;0;0;0;956,4;7,69;1;0;
2938;0;0;0;0;0;0;956,4;7,73;1;0;
2943;0;0;0;0;0;0;956,4;7,93;1;0;
2947;0;0;0;0;0;0;956,4;8,13;1;0;
2955;0;0;0;0;0;0;956,4;8,33;1;0;
2964;0;0;0;0;0;0;956,35;8,38;1;0;
2971;0;0;0;0;0;0;956,35;8,38;1;0;
2975;0;0;0;0;0;0;956,35;8,38;1;0;
2980;0;0;0;0;0;0;956,35;8,38;1;0;
2986;0;0;0;0;0;0;956,3;9,28;0;0;
2992;0;0;0;0;0;0;956,3;10,59;0;0;
2996;0;0;0;0;0;0;956,3;11,9;0;0;
3003;0;0;0;0;0;0;956,3;13,21;0;0;
3008;0;0;0;0;0;0;956,35;15,17;0;0;
3012;0;0;0;0;0;0;956,35;16,13;0;0;
3017;0;0;0;0;0;0;956,35;17,09;0;0;
3024;0;0;0;0;0;0;956,35;18,05;0;0;
3028;0;0;0;0;0;0;956,4;18,61;0;1;
3033;0;0;0;0;0;0;956,45;19,17;0;1;
3037;0;0;0;0;0;0;956,5;19,73;0;1;
3041;0;0;0;0;0;0;956,55;20,29;0;1;
3048;0;0;0;0;0;0;956,6;20;0;1;
3051;0;0;0;0;0;0;956,65;19,55;0;1;
3060;0;0;0;0;0;0;956,7;19,1;0;1;
3068;0;0;0;0;0;0;956,75;18,65;0;1;
3072;0;0;0;0;0;0;956,75;18,84;0;1;
3075;0;0;0;0;0;0;956,7;19,08;0;1;
3080;0;0;0;0;0;0;956,65;19,32;0;1;
3085;0;0;0;0;0;0;956,6;19,56;0;1;
3090;0;0;0;0;0;0;956,6;19;0;1;
3094;0;0;0;0;0;0;956,6;18,44;0;1;
3100;0;0;0;0;0;0;956,6;17,88;0;1;
3107;0;0;0;0;0;0;956,6;17,32;0;1;
3123;0;0;0;0;0;0;956,6;15,86;0;1;
3130;0;0;0;0;0;0;956,6;14,4;0;1;
3136;0;0;0;0;0;0;956,55;13,1;0;1;
3142;0;0;0;0;0;0;956,5;11,8;0;1;
3147;0;0;0;0;0;0;956,45;11,6;0;1;
3153;0;0;0;0;0;0;956,45;11,7;0;1;
3157;0;0;0;0;0;0;956,45;11,8;0;1;
3162;0;0;0;0;0;0;956,45;11,9;0;1;
3169;0;0;0;0;0;0;956,45;12,85;0;1;
3175;0;0;0;0;0;0;956,45;13,25;0;1;
3180;0;0;0;0;0;0;956,45;13,65;0;1;
3188;0;0;0;0;0;0;956,45;14,05;0;1;
3194;0;0;0;0;0;0;956,5;13,81;0;1;
3198;0;0;0;0;0;0;956,5;13,96;0;1;
3203;0;0;0;0;0;0;956,5;14,11;0;1;
3208;0;0;0;0;0;0;956,5;14,26;0;1;
3214;0;0;0;0;0;0;956,5;14,31;0;1;
3219;0;0;0;0;0;0;956,55;14,36;0;1;
3223;0;0;0;0;0;0;956,6;14,41;0;1;
3228;0;0;0;0;0;0;956,65;14,46;0;1;
3234;0;0;0;0;0;0;956,65;14,76;0;1;
3238;0;0;0;0;0;0;956,6;14,66;0;1;
3241;0;0;0;0;0;0;956,6;14,4;0;1;
3247;0;0;0;0;0;0;956,6;14,14;0;1;
3253;0;0;0;0;0;0;956,6;13,88;0;1;
3258;0;0;0;0;0;0;956,55;13,32;0;1;
3265;0;0;0;0;0;0;956,5;12,52;0;1;
3272;0;0;0;0;0;0;956,45;11,72;0;1;
3276;0;0;0;0;0;0;956,4;10,92;0;1;
3281;0;0;0;0;0;0;956,35;10,67;0;1;
3284;0;0;0;0;0;0;956,3;11,02;0;1;
3289;0;0;0;0;0;0;956,25;11,37;0;1;
3293;0;0;0;0;0;0;956,2;11,72;0;1;
3298;0;0;0;0;0;0;956,2;11,68;0;1;
3303;0;0;0;0;0;0;956,2;12,74;0;1;
3308;0;0;0;0;0;0;956,2;13,8;0;1;
3314;0;0;0;0;0;0;956,2;14,86;0;1;
3318;0;0;0;0;0;0;956,15;15,92;0;1;
3322;0;0;0;0;0;0;956,1;16,98;0;1;
3327;0;0;0;0;0;0;956,1;18,29;0;1;
3331;0;0;0;0;0;0;956,1;19,6;0;1;
3337;0;0;0;0;0;0;956,15;21,31;0;1;
3343;0;0;0;0;0;0;956,2;23,02;0;1;
3347;0;0;0;0;0;0;956,25;24,18;0;1;
3351;0;0;0;0;0;0;956,3;25,34;0;1;
3356;0;0;0;0;0;0;956,35;26,5;0;1;
3361;0;0;0;0;0;0;956,4;27,9;0;1;
3369;0;0;0;0;0;0;956,4;28,95;0;1;
3373;0;0;0;0;0;0;956,4;30;0;1;
3378;0;0;0;0;0;0;956,4;31,05;0;1;
3383;0;0;0;0;0;0;956,4;31,5;0;1;
3388;0;0;0;0;0;0;956,45;31,25;0;0;
3394;0;0;0;0;0;0;956,5;31;0;0;
3399;0;0;0;0;0;0;956,55;30,75;0;0;
3404;0;0;0;0;0;0;956,6;29,4;0;0;
3409;0;0;0;0;0;0;956,65;28,05;0;0;
3412;0;0;0;0;0;0;956,65;26,65;0;0;
3424;0;0;0;0;0;0;956,65;25,25;0;0;
3430;0;0;0;0;0;0;956,65;23,85;0;0;
3435;0;0;0;0;0;0;956,65;21,84;0;0;
3439;0;0;0;0;0;0;956,65;19,83;0;0;
3443;0;0;0;0;0;0;956,65;17,82;0;0;
3450;0;0;0;0;0;0;956,65;15,81;0;0;
3457;0;0;0;0;0;0;956,65;14,46;0;0;
3462;0;0;0;0;0;0;956,65;13,11;0;0;
3467;0;0;0;0;0;0;956,65;11,76;0;0;
3472;0;0;0;0;0;0;956,65;10,46;0;0;
3475;0;0;0;0;0;0;956,7;9,51;0;0;
3481;0;0;0;0;0;0;956,75;8,56;0;0;
3485;0;0;0;0;0;0;956,8;7,61;0;0;
3491;0;0;0;0;0;0;956,85;6,66;0;0;
3494;0;0;0;0;0;0;956,85;6,4;0;0;
3498;0;0;0;0;0;0;956,85;6,14;0;0;
3502;0;0;0;0;0;0;956,85;5,88;0;0;
3506;0;0;0;0;0;0;956,85;5,62;0;0;
3512;0;0;0;0;0;0;956,85;5,36;0;0;
3515;0;0;0;0;0;0;956,85;5,75;0;0;
3519;0;0;0;0;0;0;956,85;6,14;0;0;
3523;0;0;0;0;0;0;956,85;6,53;0;0;
3527;0;0;0;0;0;0;956,8;7,28;0;0;
3532;0;0;0;0;0;0;956,75;8,03;0;0;
3536;0;0;0;0;0;0;956,7;9,28;0;0;
3540;0;0;0;0;0;0;956,65;10,53;0;0;
3545;0;0;0;0;0;0;956,6;11,67;0;0;
3552;0;0;0;0;0;0;956,55;12,81;0;0;
3558;0;0;0;0;0;0;956,5;13,95;0;0;
3563;0;0;0;0;0;0;956,45;14,84;0;0;
3573;0;0;0;0;0;0;956,4;15,73;0;0;
3580;0;0;0;0;0;0;956,35;16,62;0;0;
3583;0;0;0;0;0;0;956,3;16,37;0;0;
3586;0;0;0;0;0;0;956,25;16,12;0;0;
3590;0;0;0;0;0;0;956,2;15,88;0;0;
3596;0;0;0;0;0;0;956,15;15,64;0;0;
3600;0;0;0;0;0;0;956,15;16,2;0;0;
3604;0;0;0;0;0;0;956,15;16,76;0;0;
3611;0;0;0;0;0;0;956,15;17,32;0;0;
3619;0;0;0;0;0;0;956,2;17,28;0;0;
3625;0;0;0;0;0;0;956,2;17,39;0;0;
3630;0;0;0;0;0;0;956,2;17,5;0;0;
3635;0;0;0;0;0;0;956,2;17,61;0;0;
3639;0;0;0;0;0;0;956,2;17,72;0;0;
3643;0;0;0;0;0;0;956,25;17,68;0;0;
3647;0;0;0;0;0;0;956,3;17,64;0;0;
3651;0;0;0;0;0;0;956,35;17,6;0;0;
3654;0;0;0;0;0;0;956,4;17,56;0;0;
3658;0;0;0;0;0;0;956,45;17,52;0;0;
3664;0;0;0;0;0;0;956,5;17,18;0;0;
3668;0;0;0;0;0;0;956,55;16,84;0;0;
3671;0;0;0;0;0;0;956,6;16,5;0;0;
3675;0;0;0;0;0;0;956,65;17,3;0;0;
3680;0;0;0;0;0;0;956,7;18,1;0;0;
3684;0;0;0;0;0;0;956,7;18,3;0;0;
3687;0;0;0;0;0;0;956,7;18,5;0;0;
3691;0;0;0;0;0;0;956,65;17,9;0;0;
3696;0;0;0;0;0;0;956,6;17,3;0;0;
3702;0;0;0;0;0;0;956,55;16,7;0;0;
3707;0;0;0;0;0;0;956,55;16,44;0;0;
3710;0;0;0;0;0;0;956,6;16,03;0;0;
3716;0;0;0;0;0;0;956,65;15,62;0;0;
3720;0;0;0;0;0;0;956,7;15,21;0;0;
3724;0;0;0;0;0;0;956,75;14,8;0;0;
3727;0;0;0;0;0;0;956,7;13,84;0;0;
3730;0;0;0;0;0;0;956,65;12,88;0;0;
3733;0;0;0;0;0;0;956,6;11,92;0;0;
3737;0;0;0;0;0;0;956,55;10,96;0;0;
3742;0;0;0;0;0;0;956,5;10;0;0;
3748;0;0;0;0;0;0;956,45;9,54;0;0;
3752;0;0;0;0;0;0;956,4;9,28;0;0;
3756;0;0;0;0;0;0;956,35;9,02;0;0;
3760;0;0;0;0;0;0;956,3;8,76;0;0;
3767;0;0;0;0;0;0;956,25;8,5;0;0;
3771;0;0;0;0;0;0;956,25;8,99;0;0;
3775;0;0;0;0;0;0;956,25;9,48;0;0;
3779;0;0;0;0;0;0;956,25;9,97;0;0;
3784;0;0;0;0;0;0;956,25;10,46;0;0;
3788;0;0;0;0;0;0;956,25;10,95;0;0;
3791;0;0;0;0;0;0;956,25;10,8;0;0;
3795;0;0;0;0;0;0;956,25;10,65;0;0;
3800;0;0;0;0;0;0;956,25;10,5;0;0;
3804;0;0;0;0;0;0;956,25;10,35;0;0;
3807;0;0;0;0;0;0;956,25;10,2;0;0;
3812;0;0;0;0;0;0;956,25;10,2;0;0;
3816;0;0;0;0;0;0;956,25;10,2;0;0;
3819;0;0;0;0;0;0;956,25;10,2;0;0;
3823;0;0;0;0;0;0;956,25;10,2;0;0;
3827;0;0;0;0;0;0;956,25;10,2;0;0;
3830;0;0;0;0;0;0;956,25;10,2;0;0;
3833;0;0;0;0;0;0;956,3;9,95;0;0;
3836;0;0;0;0;0;0;956,35;9,7;0;0;
3841;0;0;0;0;0;0;956,4;9,45;0;0;
3847;0;0;0;0;0;0;956,45;9,2;0;0;
3852;0;0;0;0;0;0;956,5;8,8;0;0;
3855;0;0;0;0;0;0;956,5;8,35;0;0;
3859;0;0;0;0;0;0;956,5;7,9;0;0;
3862;0;0;0;0;0;0;956,5;7,45;0;0;
3871;0;0;0;0;0;0;956,5;7;0;0;
3875;0;0;0;0;0;0;956,45;6,85;0;0;
3880;0;0;0;0;0;0;956,4;6,5;0;0;
3885;0;0;0;0;0;0;956,35;6,15;0;0;
3890;0;0;0;0;0;0;956,3;5,8;0;0;
3895;0;0;0;0;0;0;956,25;5,45;0;0;
3900;0;0;0;0;0;0;956,25;5,16;0;0;
3904;0;0;0;0;0;0;956,25;4,87;0;0;
3909;0;0;0;0;0;0;956,25;4,58;0;0;
3914;0;0;0;0;0;0;956,25;4,29;0;0;
3918;0;0;0;0;0;0;956,25;4;0;0;
3922;0;0;0;0;0;0;956,25;4,11;0;0;
3924;0;0;0;0;0;0;956,2;4,27;0;0;
3930;0;0;0;0;0;0;956,15;4,43;0;0;
3936;0;0;0;0;0;0;956,1;4,59;0;0;
3939;0;0;0;0;0;0;956,1;4,35;0;0;
3942;0;0;0;0;0;0;956,1;4,11;0;0;
3948;0;0;0;0;0;0;956,15;3,92;0;0;
3952;0;0;0;0;0;0;956,2;3,73;0;0;
3959;0;0;0;0;0;0;956,25;3,54;0;0;
3964;0;0;0;0;0;0;956,25;3,39;0;0;
3969;0;0;0;0;0;0;956,25;3,24;0;0;
3974;0;0;0;0;0;0;956,25;3,29;0;0;
3979;0;0;0;0;0;0;956,25;3,34;0;0;
3983;0;0;0;0;0;0;956,25;3,85;0;0;
3987;0;0;0;0;0;0;956,25;4,36;0;0;
3992;0;0;0;0;0;0;956,25;4,86;0;0;
3996;0;0;0;0;0;0;956,25;5,36;0;0;
4001;0;0;0;0;0;0;956,25;5,86;0;0;
4004;0;0;0;0;0;0;956,25;6,36;0;0;
4009;0;0;0;0;0;0;956,25;6,86;0;0;
4012;0;0;0;0;0;0;956,25;6,96;0;0;
4017;0;0;0;0;0;0;956,25;7,06;0;0;
4023;0;0;0;0;0;0;956,25;7,16;0;0;
4027;0;0;0;0;0;0;956,3;7,56;0;0;
4030;0;0;0;0;0;0;956,3;8,36;0;0;
4035;0;0;0;0;0;0;956,3;9,16;0;0;
4041;0;0;0;0;0;0;956,3;9,96;0;0;
4045;0;0;0;0;0;0;956,3;10,76;0;0;
4049;0;0;0;0;0;0;956,3;11,46;0;0;
4053;0;0;0;0;0;0;956,35;12,12;0;0;
4057;0;0;0;0;0;0;956,4;12,78;0;0;
4062;0;0;0;0;0;0;956,45;13,44;0;0;
4068;0;0;0;0;0;0;956,45;13,95;0;0;
4072;0;0;0;0;0;0;956,45;14;0;0;
4078;0;0;0;0;0;0;956,45;14,05;0;0;
4087;0;0;0;0;0;0;956,45;14,1;0;0;
4091;0;0;0;0;0;0;956,45;13,85;0;0;
4094;0;0;0;0;0;0;956,45;13,6;0;0;
4099;0;0;0;0;0;0;956,45;13,35;0;0;
4103;0;0;0;0;0;0;956,45;13,1;0;0;
4106;0;0;0;0;0;0;956,45;12,85;0;0;
4110;0;0;0;0;0;0;956,45;12,6;0;0;
4113;0;0;0;0;0;0;956,45;12,54;0;0;
4117;0;0;0;0;0;0;956,4;12,18;0;0;
4120;0;0;0;0;0;0;956,35;11,82;0;0;
4126;0;0;0;0;0;0;956,3;11,46;0;0;
4130;0;0;0;0;0;0;956,25;11,1;0;0;
4133;0;0;0;0;0;0;956,2;10,79;0;0;
4137;0;0;0;0;0;0;956,15;10,58;0;0;
4143;0;0;0;0;0;0;956,1;10,37;0;0;
4148;0;0;0;0;0;0;956,05;10,16;0;0;
4151;0;0;0;0;0;0;956;9,95;0;0;
4154;0;0;0;0;0;0;956;9,69;0;0;
4157;0;0;0;0;0;0;956;9,43;0;0;
4161;0;0;0;0;0;0;956;9,17;0;0;
4166;0;0;0;0;0;0;956;8,91;0;0;
4170;0;0;0;0;0;0;956;8,95;0;0;
4173;0;0;0;0;0;0;956,05;8,99;0;0;
4175;0;0;0;0;0;0;956,1;9,03;0;0;
4181;0;0;0;0;0;0;956,15;9,07;0;0;
4186;0;0;0;0;0;0;956,2;9,11;0;0;
4191;0;0;0;0;0;0;956,25;9,15;0;0;
4195;0;0;0;0;0;0;956,25;8,85;0;0;
4199;0;0;0;0;0;0;956,25;8,55;0;0;
4203;0;0;0;0;0;0;956,25;8,25;0;0;
4208;0;0;0;0;0;0;956,25;7,95;0;0;
4211;0;0;0;0;0;0;956,25;7,65;0;0;
4215;0;0;0;0;0;0;956,25;7,3;0;0;
4218;0;0;0;0;0;0;956,25;7,51;0;0;
4221;0;0;0;0;0;0;956,25;7,72;0;0;
4227;0;0;0;0;0;0;956,25;7,93;0;0;
4232;0;0;0;0;0;0;956,25;8,14;0;0;
4236;0;0;0;0;0;0;956,25;8,55;0;0;
4239;0;0;0;0;0;0;956,3;9,16;0;0;
4242;0;0;0;0;0;0;956,35;9,77;0;0;
4247;0;0;0;0;0;0;956,4;10,38;0;0;
4250;0;0;0;0;0;0;956,45;10,99;0;0;
4254;0;0;0;0;0;0;956,45;11,6;0;0;
4259;0;0;0;0;0;0;956,45;12,21;0;0;
4262;0;0;0;0;0;0;956,45;12,67;0;0;
4266;0;0;0;0;0;0;956,45;13,13;0;0;
4270;0;0;0;0;0;0;956,45;13,59;0;0;
4274;0;0;0;0;0;0;956,5;14,2;0;0;
4279;0;0;0;0;0;0;956,55;14,81;0;0;
4283;0;0;0;0;0;0;956,55;15,22;0;0;
4286;0;0;0;0;0;0;956,55;15,63;0;0;
4290;0;0;0;0;0;0;956,55;16,04;0;0;
4296;0;0;0;0;0;0;956,55;16,45;0;0;
4299;0;0;0;0;0;0;956,55;16,3;0;0;
4303;0;0;0;0;0;0;956,6;15,99;0;0;
4308;0;0;0;0;0;0;956,65;15,68;0;0;
4312;0;0;0;0;0;0;956,7;15,37;0;0;
4317;0;0;0;0;0;0;956,75;15,06;0;0;
4323;0;0;0;0;0;0;956,7;14,5;0;0;
4328;0;0;0;0;0;0;956,65;13,94;0;0;
4333;0;0;0;0;0;0;956,6;13,38;0;0;
4339;0;0;0;0;0;0;956,55;12,82;0;0;
4343;0;0;0;0;0;0;956,5;12,26;0;0;
4347;0;0;0;0;0;0;956,5;11,61;0;0;
4351;0;0;0;0;0;0;956,5;11,11;0;0;
4357;0;0;0;0;0;0;956,5;10,61;0;0;
4366;0;0;0;0;0;0;956,5;10,11;0;0;
4372;0;0;0;0;0;0;956,45;10,26;0;0;
4378;0;0;0;0;0;0;956,4;10,41;0;0;
4385;0;0;0;0;0;0;956,4;10,76;0;0;
4389;0;0;0;0;0;0;956,45;12,51;0;0;
4393;0;0;0;0;0;0;956,5;14,26;0;0;
4398;0;0;0;0;0;0;956,55;16,01;0;0;
4402;0;0;0;0;0;0;956,6;17,76;0;0;
4407;0;0;0;0;0;0;956,6;19,67;0;0;
4411;0;0;0;0;0;0;956,6;20,98;0;0;
4417;0;0;0;0;0;0;956,6;22,29;0;0;
4421;0;0;0;0;0;0;956,6;23,6;0;0;
4426;0;0;0;0;0;0;956,65;24,96;0;0;
4431;0;0;0;0;0;0;956,7;24,72;0;0;
4434;0;0;0;0;0;0;956,75;24,48;0;0;
4439;0;0;0;0;0;0;956,8;24,24;0;0;
4446;0;0;0;0;0;0;956,85;24;0;0;
4451;0;0;0;0;0;0;956,85;23,85;0;0;
4456;0;0;0;0;0;0;956,85;25,04;0;0;
4460;0;0;0;0;0;0;956,85;26,23;0;0;
4466;0;0;0;0;0;0;956,85;27,42;0;0;
4471;0;0;0;0;0;0;956,9;27,96;0;0;
4476;0;0;0;0;0;0;956,9;28,45;0;0;
4480;0;0;0;0;0;0;956,9;28,94;0;0;
4485;0;0;0;0;0;0;956,85;28,03;0;0;
4489;0;0;0;0;0;0;956,8;27,12;0;0;
4494;0;0;0;0;0;0;956,75;26,21;0;0;
4498;0;0;0;0;0;0;956,7;24,85;0;0;
4502;0;0;0;0;0;0;956,65;23,49;0;0;
4507;0;0;0;0;0;0;956,6;22,73;0;0;
4512;0;0;0;0;0;0;956,55;21,97;0;0;
4517;0;0;0;0;0;0;956,5;20,21;0;0;
4521;0;0;0;0;0;0;956,45;18,45;0;0;
4528;0;0;0;0;0;0;956,4;18,29;0;0;
4534;0;0;0;0;0;0;956,35;18,13;0;0;
4537;0;0;0;0;0;0;956,35;18,28;0;0;
4542;0;0;0;0;0;0;956,35;18,43;0;0;
4546;0;0;0;0;0;0;956,35;18,58;0;0;
4552;0;0;0;0;0;0;956,35;17,39;0;0;
4558;0;0;0;0;0;0;956,35;16,2;0;0;
4562;0;0;0;0;0;0;956,35;15,01;0;0;
4565;0;0;0;0;0;0;956,35;13,82;0;0;
4573;0;0;0;0;0;0;956,4;12,68;0;0;
4577;0;0;0;0;0;0;956,45;11,54;0;0;
4581;0;0;0;0;0;0;956,5;10,45;0;0;
4585;0;0;0;0;0;0;956,55;9,36;0;0;
4590;0;0;0;0;0;0;956,6;8,27;0;0;
4597;0;0;0;0;0;0;956,65;7,63;0;0;
4604;0;0;0;0;0;0;956,7;6,68;0;0;
4608;0;0;0;0;0;0;956,75;5,73;0;0;
4613;0;0;0;0;0;0;956,8;4,78;0;0;
4618;0;0;0;0;0;0;956,85;4,83;0;0;
4621;0;0;0;0;0;0;956,85;5,23;0;0;
4626;0;0;0;0;0;0;956,85;5,63;0;0;
4630;0;0;0;0;0;0;956,85;6,03;0;0;
4634;0;0;0;0;0;0;956,8;6,12;0;0;
4640;0;0;0;0;0;0;956,75;6,21;0;0;
4645;0;0;0;0;0;0;956,75;6,05;0;0;
4649;0;0;0;0;0;0;956,75;5,89;0;0;
4654;0;0;0;0;0;0;956,75;5,73;0;0;
4659;0;0;0;0;0;0;956,75;5,57;0;0;
4664;0;0;0;0;0;0;956,7;5,57;0;0;
4667;0;0;0;0;0;0;956,65;5,57;0;0;
4673;0;0;0;0;0;0;956,6;5,57;0;0;
4677;0;0;0;0;0;0;956,55;5,52;0;0;
4683;0;0;0;0;0;0;956,5;5,47;0;0;
4687;0;0;0;0;0;0;956,45;6,02;0;0;
4691;0;0;0;0;0;0;956,4;6,57;0;0;
4696;0;0;0;0;0;0;956,35;7,43;0;0;
4701;0;0;0;0;0;0;956,3;8,29;0;0;
4705;0;0;0;0;0;0;956,25;9,25;0;0;
4709;0;0;0;0;0;0;956,2;10,21;0;0;
4713;0;0;0;0;0;0;956,2;10,82;0;0;
4717;0;0;0;0;0;0;956,2;11,43;0;0;
4720;0;0;0;0;0;0;956,2;12,04;0;0;
4725;0;0;0;0;0;0;956,2;12,65;0;0;
4729;0;0;0;0;0;0;956,2;12,86;0;0;
4733;0;0;0;0;0;0;956,15;13,32;0;0;
4737;0;0;0;0;0;0;956,1;13,78;0;0;
4743;0;0;0;0;0;0;956,05;14,24;0;0;
4748;0;0;0;0;0;0;956;14,7;0;0;
4752;0;0;0;0;0;0;956,05;15,5;0;0;
4758;0;0;0;0;0;0;956,1;16,3;0;0;
4765;0;0;0;0;0;0;956,15;17,1;0;0;
4770;0;0;0;0;0;0;956,2;18,25;0;0;
4774;0;0;0;0;0;0;956,25;19,4;0;0;
4779;0;0;0;0;0;0;956,3;19,95;0;0;
4785;0;0;0;0;0;0;956,35;20,5;0;0;
4791;0;0;0;0;0;0;956,4;20,5;0;0;
4795;0;0;0;0;0;0;956,45;20,5;0;0;
4800;0;0;0;0;0;0;956,5;20,4;0;0;
4806;0;0;0;0;0;0;956,55;20,3;0;0;
4811;0;0;0;0;0;0;956,6;20,2;0;0;
4815;0;0;0;0;0;0;956,65;19,75;0;0;
4820;0;0;0;0;0;0;956,7;19,3;0;0;
4825;0;0;0;0;0;0;956,75;18,85;0;0;
4830;0;0;0;0;0;0;956,8;18,8;0;0;
4836;0;0;0;0;0;0;956,85;18,4;0;0;
4839;0;0;0;0;0;0;956,9;18;0;0;
4844;0;0;0;0;0;0;956,95;17,6;0;0;
4853;0;0;0;0;0;0;957;17,2;0;0;
4857;0;0;0;0;0;0;956,95;17,44;0;0;
4862;0;0;0;0;0;0;956,9;17,68;0;0;
4871;0;0;0;0;0;0;956,85;17,92;0;0;
4876;0;0;0;0;0;0;956,85;17,51;0;0;
4879;0;0;0;0;0;0;956,85;17,1;0;0;
4884;0;0;0;0;0;0;956,85;16,69;0;0;
4889;0;0;0;0;0;0;956,85;16,28;0;0;
4894;0;0;0;0;0;0;956,85;16,42;0;0;
4900;0;0;0;0;0;0;956,8;16,21;0;0;
4907;0;0;0;0;0;0;956,75;16;0;0;
4914;0;0;0;0;0;0;956,7;15,79;0;0;
4919;0;0;0;0;0;0;956,65;15,23;0;0;
4923;0;0;0;0;0;0;956,6;15,02;0;0;
4929;0;0;0;0;0;0;956,55;14,81;0;0;
4933;0;0;0;0;0;0;956,5;14,6;0;0;
4939;0;0;0;0;0;0;956,45;14,39;0;0;
4942;0;0;0;0;0;0;956,45;14,33;0;0;
4948;0;0;0;0;0;0;956,45;14,27;0;0;
4954;0;0;0;0;0;0;956,45;14,21;0;0;
4960;0;0;0;0;0;0;956,45;14,15;0;0;
4964;0;0;0;0;0;0;956,45;13,06;0;0;
4967;0;0;0;0;0;0;956,45;11,97;0;0;
4973;0;0;0;0;0;0;956,45;10,88;0;0;
4980;0;0;0;0;0;0;956,4;10,09;0;0;
4984;0;0;0;0;0;0;956,4;9,75;0;0;
4988;0;0;0;0;0;0;956,4;9,41;0;0;
4992;0;0;0;0;0;0;956,4;9,07;0;0;
4997;0;0;0;0;0;0;956,4;8,73;0;0;
5003;0;0;0;0;0;0;956,45;8,74;0;0;
5007;0;0;0;0;0;0;956,5;9,2;0;0;
5011;0;0;0;0;0;0;956,55;9,66;0;0;
5016;0;0;0;0;0;0;956,6;10,47;0;0;
5021;0;0;0;0;0;0;956,65;11,28;0;0;
5027;0;0;0;0;0;0;956,65;12,79;0;0;
5033;0;0;0;0;0;0;956,65;14,3;0;0;
5038;0;0;0;0;0;0;956,65;15,81;0;0;
5043;0;0;0;0;0;0;956,6;17,52;0;0;
5048;0;0;0;0;0;0;956,55;19,23;0;0;
5053;0;0;0;0;0;0;956,55;20,99;0;0;
5056;0;0;0;0;0;0;956,55;22,75;0;0;
5062;0;0;0;0;0;0;956,6;24,4;0;0;
5067;0;0;0;0;0;0;956,65;26,05;0;0;
5071;0;0;0;0;0;0;956,7;27,25;0;0;
5074;0;0;0;0;0;0;956,75;28,45;0;0;
5081;0;0;0;0;0;0;956,75;29,2;0;0;
5086;0;0;0;0;0;0;956,75;29,95;0;0;
5090;0;0;0;0;0;0;956,7;29,25;0;0;
5094;0;0;0;0;0;0;956,65;28,55;0;0;
5100;0;0;0;0;0;0;956,6;27,85;0;0;
5107;0;0;0;0;0;0;956,55;26,7;0;0;
5112;0;0;0;0;0;0;956,55;26,44;0;0;
5116;0;0;0;0;0;0;956,55;26,18;0;0;
5121;0;0;0;0;0;0;956,55;25,92;0;0;
5128;0;0;0;0;0;0;956,6;24,96;0;0;
5134;0;0;0;0;0;0;956,6;24,4;0;0;
5137;0;0;0;0;0;0;956,6;23,84;0;0;
5143;0;0;0;0;0;0;956,6;23,28;0;0;
5150;0;0;0;0;0;0;956,6;22,72;0;0;
5153;0;0;0;0;0;0;956,6;21,81;0;0;
5157;0;0;0;0;0;0;956,6;20,9;0;0;
5160;0;0;0;0;0;0;956,6;19,99;0;0;
5165;0;0;0;0;0;0;956,6;19,08;0;0;
5170;0;0;0;0;0;0;956,6;18,62;0;0;
5173;0;0;0;0;0;0;956,55;17,61;0;0;
5178;0;0;0;0;0;0;956,5;16,6;0;0;
5183;0;0;0;0;0;0;956,45;15,59;0;0;
5187;0;0;0;0;0;0;956,45;16,03;0;0;
5193;0;0;0;0;0;0;956,45;16,47;0;0;
5196;0;0;0;0;0;0;956,5;16,57;0;0;
5199;0;0;0;0;0;0;956,55;16,67;0;0;
5201;0;0;0;0;0;0;956,55;15,88;0;0;
5205;0;0;0;0;0;0;956,55;15,09;0;0;
5208;0;0;0;0;0;0;956,55;14,3;0;0;
5212;0;0;0;0;0;0;956,55;13,51;0;0;
5215;0;0;0;0;0;0;956,6;12,32;0;0;
5218;0;0;0;0;0;0;956,6;11,32;0;0;
5222;0;0;0;0;0;0;956,6;10,32;0;0;
5226;0;0;0;0;0;0;956,6;9,32;0;0;
5232;0;0;0;0;0;0;956,55;8,62;0;0;
5237;0;0;0;0;0;0;956,5;7,92;0;0;
5240;0;0;0;0;0;0;956,45;7,03;0;0;
5243;0;0;0;0;0;0;956,4;6,14;0;0;
5247;0;0;0;0;0;0;956,35;5,25;0;0;
5250;0;0;0;0;0;0;956,35;4,91;0;0;
5256;0;0;0;0;0;0;956,35;4,57;0;0;
5259;0;0;0;0;0;0;956,35;4,63;0;0;
5263;0;0;0;0;0;0;956,35;4,69;0;0;
5268;0;0;0;0;0;0;956,35;4,75;0;0;
5273;0;0;0;0;0;0;956,3;5,15;0;0;
5278;0;0;0;0;0;0;956,25;5,55;0;0;
5281;0;0;0;0;0;0;956,25;6,25;0;0;
5285;0;0;0;0;0;0;956,25;6,95;0;0;
5290;0;0;0;0;0;0;956,25;7,65;0;0;
5294;0;0;0;0;0;0;956,25;8,35;0;0;
5299;0;0;0;0;0;0;956,25;9,05;0;0;
5303;0;0;0;0;0;0;956,3;9,66;0;0;
5307;0;0;0;0;0;0;956,35;10,27;0;0;
5311;0;0;0;0;0;0;956,4;10,88;0;0;
5317;0;0;0;0;0;0;956,45;11,49;0;0;
5323;0;0;0;0;0;0;956,5;12,1;0;0;
5327;0;0;0;0;0;0;956,5;13,05;0;0;
5331;0;0;0;0;0;0;956,5;14;0;0;
5334;0;0;0;0;0;0;956,5;14,95;0;0;
5339;0;0;0;0;0;0;956,5;15,9;0;0;
5344;0;0;0;0;0;0;956,55;16,65;0;0;
5347;0;0;0;0;0;0;956,6;17;0;0;
5351;0;0;0;0;0;0;956,65;17,35;0;0;
5357;0;0;0;0;0;0;956,7;17,7;0;0;
5360;0;0;0;0;0;0;956,75;18,05;0;0;
5364;0;0;0;0;0;0;956,8;18,4;0;0;
5367;0;0;0;0;0;0;956,8;18,5;0;0;
5371;0;0;0;0;0;0;956,8;18,6;0;0;
5375;0;0;0;0;0;0;956,8;18,7;0;0;
5380;0;0;0;0;0;0;956,8;18,8;0;0;
5385;0;0;0;0;0;0;956,8;18,9;0;0;
5389;0;0;0;0;0;0;956,75;18,5;0;0;
5393;0;0;0;0;0;0;956,7;18,1;0;0;
5398;0;0;0;0;0;0;956,65;17,7;0;0;
5403;0;0;0;0;0;0;956,6;17,3;0;0;
5408;0;0;0;0;0;0;956,6;17,05;0;0;
5413;0;0;0;0;0;0;956,65;16,65;0;0;
5421;0;0;0;0;0;0;956,7;16,25;0;0;
5426;0;0;0;0;0;0;956,75;15,85;0;0;
5431;0;0;0;0;0;0;956,75;15;0;0;
5435;0;0;0;0;0;0;956,7;14,35;0;0;
5440;0;0;0;0;0;0;956,65;13,7;0;0;
5444;0;0;0;0;0;0;956,6;13,05;0;0;
5450;0;0;0;0;0;0;956,55;12,4;0;0;
5454;0;0;0;0;0;0;956,55;11,89;0;0;
5457;0;0;0;0;0;0;956,55;11,38;0;0;
5463;0;0;0;0;0;0;956,55;10,82;0;0;
5468;0;0;0;0;0;0;956,55;10,26;0;0;
5473;0;0;0;0;0;0;956,55;10,2;0;0;
5477;0;0;0;0;0;0;956,55;10,14;0;0;
5482;0;0;0;0;0;0;956,55;10,08;0;0;
5489;0;0;0;0;0;0;956,6;10,42;0;0;
5492;0;0;0;0;0;0;956,65;10,51;0;0;
5496;0;0;0;0;0;0;956,7;10,6;0;0;
5501;0;0;0;0;0;0;956,75;10,69;0;0;
5506;0;0;0;0;0;0;956,75;10,63;0;0;
5511;0;0;0;0;0;0;956,75;10,57;0;0;
5515;0;0;0;0;0;0;956,7;10,86;0;0;
5519;0;0;0;0;0;0;956,65;11,15;0;0;
5524;0;0;0;0;0;0;956,65;11,89;0;0;
5528;0;0;0;0;0;0;956,65;12,63;0;0;
5533;0;0;0;0;0;0;956,65;13,37;0;0;
5536;0;0;0;0;0;0;956,7;14,26;0;0;
5539;0;0;0;0;0;0;956,75;15,15;0;0;
5544;0;0;0;0;0;0;956,75;15,9;0;0;
5549;0;0;0;0;0;0;956,75;16,65;0;0;
5553;0;0;0;0;0;0;956,75;17,4;0;0;
5557;0;0;0;0;0;0;956,75;17,85;0;0;
5559;0;0;0;0;0;0;956,75;17,8;0;0;
5566;0;0;0;0;0;0;956,75;17,75;0;0;
5572;0;0;0;0;0;0;956,75;17,7;0;0;
5578;0;0;0;0;0;0;956,7;17,75;0;0;
5583;0;0;0;0;0;0;956,65;18,05;0;0;
5589;0;0;0;0;0;0;956,6;18,35;0;0;
5594;0;0;0;0;0;0;956,55;18,65;0;0;
5599;0;0;0;0;0;0;956,5;18,95;0;0;
5603;0;0;0;0;0;0;956,5;19;0;0;
5608;0;0;0;0;0;0;956,55;18,7;0;0;
5613;0;0;0;0;0;0;956,6;18,4;0;0;
5618;0;0;0;0;0;0;956,65;18,1;0;0;
5624;0;0;0;0;0;0;956,65;17,55;0;0;
5629;0;0;0;0;0;0;956,65;17;0;0;
5635;0;0;0;0;0;0;956,6;16,3;0;0;
5639;0;0;0;0;0;0;956,55;15,6;0;0;
5642;0;0;0;0;0;0;956,55;14,61;0;0;
5645;0;0;0;0;0;0;956,55;13,62;0;0;
5649;0;0;0;0;0;0;956,55;12,63;0;0;
5655;0;0;0;0;0;0;956,55;11,94;0;0;
5661;0;0;0;0;0;0;956,55;11,25;0;0;
5665;0;0;0;0;0;0;956,55;10,81;0;0;
5669;0;0;0;0;0;0;956,55;10,37;0;0;
5674;0;0;0;0;0;0;956,6;9,83;0;0;
5678;0;0;0;0;0;0;956,65;9,29;0;0;
5683;0;0;0;0;0;0;956,7;8,75;0;0;
5687;0;0;0;0;0;0;956,7;7,91;0;0;
5691;0;0;0;0;0;0;956,7;7,07;0;0;
5697;0;0;0;0;0;0;956,65;6,48;0;0;
5701;0;0;0;0;0;0;956,6;5,89;0;0;
5705;0;0;0;0;0;0;956,6;5,5;0;0;
5709;0;0;0;0;0;0;956,6;5,11;0;0;
5713;0;0;0;0;0;0;956,65;4,97;0;0;
5719;0;0;0;0;0;0;956,7;4,83;0;0;
5724;0;0;0;0;0;0;956,75;4,69;0;0;
5728;0;0;0;0;0;0;956,75;4,6;0;0;
5732;0;0;0;0;0;0;956,7;4,8;0;0;
5737;0;0;0;0;0;0;956,65;5;0;0;
5742;0;0;0;0;0;0;956,6;5,2;0;0;
5747;0;0;0;0;0;0;956,55;5,4;0;0;
5751;0;0;0;0;0;0;956,55;5,65;0;0;
5755;0;0;0;0;0;0;956,55;5,65;0;0;
5758;0;0;0;0;0;0;956,55;5,65;0;0;
5764;0;0;0;0;0;0;956,55;5,65;0;0;
5769;0;0;0;0;0;0;956,55;5,65;0;0;
5773;0;0;0;0;0;0;956,55;5,45;0;0;
5777;0;0;0;0;0;0;956,6;5,55;0;0;
5780;0;0;0;0;0;0;956,65;5,65;0;0;
5786;0;0;0;0;0;0;956,7;5,75;0;0;
5791;0;0;0;0;0;0;956,75;5,85;0;0;
5795;0;0;0;0;0;0;956,7;5,89;0;0;
5800;0;0;0;0;0;0;956,65;5,93;0;0;
5805;0;0;0;0;0;0;956,6;5,97;0;0;
5810;0;0;0;0;0;0;956,55;6,01;0;0;
5815;0;0;0;0;0;0;956,55;5,86;0;0;
5819;0;0;0;0;0;0;956,6;5,66;0;0;
5824;0;0;0;0;0;0;956,65;5,46;0;0;
5829;0;0;0;0;0;0;956,7;5,26;0;0;
5833;0;0;0;0;0;0;956,75;5,11;0;0;
5836;0;0;0;0;0;0;956,8;4,96;0;0;
5842;0;0;0;0;0;0;956,8;4,76;0;0;
5846;0;0;0;0;0;0;956,8;4,56;0;0;
5850;0;0;0;0;0;0;956,8;4,36;0;0;
5855;0;0;0;0;0;0;956,75;4,16;0;0;
5859;0;0;0;0;0;0;956,7;3,96;0;0;
5865;0;0;0;0;0;0;956,65;3,96;0;0;
5869;0;0;0;0;0;0;956,6;3,96;0;0;
5874;0;0;0;0;0;0;956,55;3,96;0;0;
5878;0;0;0;0;0;0;956,55;4,26;0;0;
5883;0;0;0;0;0;0;956,55;4,56;0;0;
5888;0;0;0;0;0;0;956,6;4,72;0;0;
5892;0;0;0;0;0;0;956,65;4,88;0;0;
5896;0;0;0;0;0;0;956,7;5,04;0;0;
5900;0;0;0;0;0;0;956,75;4,75;0;0;
5905;0;0;0;0;0;0;956,75;4,65;0;0;
5909;0;0;0;0;0;0;956,75;4,55;0;0;
5914;0;0;0;0;0;0;956,75;4,45;0;0;
5918;0;0;0;0;0;0;956,7;5,34;0;0;
5922;0;0;0;0;0;0;956,65;6,18;0;0;
5927;0;0;0;0;0;0;956,6;7,02;0;0;
5932;0;0;0;0;0;0;956,55;7,86;0;0;
5938;0;0;0;0;0;0;956,5;8,7;0;0;
5944;0;0;0;0;0;0;956,45;9,49;0;0;
5952;0;0;0;0;0;0;956,45;10,28;0;0;
5961;0;0;0;0;0;0;956,45;11,02;0;0;
5966;0;0;0;0;0;0;956,45;11,76;0;0;
5972;0;0;0;0;0;0;956,45;12,5;0;0;
5979;0;0;0;0;0;0;956,45;13,24;0;0;
5984;0;0;0;0;0;0;956,45;13,03;0;0;
5989;0;0;0;0;0;0;956,45;12,82;0;0;
5993;0;0;0;0;0;0;956,45;12,61;0;0;
5998;0;0;0;0;0;0;956,45;12,4;0;0;
6003;0;0;0;0;0;0;956,45;12,19;0;0;
6007;0;0;0;0;0;0;956,4;12,18;0;0;
6012;0;0;0;0;0;0;956,35;12,17;0;0;
6016;0;0;0;0;0;0;956,3;12,16;0;0;
6021;0;0;0;0;0;0;956,25;12,15;0;0;
6026;0;0;0;0;0;0;956,3;11,51;0;0;
6030;0;0;0;0;0;0;956,35;10,87;0;0;
6035;0;0;0;0;0;0;956,4;10,23;0;0;
6040;0;0;0;0;0;0;956,45;9,59;0;0;
6045;0;0;0;0;0;0;956,5;8,95;0;0;
6049;0;0;0;0;0;0;956,55;8,01;0;0;
6052;0;0;0;0;0;0;956,6;7,07;0;0;
6060;0;0;0;0;0;0;956,65;6,18;0;0;
6069;0;0;0;0;0;0;956,7;5,29;0;0;
6072;0;0;0;0;0;0;956,7;4,74;0;0;
6075;0;0;0;0;0;0;956,7;4,19;0;0;
6080;0;0;0;0;0;0;956,65;4,29;0;0;
6084;0;0;0;0;0;0;956,6;4,39;0;0;
6088;0;0;0;0;0;0;956,6;4,29;0;0;
6091;0;0;0;0;0;0;956,6;4,19;0;0;
6095;0;0;0;0;0;0;956,6;4,09;0;0;
6099;0;0;0;0;0;0;956,65;4,24;0;0;
6103;0;0;0;0;0;0;956,7;4,39;0;0;
6107;0;0;0;0;0;0;956,75;4,54;0;0;
6110;0;0;0;0;0;0;956,75;5,84;0;0;
6113;0;0;0;0;0;0;956,7;6,78;0;0;
6120;0;0;0;0;0;0;956,65;7,72;0;0;
6123;0;0;0;0;0;0;956,6;8,66;0;0;
6126;0;0;0;0;0;0;956,55;9,6;0;0;
6129;0;0;0;0;0;0;956,5;10,54;0;0;
6131;0;0;0;0;0;0;956,5;12,23;0;0;
6134;0;0;0;0;0;0;956,5;13,92;0;0;
6137;0;0;0;0;0;0;956,5;15,61;0;0;
6140;0;0;0;0;0;0;956,5;17,3;0;0;
6144;0;0;0;0;0;0;956,55;18,65;0;0;
6147;0;0;0;0;0;0;956,6;20;0;0;
6150;0;0;0;0;0;0;956,65;21,35;0;0;
6154;0;0;0;0;0;0;956,7;22,75;0;0;
6157;0;0;0;0;0;0;956,7;24,35;0;0;
6161;0;0;0;0;0;0;956,7;25,95;0;0;
6166;0;0;0;0;0;0;956,7;27,55;0;0;
6170;0;0;0;0;0;0;956,7;29,15;0;0;
6173;0;0;0;0;0;0;956,65;30,65;0;0;
6176;0;0;0;0;0;0;956,6;32,15;0;0;
6180;0;0;0;0;0;0;956,6;32,5;0;0;
6183;0;0;0;0;0;0;956,6;32,85;0;0;
6187;0;0;0;0;0;0;956,6;33,2;0;0;
6191;0;0;0;0;0;0;956,6;33,55;0;0;
6194;0;0;0;0;0;0;956,6;33,85;0;0;
6198;0;0;0;0;0;0;956,6;34,15;0;0;
6204;0;0;0;0;0;0;956,55;34,05;0;0;
6207;0;0;0;0;0;0;956,5;33,95;0;0;
6212;0;0;0;0;0;0;956,45;33,85;0;0;
6216;0;0;0;0;0;0;956,45;33,5;0;0;
6220;0;0;0;0;0;0;956,45;33,15;0;0;
6224;0;0;0;0;0;0;956,45;32,8;0;0;
6228;0;0;0;0;0;0;956,45;32,45;0;0;
6232;0;0;0;0;0;0;956,45;32,05;0;0;
6236;0;0;0;0;0;0;956,45;31,65;0;0;
6239;0;0;0;0;0;0;956,4;31,3;0;0;
6243;0;0;0;0;0;0;956,35;30,95;0;0;
6249;0;0;0;0;0;0;956,3;30,6;0;0;
6254;0;0;0;0;0;0;956,3;30,35;0;0;
6258;0;0;0;0;0;0;956,3;29,45;0;0;
6262;0;0;0;0;0;0;956,3;28,55;0;0;
6267;0;0;0;0;0;0;956,3;27,65;0;0;
6273;0;0;0;0;0;0;956,3;26,75;0;0;
6281;0;0;0;0;0;0;956,3;25,85;0;0;
6286;0;0;0;0;0;0;956,35;24,6;0;0;
6290;0;0;0;0;0;0;956,4;23,35;0;0;
6295;0;0;0;0;0;0;956,45;22,1;0;0;
6301;0;0;0;0;0;0;956,5;20,85;0;0;
6305;0;0;0;0;0;0;956,5;19,4;0;0;
6311;0;0;0;0;0;0;956,45;18,2;0;0;
6317;0;0;0;0;0;0;956,4;17;0;0;
6323;0;0;0;0;0;0;956,4;16,11;0;0;
6328;0;0;0;0;0;0;956,4;15,22;0;0;
6333;0;0;0;0;0;0;956,4;14,33;0;0;
6342;0;0;0;0;0;0;956,4;13,44;0;0;
6347;0;0;0;0;0;0;956,45;12,85;0;0;
6351;0;0;0;0;0;0;956,5;12,26;0;0;
6356;0;0;0;0;0;0;956,55;11,67;0;0;
6362;0;0;0;0;0;0;956,6;11,08;0;0;
6366;0;0;0;0;0;0;956,65;10,99;0;0;
6369;0;0;0;0;0;0;956,7;10,9;0;0;
6376;0;0;0;0;0;0;956,75;10,81;0;0;
6382;0;0;0;0;0;0;956,8;10,72;0;0;
6388;0;0;0;0;0;0;956,85;10,73;0;0;
6392;0;0;0;0;0;0;956,85;11,14;0;0;
6398;0;0;0;0;0;0;956,85;11,55;0;0;
6403;0;0;0;0;0;0;956,85;11,96;0;0;
6409;0;0;0;0;0;0;956,8;12,07;0;0;
6414;0;0;0;0;0;0;956,8;12,38;0;0;
6420;0;0;0;0;0;0;956,8;12,69;0;0;
6425;0;0;0;0;0;0;956,8;13;0;0;
6429;0;0;0;0;0;0;956,8;12,9;0;0;
6433;0;0;0;0;0;0;956,8;12,8;0;0;
6437;0;0;0;0;0;0;956,8;12,7;0;0;
6443;0;0;0;0;0;0;956,8;12,6;0;0;
6449;0;0;0;0;0;0;956,8;12,15;0;0;
6453;0;0;0;0;0;0;956,75;11,69;0;0;
6457;0;0;0;0;0;0;956,7;11,23;0;0;
6462;0;0;0;0;0;0;956,65;10,77;0;0;
6474;0;0;0;0;0;0;956,6;10,46;0;0;
6480;0;0;0;0;0;0;956,6;11,15;0;0;
6485;0;0;0;0;0;0;956,6;11,84;0;0;
6490;0;0;0;0;0;0;956,6;12,53;0;0;
6495;0;0;0;0;0;0;956,6;12,82;0;0;
6499;0;0;0;0;0;0;956,6;13,11;0;0;
6504;0;0;0;0;0;0;956,6;13,4;0;0;
6509;0;0;0;0;0;0;956,6;13,69;0;0;
6513;0;0;0;0;0;0;956,65;14,28;0;0;
6517;0;0;0;0;0;0;956,65;14,52;0;0;
6521;0;0;0;0;0;0;956,65;14,76;0;0;
6526;0;0;0;0;0;0;956,65;15;0;0;
6531;0;0;0;0;0;0;956,6;15,34;0;0;
6536;0;0;0;0;0;0;956,55;15,68;0;0;
6540;0;0;0;0;0;0;956,5;16,07;0;0;
6544;0;0;0;0;0;0;956,45;16,46;0;0;
6550;0;0;0;0;0;0;956,4;16,85;0;0;
6559;0;0;0;0;0;0;956,4;17,25;0;0;
6564;0;0;0;0;0;0;956,45;17,2;0;0;
6568;0;0;0;0;0;0;956,5;17,15;0;0;
6573;0;0;0;0;0;0;956,55;17,1;0;0;
6577;0;0;0;0;0;0;956,55;16,05;0;0;
6581;0;0;0;0;0;0;956,55;14,9;0;0;
6585;0;0;0;0;0;0;956,55;13,75;0;0;
6590;0;0;0;0;0;0;956,55;12,9;0;0;
6596;0;0;0;0;0;0;956,55;12,05;0;0;
6600;0;0;0;0;0;0;956,55;11;0;0;
6605;0;0;0;0;0;0;956,55;9,95;0;0;
6614;0;0;0;0;0;0;956,55;8,9;0;0;
6622;0;0;0;0;0;0;956,6;8,2;0;0;
6627;0;0;0;0;0;0;956,65;7,96;0;0;
6630;0;0;0;0;0;0;956,7;7,72;0;0;
6635;0;0;0;0;0;0;956,75;7,48;0;0;
6638;0;0;0;0;0;0;956,8;7,24;0;0;
6641;0;0;0;0;0;0;956,8;6,9;0;0;
6644;0;0;0;0;0;0;956,8;6,56;0;0;
6650;0;0;0;0;0;0;956,8;6,22;0;0;
6654;0;0;0;0;0;0;956,8;5,88;0;0;
6657;0;0;0;0;0;0;956,75;5,99;0;0;
6662;0;0;0;0;0;0;956,75;6,45;0;0;
6666;0;0;0;0;0;0;956,75;6,91;0;0;
6670;0;0;0;0;0;0;956,75;7,37;0;0;
6674;0;0;0;0;0;0;956,75;7,93;0;0;
6678;0;0;0;0;0;0;956,75;8,49;0;0;
6683;0;0;0;0;0;0;956,75;9,05;0;0;
6686;0;0;0;0;0;0;956,75;9,76;0;0;
6690;0;0;0;0;0;0;956,75;10,67;0;0;
6694;0;0;0;0;0;0;956,75;11,58;0;0;
6698;0;0;0;0;0;0;956,75;12,49;0;0;
6702;0;0;0;0;0;0;956,75;13,4;0;0;
6706;0;0;0;0;0;0;956,7;13,5;0;0;
6708;0;0;0;0;0;0;956,65;13,6;0;0;
6712;0;0;0;0;0;0;956,6;13,7;0;0;
6716;0;0;0;0;0;0;956,55;13,8;0;0;
6720;0;0;0;0;0;0;956,55;13,95;0;0;
6727;0;0;0;0;0;0;956,55;14,1;0;0;
6730;0;0;0;0;0;0;956,6;14,4;0;0;
6733;0;0;0;0;0;0;956,65;14,7;0;0;
6738;0;0;0;0;0;0;956,7;15;0;0;
6742;0;0;0;0;0;0;956,7;14,95;0;0;
6747;0;0;0;0;0;0;956,7;14,85;0;0;
6750;0;0;0;0;0;0;956,7;14,75;0;0;
6758;0;0;0;0;0;0;956,7;14,65;0;0;
6765;0;0;0;0;0;0;956,7;14,55;0;0;
6770;0;0;0;0;0;0;956,7;14,5;0;0;
6773;0;0;0;0;0;0;956,7;14,3;0;0;
6777;0;0;0;0;0;0;956,7;14,1;0;0;
6782;0;0;0;0;0;0;956,7;13,9;0;0;
6786;0;0;0;0;0;0;956,7;13,7;0;0;
6790;0;0;0;0;0;0;956,7;13,14;0;0;
6792;0;0;0;0;0;0;956,75;12,93;0;0;
6797;0;0;0;0;0;0;956,8;12,72;0;0;
6801;0;0;0;0;0;0;956,85;12,51;0;0;
6807;0;0;0;0;0;0;956,9;12,3;0;0;
6811;0;0;0;0;0;0;956,95;12,09;0;0;
6815;0;0;0;0;0;0;957;12,78;0;0;
6819;0;0;0;0;0;0;957;13,32;0;0;
6823;0;0;0;0;0;0;957;13,86;0;0;
6830;0;0;0;0;0;0;957;14,4;0;0;
6834;0;0;0;0;0;0;957;14,89;0;0;
6837;0;0;0;0;0;0;957;15,43;0;0;
6843;0;0;0;0;0;0;957;15,97;0;0;
6848;0;0;0;0;0;0;957;16,51;0;0;
6854;0;0;0;0;0;0;957;17,05;0;0;
6858;0;0;0;0;0;0;956,95;17,44;0;0;
6862;0;0;0;0;0;0;956,9;17,83;0;0;
6869;0;0;0;0;0;0;956,85;18,22;0;0;
6875;0;0;0;0;0;0;956,8;18,61;0;0;
6878;0;0;0;0;0;0;956,8;19,05;0;0;
6881;0;0;0;0;0;0;956,8;19,85;0;0;
6886;0;0;0;0;0;0;956,8;20,65;0;0;
6892;0;0;0;0;0;0;956,8;21,45;0;0;
6898;0;0;0;0;0;0;956,75;22;0;0;
6903;0;0;0;0;0;0;956,7;22,55;0;0;
6908;0;0;0;0;0;0;956,65;23,1;0;0;
6914;0;0;0;0;0;0;956,6;22,75;0;0;
6918;0;0;0;0;0;0;956,55;22,4;0;0;
6921;0;0;0;0;0;0;956,55;21,65;0;0;
6924;0;0;0;0;0;0;956,55;20,9;0;0;
6927;0;0;0;0;0;0;956,55;20,2;0;0;
6932;0;0;0;0;0;0;956,55;19,5;0;0;
6937;0;0;0;0;0;0;956,55;18,8;0;0;
6940;0;0;0;0;0;0;956,5;18,6;0;0;
6944;0;0;0;0;0;0;956,45;18,4;0;0;
6948;0;0;0;0;0;0;956,45;18,3;0;0;
6953;0;0;0;0;0;0;956,45;18,2;0;0;
6957;0;0;0;0;0;0;956,45;18,1;0;0;
6963;0;0;0;0;0;0;956,5;17,35;0;0;
6967;0;0;0;0;0;0;956,5;16,55;0;0;
6970;0;0;0;0;0;0;956,5;15,75;0;0;
6974;0;0;0;0;0;0;956,5;14,95;0;0;
6982;0;0;0;0;0;0;956,5;14,15;0;0;
6986;0;0;0;0;0;0;956,55;13,25;0;0;
6990;0;0;0;0;0;0;956,6;12,35;0;0;
6994;0;0;0;0;0;0;956,65;11,45;0;0;
6999;0;0;0;0;0;0;956,7;10,55;0;0;
7003;0;0;0;0;0;0;956,7;10,01;0;0;
7008;0;0;0;0;0;0;956,65;9,87;0;0;
7014;0;0;0;0;0;0;956,6;9,73;0;0;
7023;0;0;0;0;0;0;956,55;9,59;0;0;
7037;0;0;0;0;0;0;956,55;10,3;0;0;
