Time;EMG1;EMG2;EMG3;EMG4;EMG1_F;EMG2_F;EMG3_F;EMG4_F;Note_R;Note_V;;Level 1;Joueur;Score;Notes hit;% Reussite R;Offset EMG1;Onset EMG1;% Reussite V;Offset EMG2;Onset EMG2
35;-14,5;-9,76;-14,5;-9,76;2,46;1,73;2,46;1,73;0;0;;;1;43100;154;90,9836;-15,79256;74,043;86;-5,111802;38,12578
55;-14,38;-4,23;-14,38;-4,23;2,68;1,76;2,68;1,76;0;0;;;2;39700;152;89,34426;-15,79256;74,043;86;-5,111802;38,12578
71;-21,74;-6,08;-21,74;-6,08;2,66;1,76;2,66;1,76;0;0;
87;-18,77;-8,9;-18,77;-8,9;2,61;1,7;2,61;1,7;0;0;
102;-17,76;-1,75;-17,76;-1,75;2,62;1,56;2,62;1,56;0;0;
118;-14,93;-5,08;-14,93;-5,08;2,44;1,39;2,44;1,39;0;0;
139;-17,85;-5,89;-17,85;-5,89;2,48;1,37;2,48;1,37;0;0;
159;-15,21;-10,98;-15,21;-10,98;2,4;1,4;2,4;1,4;0;0;
175;-15,21;-10,98;-15,21;-10,98;2,33;1,5;2,33;1,5;0;0;
193;-17,57;-5,49;-17,57;-5,49;2,25;1,53;2,25;1,53;0;0;
210;-18,5;-7,17;-18,5;-7,17;2,32;1,49;2,32;1,49;0;0;
227;-16,87;-7,43;-16,87;-7,43;2,27;1,52;2,27;1,52;0;0;
242;-16,45;-4,41;-16,45;-4,41;2,08;1,64;2,08;1,64;0;0;
259;-23,19;-5,77;-23,19;-5,77;2,15;1,7;2,15;1,7;0;0;
277;-14,22;-4,01;-14,22;-4,01;2,45;1,68;2,45;1,68;0;0;
293;-14,22;-4,01;-14,22;-4,01;2,69;1,74;2,69;1,74;0;0;
308;-22,8;-5,72;-22,8;-5,72;2,8;1,83;2,8;1,83;0;0;
325;-13,94;-4,98;-13,94;-4,98;3,36;1,84;3,36;1,84;0;0;
341;-14,73;-9,57;-14,73;-9,57;3,51;2,12;3,51;2,12;0;0;
360;-20,73;-6,78;-20,73;-6,78;3,24;2,27;3,24;2,27;0;0;
374;-20,73;-6,78;-20,73;-6,78;2,96;2,41;2,96;2,41;0;0;
390;-16,64;-6,08;-16,64;-6,08;2,87;2,3;2,87;2,3;0;0;
406;-13,44;-6,56;-13,44;-6,56;2,57;2,09;2,57;2,09;0;0;
422;-15,23;-4,37;-15,23;-4,37;2,38;2,03;2,38;2,03;0;0;
440;-16,54;-5,35;-16,54;-5,35;2,35;1,68;2,35;1,68;0;0;
455;-16,54;-5,35;-16,54;-5,35;2,44;1,41;2,44;1,41;0;0;
472;-14,5;-4,99;-14,5;-4,99;2,34;1,43;2,34;1,43;0;0;
488;-19,67;-7,68;-19,67;-7,68;2,35;1,5;2,35;1,5;0;0;
504;-20,19;-5,41;-20,19;-5,41;2,3;1,49;2,3;1,49;0;0;
520;-19,77;-7,42;-19,77;-7,42;2,41;1,55;2,41;1,55;0;0;
537;-21,16;-2,27;-21,16;-2,27;2,62;1,62;2,62;1,62;0;0;
552;-21,16;-2,27;-21,16;-2,27;2,95;1,68;2,95;1,68;0;0;
567;-16,79;-3,38;-16,79;-3,38;3,07;1,77;3,07;1,77;0;0;
583;-17,96;-6,06;-17,96;-6,06;3,03;1,65;3,03;1,65;0;0;
601;-11,43;-7,4;-11,43;-7,4;2,8;1,7;2,8;1,7;0;0;
618;-17,67;-7,79;-17,67;-7,79;2,92;1,85;2,92;1,85;0;0;
633;-17,67;-7,79;-17,67;-7,79;3,12;1,97;3,12;1,97;0;0;
651;-18,91;-5,68;-18,91;-5,68;3,15;1,91;3,15;1,91;0;0;
668;-10,22;-3,72;-10,22;-3,72;3,23;1,8;3,23;1,8;0;0;
686;-21,29;-3,08;-21,29;-3,08;3,4;1,89;3,4;1,89;0;0;
701;-20,46;-5,13;-20,46;-5,13;3,2;1,82;3,2;1,82;0;0;
718;-11,94;-5,09;-11,94;-5,09;2,89;1,63;2,89;1,63;0;0;
735;-11,94;-5,09;-11,94;-5,09;2,5;1,52;2,5;1,52;0;0;
756;-22,24;-3,73;-22,24;-3,73;2,89;1,59;2,89;1,59;0;0;
771;-22,24;-3,73;-22,24;-3,73;3,18;1,57;3,18;1,57;0;0;
787;-16,35;-7,42;-16,35;-7,42;3,11;1,56;3,11;1,56;0;0;
804;-16,68;-9,29;-16,68;-9,29;2,86;1,87;2,86;1,87;0;0;
820;-14,93;-3,66;-14,93;-3,66;2,59;1,91;2,59;1,91;0;0;
835;-14,93;-3,66;-14,93;-3,66;2,26;1,98;2,26;1,98;0;0;
852;-18,12;-5,01;-18,12;-5,01;2,18;1,98;2,18;1,98;0;0;
870;-17,11;-2,26;-17,11;-2,26;1,99;2,12;1,99;2,12;0;0;
887;-18,49;-8,04;-18,49;-8,04;2,07;1,9;2,07;1,9;0;0;
903;-13,75;-4,87;-13,75;-4,87;2,34;1,8;2,34;1,8;0;0;
922;-15,65;-2,5;-15,65;-2,5;2,53;1,8;2,53;1,8;0;0;
939;-14,28;-3,4;-14,28;-3,4;2,31;1,9;2,31;1,9;0;0;
955;-14,28;-3,4;-14,28;-3,4;2,15;2,03;2,15;2,03;0;0;
972;-18,88;-8,04;-18,88;-8,04;2,17;2,14;2,17;2,14;0;0;
989;-21,9;-8,02;-21,9;-8,02;2,11;2,25;2,11;2,25;0;0;
1007;-18,79;-3,27;-18,79;-3,27;1,98;2,49;1,98;2,49;0;0;
1024;-17,69;-7,08;-17,69;-7,08;2,3;2,31;2,3;2,31;0;0;
1039;-20,4;-5,93;-20,4;-5,93;2,56;2,18;2,56;2,18;0;0;
1057;-21,99;-4,23;-21,99;-4,23;2,64;2,12;2,64;2,12;0;0;
1074;-21,99;-4,23;-21,99;-4,23;2,92;2,03;2,92;2,03;0;0;
1091;-13,1;-6,51;-13,1;-6,51;2,67;1,66;2,67;1,66;0;0;
1107;-14,04;-3,4;-14,04;-3,4;2,52;1,74;2,52;1,74;0;0;
1122;-14,93;-5,73;-14,93;-5,73;2,56;1,75;2,56;1,75;0;0;
1140;-17,09;-7,26;-17,09;-7,26;2,41;1,57;2,41;1,57;0;0;
1155;-18,21;-7,05;-18,21;-7,05;2,38;1,43;2,38;1,43;0;0;
1169;-18,21;-7,05;-18,21;-7,05;2,45;1,38;2,45;1,38;0;0;
1186;-18,86;-7,42;-18,86;-7,42;2,47;1,42;2,47;1,42;0;0;
1202;-16;-4,71;-16;-4,71;2,62;1,27;2,62;1,27;0;0;
1218;-15,87;-3,07;-15,87;-3,07;2,41;1,31;2,41;1,31;0;0;
1233;-15,87;-3,07;-15,87;-3,07;2,29;1,36;2,29;1,36;0;0;
1249;-18,98;-3,19;-18,98;-3,19;2,11;1,53;2,11;1,53;0;0;
1268;-17,05;-6,43;-17,05;-6,43;2,2;1,48;2,2;1,48;0;0;
1284;-11,3;-3,75;-11,3;-3,75;2,15;1,65;2,15;1,65;0;0;
1301;-22,28;-7,92;-22,28;-7,92;2,28;1,66;2,28;1,66;0;0;
1319;-14,76;-6,12;-14,76;-6,12;2,51;1,61;2,51;1,61;0;0;
1335;-14,76;-6,12;-14,76;-6,12;2,78;1,44;2,78;1,44;0;0;
1351;-11,85;-5,9;-11,85;-5,9;3,04;1,44;3,04;1,44;0;0;
1366;-10,47;-5,33;-10,47;-5,33;3,22;1,52;3,22;1,52;0;0;
1382;-17,21;-5,9;-17,21;-5,9;3,36;1,37;3,36;1,37;0;0;
1398;-16,12;-6,07;-16,12;-6,07;3,29;1,34;3,29;1,34;0;0;
1414;-16,12;-6,07;-16,12;-6,07;3,3;1,3;3,3;1,3;0;0;
1429;-18,09;-4,37;-18,09;-4,37;3,21;1,49;3,21;1,49;0;0;
1445;-18,15;-9,01;-18,15;-9,01;2,95;1,56;2,95;1,56;0;0;
1463;-16,79;-5,71;-16,79;-5,71;2,81;1,57;2,81;1,57;0;0;
1480;-15,74;-6,62;-15,74;-6,62;2,48;1,53;2,48;1,53;0;0;
1495;-15,74;-6,62;-15,74;-6,62;2,32;1,52;2,32;1,52;0;0;
1511;-15,72;-5,37;-15,72;-5,37;2,53;1,5;2,53;1,5;0;0;
1527;-15,85;-6,56;-15,85;-6,56;2,57;1,44;2,57;1,44;0;0;
1543;-13,08;-9,9;-13,08;-9,9;2,64;1,38;2,64;1,38;0;0;
1560;-7,1;-6,57;-7,1;-6,57;2,71;1,5;2,71;1,5;0;0;
1578;-16,24;-9,55;-16,24;-9,55;2,85;1,77;2,85;1,77;0;0;
1594;-16,24;-9,55;-16,24;-9,55;2,93;1,99;2,93;1,99;0;0;
1612;-14,39;-2,58;-14,39;-2,58;2,81;2,02;2,81;2,02;0;0;
1627;-24,31;-5,66;-24,31;-5,66;3,43;1,98;3,43;1,98;0;0;
1643;-24,31;-5,66;-24,31;-5,66;3,83;1,83;3,83;1,83;0;0;
1663;-15,59;-5,42;-15,59;-5,42;3,76;1,73;3,76;1,73;0;0;
1680;-22,08;-4,88;-22,08;-4,88;3,91;1,52;3,91;1,52;0;0;
1695;-22,08;-4,88;-22,08;-4,88;4,16;1,43;4,16;1,43;0;0;
1711;-15,56;-5,95;-15,56;-5,95;4;1,39;4;1,39;0;0;
1728;-11,41;-5,27;-11,41;-5,27;3,41;1,45;3,41;1,45;0;0;
1745;-14;-6,08;-14;-6,08;3,11;1,51;3,11;1,51;0;0;
1764;-15,33;-3,73;-15,33;-3,73;2,84;1,45;2,84;1,45;0;0;
1779;-11,62;-3,18;-11,62;-3,18;2,71;1,51;2,71;1,51;0;0;
1795;-11,62;-3,18;-11,62;-3,18;2,67;1,6;2,67;1,6;0;0;
1810;-18,66;-3,96;-18,66;-3,96;2,67;1,78;2,67;1,78;0;0;
1826;-13,72;-8,96;-13,72;-8,96;2,95;2,22;2,95;2,22;0;0;
1841;-16,28;-6,43;-16,28;-6,43;2,9;2,27;2,9;2,27;0;0;
1858;-14,74;-22,42;-14,74;-22,42;2,8;2,7;2,8;2,7;0;0;
1875;-14,74;-22,42;-14,74;-22,42;2,71;3,14;2,71;3,14;0;0;
1891;-15,85;0,28;-15,85;0,28;2,94;3,46;2,94;3,46;0;0;
1907;-13,97;-5,88;-13,97;-5,88;3,31;3,46;3,31;3,46;0;0;
1924;-17,64;-1,47;-17,64;-1,47;3,04;3,04;3,04;3,04;0;0;
1942;-11,64;-25,19;-11,64;-25,19;2,91;3,99;2,91;3,99;0;0;
1958;-17,22;-60,92;-17,22;-60,92;2,99;7,13;2,99;7,13;0;0;
1974;-17,22;-60,92;-17,22;-60,92;3;10,15;3;10,15;0;0;
1991;-11,85;-11,45;-11,85;-11,45;2,89;10,18;2,89;10,18;0;0;
2008;-16,46;-2,01;-16,46;-2,01;2,69;10,69;2,69;10,69;0;0;
2023;-19,82;-6,67;-19,82;-6,67;2,74;11,02;2,74;11,02;0;0;
2039;-15,97;-7,22;-15,97;-7,22;2,67;9,22;2,67;9,22;0;0;
2056;-13,72;-6,33;-13,72;-6,33;2,45;5,56;2,45;5,56;0;0;
2072;-13,72;-6,33;-13,72;-6,33;2,23;2,6;2,23;2,6;0;0;
2087;-16,93;-5,89;-16,93;-5,89;2,25;4,78;2,25;4,78;0;0;
2103;-13,55;-6,54;-13,55;-6,54;2,35;5,02;2,35;5,02;0;0;
2119;-13,71;-5,34;-13,71;-5,34;2,4;5,29;2,4;5,29;0;0;
2137;-18,52;-8,34;-18,52;-8,34;2,58;5,3;2,58;5,3;0;0;
2152;-18,52;-8,34;-18,52;-8,34;2,8;5,41;2,8;5,41;0;0;
2171;-19,82;0,39;-19,82;0,39;2,8;5,33;2,8;5,33;0;0;
2188;-13,6;6,74;-13,6;6,74;3,05;6,81;3,05;6,81;0;0;
2205;-16,75;-4,73;-16,75;-4,73;3,09;7,29;3,09;7,29;0;0;
2221;-11,33;-14,5;-11,33;-14,5;2,89;8,06;2,89;8,06;0;0;
2237;-13,81;10,03;-13,81;10,03;2,72;11,02;2,72;11,02;0;0;
2253;-13,81;10,03;-13,81;10,03;2,58;13,98;2,58;13,98;0;0;
2270;-16,64;2,82;-16,64;2,82;2,64;10,86;2,64;10,86;0;0;
2286;-12,3;-7,62;-12,3;-7,62;2,69;10,33;2,69;10,33;0;0;
2302;-21,81;-5,23;-21,81;-5,23;2,65;10,78;2,65;10,78;0;0;
2319;-8,75;16,43;-8,75;16,43;2,92;9,6;2,92;9,6;0;0;
2335;-8,75;16,43;-8,75;16,43;3,11;7,35;3,11;7,35;0;0;
2353;-21,67;-8,25;-21,67;-8,25;3,08;5,26;3,08;5,26;0;0;
2371;-20,31;-44,18;-20,31;-44,18;2,97;6,61;2,97;6,61;0;0;
2390;-19,34;-8,51;-19,34;-8,51;3,21;7,1;3,21;7,1;0;0;
2405;-17,36;-12,92;-17,36;-12,92;3,24;7,34;3,24;7,34;0;0;
2423;-13,9;16,59;-13,9;16,59;3,08;7,88;3,08;7,88;0;0;
2438;-28,1;-31,97;-28,1;-31,97;2,91;10,3;2,91;10,3;0;0;
2457;-7,88;-2,1;-7,88;-2,1;3;10,83;3;10,83;0;0;
2472;-7,88;-2,1;-7,88;-2,1;3,19;8,94;3,19;8,94;0;0;
2488;-12,91;-4,51;-12,91;-4,51;3,31;8,24;3,31;8,24;0;0;
2503;-21,77;0,68;-21,77;0,68;3,3;7,75;3,3;7,75;0;0;
2520;-20,67;-0,37;-20,67;-0,37;3,45;6,91;3,45;6,91;0;0;
2537;-18,87;-13,68;-18,87;-13,68;3,37;5,11;3,37;5,11;0;0;
2554;-18,87;-13,68;-18,87;-13,68;3,11;5,59;3,11;5,59;0;0;
2569;-18,28;-1,95;-18,28;-1,95;2,91;7,14;2,91;7,14;0;0;
2585;-15,23;0,48;-15,23;0,48;2,91;7,63;2,91;7,63;0;0;
2601;-12,2;-6,06;-12,2;-6,06;2,88;7,01;2,88;7,01;0;0;
2619;-12,51;-5,37;-12,51;-5,37;2,7;6,38;2,7;6,38;0;0;
2634;-12,51;-5,37;-12,51;-5,37;2,64;5,27;2,64;5,27;0;0;
2651;-13,08;-6,41;-13,08;-6,41;2,59;3,39;2,59;3,39;0;0;
2668;-19,86;-5,49;-19,86;-5,49;2,63;2,34;2,63;2,34;0;0;
2685;-18,03;-4,33;-18,03;-4,33;2,78;1,89;2,78;1,89;0;0;
2701;-18,14;-2,16;-18,14;-2,16;2,74;1,85;2,74;1,85;0;0;
2720;-12,6;-3,76;-12,6;-3,76;2,78;1,76;2,78;1,76;0;0;
2737;-17,4;-16,53;-17,4;-16,53;2,94;2,36;2,94;2,36;0;0;
2752;-17,4;-16,53;-17,4;-16,53;3;2,91;3;2,91;0;0;
2767;-18,66;-42,13;-18,66;-42,13;2,73;5,62;2,73;5,62;0;0;
2782;-15,38;2,33;-15,38;2,33;2,59;7,48;2,59;7,48;0;0;
2800;-18,45;-14,66;-18,45;-14,66;2,79;8,18;2,79;8,18;0;0;
2815;-18,45;-14,66;-18,45;-14,66;2,71;8,74;2,71;8,74;0;0;
2831;-13,93;-4,99;-13,93;-4,99;2,46;8,46;2,46;8,46;0;0;
2845;-17,36;-7,55;-17,36;-7,55;2,19;8,32;2,19;8,32;0;0;
2864;-9,18;-6,5;-9,18;-6,5;2,46;5,56;2,46;5,56;0;0;
2881;-19,42;-5,16;-19,42;-5,16;2,44;4,75;2,44;4,75;0;0;
2895;-22,46;-7,14;-22,46;-7,14;2,49;4,07;2,49;4,07;0;0;
2911;-22,46;-7,14;-22,46;-7,14;2,6;3,6;2,6;3,6;0;0;
2927;-13,57;-8,24;-13,57;-8,24;2,7;2,91;2,7;2,91;0;0;
2944;-13,57;-8,24;-13,57;-8,24;2,55;1,85;2,55;1,85;0;0;
2962;-20,06;2,23;-20,06;2,23;2,49;2,22;2,49;2,22;0;0;
2980;-9,7;-10,8;-9,7;-10,8;2,76;2,58;2,76;2,58;0;0;
2998;-17,01;-3,03;-17,01;-3,03;2,77;3,04;2,77;3,04;0;0;
3017;-17,7;3,11;-17,7;3,11;2,83;4,07;2,83;4,07;0;0;
3037;-14,24;-4,67;-14,24;-4,67;2,89;4,23;2,89;4,23;0;0;
3057;-14,32;14,46;-14,32;14,46;2,85;4,19;2,85;4,19;0;0;
3073;-14,32;14,46;-14,32;14,46;2,89;4,31;2,89;4,31;0;0;
3089;-17,78;1,52;-17,78;1,52;2,62;5,07;2,62;5,07;0;0;
3104;-16,71;-6,44;-16,71;-6,44;2,8;5,47;2,8;5,47;0;0;
3120;-15,81;-0,53;-15,81;-0,53;2,9;5;2,9;5;0;0;
3137;-20,6;-13,67;-20,6;-13,67;2,79;5,78;2,79;5,78;0;0;
3152;-20,6;-13,67;-20,6;-13,67;2,82;6,29;2,82;6,29;0;0;
3169;-14,68;-6,61;-14,68;-6,61;2,78;5,07;2,78;5,07;0;0;
3188;-13,64;-23,16;-13,64;-23,16;2,68;5,3;2,68;5,3;0;0;
3206;-19,45;-4,35;-19,45;-4,35;2,42;5,52;2,42;5,52;0;0;
3223;-19,45;-4,35;-19,45;-4,35;2,46;5,67;2,46;5,67;0;0;
3238;-11,91;3,86;-11,91;3,86;2,48;7,66;2,48;7,66;0;0;
3254;-11,91;3,86;-11,91;3,86;2,55;9,9;2,55;9,9;0;0;
3271;-15,64;-13,74;-15,64;-13,74;2,28;10,86;2,28;10,86;0;0;
3287;-19,04;1,61;-19,04;1,61;2,3;10,04;2,3;10,04;0;0;
3303;-16,74;-5,08;-16,74;-5,08;2,45;12,68;2,45;12,68;0;0;
3319;-16,28;-77,43;-16,28;-77,43;2,42;14,42;2,42;14,42;0;0;
3337;-12,06;-5,31;-12,06;-5,31;2,44;12,16;2,44;12,16;0;0;
3354;-12,06;-5,31;-12,06;-5,31;2,53;11,97;2,53;11,97;0;0;
3370;-14,13;-10,93;-14,13;-10,93;2,71;11,43;2,71;11,43;0;0;
3385;-18,27;-4;-18,27;-4;2,42;10,18;2,42;10,18;0;0;
3402;-17,37;8,88;-17,37;8,88;2,79;7,01;2,79;7,01;0;0;
3419;-12,72;-2;-12,72;-2;2,68;4,53;2,68;4,53;0;0;
3435;-12,72;-2;-12,72;-2;2,57;5,17;2,57;5,17;0;0;
3450;-20,65;-6;-20,65;-6;2,85;7,4;2,85;7,4;0;0;
3467;-13,89;1,01;-13,89;1,01;2,95;9,1;2,95;9,1;0;0;
3482;-13,72;12,11;-13,72;12,11;2,71;13,74;2,71;13,74;0;0;
3499;-20,96;20,91;-20,96;20,91;2,71;14,15;2,71;14,15;0;0;
3515;-20,96;20,91;-20,96;20,91;2,87;14,6;2,87;14,6;0;0;
3531;-1,89;-18,5;-1,89;-18,5;3,78;13,23;3,78;13,23;0;0;
3547;501,72;9,12;501,72;9,12;27,06;11,63;27,06;11,63;1;0;
3564;26,56;-25,67;26,56;-25,67;54,06;10,7;54,06;10,7;1;0;
3579;42,15;-4,1;42,15;-4,1;68,52;8,37;68,52;8,37;1;0;
3601;48,55;-0,84;48,55;-0,84;83,41;7,13;83,41;7,13;1;0;
3658;-223,33;-10,71;-223,33;-10,71;102,81;6,37;102,81;6,37;0;0;
3699;91,06;-6,79;91,06;-6,79;105,23;6,08;105,23;6,08;0;0;
3735;-33,1;-14,04;-33,1;-14,04;74,18;4,68;74,18;4,68;0;0;
3778;-16,49;-9,85;-16,49;-9,85;67,57;3,9;67,57;3,9;0;0;
3831;-42,13;-7,46;-42,13;-7,46;61,82;3,91;61,82;3,91;0;0;
3875;-82,56;-7,72;-82,56;-7,72;56,22;3,97;56,22;3,97;0;0;
3902;-84,24;-1,44;-84,24;-1,44;46,84;3,59;46,84;3,59;0;0;
3966;-0,47;-6,07;-0,47;-6,07;41,62;3,53;41,62;3,53;0;0;
3993;54,49;-3,95;54,49;-3,95;36,72;3,06;36,72;3,06;0;0;
4029;-2,65;0,75;-2,65;0,75;28,75;2,99;28,75;2,99;0;0;
4076;-18,08;-5,48;-18,08;-5,48;23,3;3,1;23,3;3,1;0;0;
4113;-13,82;53,16;-13,82;53,16;18,78;8,75;18,78;8,75;0;0;
4156;-23,33;-69,04;-23,33;-69,04;10,65;13,41;10,65;13,41;0;0;
4187;-16,27;-47,58;-16,27;-47,58;8,9;24,92;8,9;24,92;0;0;
4221;-18,98;-4,32;-18,98;-4,32;4,83;25,74;4,83;25,74;0;0;
4246;-15,56;44,36;-15,56;44,36;3,69;30,7;3,69;30,7;0;0;
4283;-13,78;2,61;-13,78;2,61;3,79;32,32;3,79;32,32;0;0;
4308;-17,6;-4,99;-17,6;-4,99;3,59;25,87;3,59;25,87;0;0;
4349;-16,41;21,09;-16,41;21,09;3,27;25,32;3,27;25,32;0;0;
4386;-12,5;-6,58;-12,5;-6,58;2,7;20,73;2,7;20,73;0;0;
4430;-22,38;11,93;-22,38;11,93;3,06;23,28;3,06;23,28;0;0;
4469;-15,89;18,47;-15,89;18,47;3,34;17,81;3,34;17,81;0;0;
4502;-21,08;-40,09;-21,08;-40,09;3,08;20;3,08;20;0;0;
4541;-16,85;0,23;-16,85;0,23;3,57;18,87;3,57;18,87;0;0;
4558;-16,18;-41,01;-16,18;-41,01;3,95;17,34;3,95;17,34;0;0;
4573;-16,18;-41,01;-16,18;-41,01;4,18;18,18;4,18;18,18;0;0;
4601;-18,86;-15,16;-18,86;-15,16;4,05;22,17;4,05;22,17;0;0;
4628;-12,15;2,2;-12,15;2,2;3,93;28,08;3,93;28,08;0;0;
4685;-7,97;-1,74;-7,97;-1,74;4,25;24,35;4,25;24,35;0;0;
4703;-19,41;-10,47;-19,41;-10,47;3,88;22,52;3,88;22,52;0;0;
4734;-13,11;-4,93;-13,11;-4,93;3,61;18,97;3,61;18,97;0;0;
4767;-21,91;-35,09;-21,91;-35,09;3,77;16,6;3,77;16,6;0;0;
4784;-20,33;-1,82;-20,33;-1,82;3,8;10,8;3,8;10,8;0;0;
4801;-15,58;-4,99;-15,58;-4,99;3,46;6,46;3,46;6,46;0;0;
4819;-9,82;-2,12;-9,82;-2,12;3;6,38;3;6,38;0;0;
4853;-15,31;-16,55;-15,31;-16,55;3,06;9,27;3,06;9,27;0;0;
4882;-17,01;-3,94;-17,01;-3,94;3,15;7,89;3,15;7,89;0;0;
4900;-17,54;-4,95;-17,54;-4,95;2,7;6;2,7;6;0;0;
4918;-17,57;-6,35;-17,57;-6,35;3,06;6,14;3,06;6,14;0;0;
4935;-16,73;-15,48;-16,73;-15,48;3,15;6,4;3,15;6,4;0;0;
4951;-16,73;-15,48;-16,73;-15,48;3,2;5,1;3,2;5,1;0;0;
4976;-23,14;-15,66;-23,14;-15,66;3,07;5,31;3,07;5,31;0;0;
4993;-23,14;-15,66;-23,14;-15,66;3,15;7,29;3,15;7,29;0;0;
5020;-18,96;-9,32;-18,96;-9,32;2,56;6,99;2,56;6,99;0;0;
5055;-14,34;-20,45;-14,34;-20,45;2,8;7,5;2,8;7,5;0;0;
5074;-13,45;4,84;-13,45;4,84;2,78;10,46;2,78;10,46;0;0;
5092;-15,84;1,5;-15,84;1,5;2,72;10,38;2,72;10,38;0;0;
5122;-14,07;-6,62;-14,07;-6,62;2,62;9,59;2,62;9,59;0;0;
5140;-18,49;-18,42;-18,49;-18,42;3,04;8,93;3,04;8,93;0;0;
5158;-16,36;-0,42;-16,36;-0,42;2,63;9,39;2,63;9,39;0;0;
5190;-11,03;42,75;-11,03;42,75;2,43;9,35;2,43;9,35;0;0;
5208;-17,84;-5,27;-17,84;-5,27;2,63;8,18;2,63;8,18;0;0;
5226;-14,68;3,38;-14,68;3,38;2,61;6,78;2,61;6,78;0;0;
5242;-16,41;-7,72;-16,41;-7,72;2,38;7,63;2,38;7,63;0;0;
5261;-14,49;-3,02;-14,49;-3,02;2,35;7,19;2,35;7,19;0;0;
5280;-18,85;-7,67;-18,85;-7,67;2,66;5,82;2,66;5,82;0;0;
5295;-14,31;-12,85;-14,31;-12,85;2,76;7,33;2,76;7,33;0;0;
5311;-14,31;-12,85;-14,31;-12,85;2,96;9,71;2,96;9,71;0;0;
5329;-24,93;12,4;-24,93;12,4;3,14;10,4;3,14;10,4;0;0;
5345;-12,7;-6,81;-12,7;-6,81;3,43;11,04;3,43;11,04;0;0;
5362;-19,59;-2,84;-19,59;-2,84;3,64;11,51;3,64;11,51;0;0;
5377;-14,96;-4,34;-14,96;-4,34;3,65;11,08;3,65;11,08;0;0;
5392;-14,96;-4,34;-14,96;-4,34;3,59;8,78;3,59;8,78;0;0;
5409;-17,72;10,33;-17,72;10,33;3,49;7,32;3,49;7,32;0;0;
5425;-16,39;-17,08;-16,39;-17,08;3,25;7,02;3,25;7,02;0;0;
5441;-17,67;-24,7;-17,67;-24,7;3,09;6,56;3,09;6,56;0;0;
5458;-14,67;2,79;-14,67;2,79;2,96;7,71;2,96;7,71;0;0;
5474;-14,67;2,79;-14,67;2,79;2,93;8,58;2,93;8,58;0;0;
5491;-18,03;-38,48;-18,03;-38,48;3,11;10,92;3,11;10,92;0;0;
5508;-6,03;-36,1;-6,03;-36,1;3,24;11,12;3,24;11,12;0;0;
5527;-16,19;1,04;-16,19;1,04;3,86;11,57;3,86;11,57;0;0;
5544;-10,16;-12,17;-10,16;-12,17;3,59;11,79;3,59;11,79;0;0;
5560;-11,98;-6,3;-11,98;-6,3;3,55;10,28;3,55;10,28;0;0;
5576;-9,73;-19,45;-9,73;-19,45;3,51;9,98;3,51;9,98;0;0;
5592;-9,73;-19,45;-9,73;-19,45;3,8;7,12;3,8;7,12;0;0;
5608;-11,67;1,54;-11,67;1,54;3,99;5,91;3,99;5,91;0;0;
5626;-14,47;-54,05;-14,47;-54,05;3,71;6,68;3,71;6,68;0;0;
5642;-13,5;-1,17;-13,5;-1,17;3,57;6,45;3,57;6,45;0;0;
5659;-12,33;-7,03;-12,33;-7,03;3,59;6,38;3,59;6,38;1;0;
5675;-12,33;-7,03;-12,33;-7,03;3,39;6,02;3,39;6,02;1;0;
5691;-17,35;-7,89;-17,35;-7,89;4,3;5,31;4,3;5,31;1;0;
5712;-16,26;-6,4;-16,26;-6,4;4,05;4,71;4,05;4,71;1;0;
5729;-13,9;-4,72;-13,9;-4,72;4,2;2,28;4,2;2,28;1;0;
5745;-7,47;-1,99;-7,47;-1,99;4,69;1,79;4,69;1,79;1;0;
5761;-14,05;-5,45;-14,05;-5,45;6,1;1,71;6,1;1,71;1;0;
5777;-6,51;-3,61;-6,51;-3,61;6,04;1,62;6,04;1,62;1;0;
5795;-6,51;-3,61;-6,51;-3,61;5,13;1,52;5,13;1,52;1;0;
5812;-426,53;-5,89;-426,53;-5,89;26,28;2,04;26,28;2,04;1;0;
5829;57,11;-5,78;57,11;-5,78;41,91;2,5;41,91;2,5;1;0;
5846;-37,14;-4,61;-37,14;-4,61;47,81;2,58;47,81;2,58;1;0;
5865;228,54;8,31;228,54;8,31;61,9;3;61,9;3;1;0;
5881;-139,86;-16,89;-139,86;-16,89;81,76;4,29;81,76;4,29;1;0;
5898;125,35;-1,35;125,35;-1,35;95,02;4,62;95,02;4,62;0;0;
5917;19,58;-6,11;19,58;-6,11;92,6;4,73;92,6;4,73;0;0;
5937;34,32;-10,2;34,32;-10,2;81,95;4,8;81,95;4,8;0;0;
5952;34,32;-10,2;34,32;-10,2;79,39;4,81;79,39;4,81;0;0;
5969;-6,9;-4,18;-6,9;-4,18;56,78;3,76;56,78;3,76;0;0;
5990;-18,88;-10,38;-18,88;-10,38;39,77;3,05;39,77;3,05;0;0;
6008;-12,99;-2,3;-12,99;-2,3;21,39;2,63;21,39;2,63;0;0;
6025;-24;-7,04;-24;-7,04;14,83;2,09;14,83;2,09;0;0;
6040;-11,83;-4,48;-11,83;-4,48;11;2;11;2;0;0;
6055;-11,83;-4,48;-11,83;-4,48;8,04;2,06;8,04;2,06;0;0;
6072;-11,61;-4,72;-11,61;-4,72;7,04;2;7,04;2;0;0;
6088;-13,6;-4,87;-13,6;-4,87;4,09;1,79;4,09;1,79;0;0;
6103;-7,98;-4,97;-7,98;-4,97;3,43;1,78;3,43;1,78;0;0;
6119;-19,37;-4,92;-19,37;-4,92;3,58;1,58;3,58;1,58;0;0;
6137;-14,64;-7,24;-14,64;-7,24;3,8;1,47;3,8;1,47;0;0;
6155;-14,64;-7,24;-14,64;-7,24;4,07;1,47;4,07;1,47;0;0;
6170;-16,19;-8,04;-16,19;-8,04;3,88;1,56;3,88;1,56;0;0;
6188;-9,82;-2,95;-9,82;-2,95;4,05;1,71;4,05;1,71;0;0;
6205;-21,37;-6,69;-21,37;-6,69;3,58;1,65;3,58;1,65;0;0;
6222;-16,32;-6,32;-16,32;-6,32;3,28;1,68;3,28;1,68;0;0;
6238;-16,78;-0,67;-16,78;-0,67;2,85;1,8;2,85;1,8;0;0;
6253;-16,78;-0,67;-16,78;-0,67;2,71;1,89;2,71;1,89;0;0;
6270;-22,21;11,62;-22,21;11,62;2,72;6;2,72;6;0;0;
6286;-16,32;-5,82;-16,32;-5,82;2,6;7,44;2,6;7,44;0;0;
6304;-15,7;-4,68;-15,7;-4,68;2,53;7,71;2,53;7,71;0;0;
6322;-11,87;-3,51;-11,87;-3,51;2,52;7,97;2,52;7,97;0;0;
6338;-17,79;-35,53;-17,79;-35,53;2,73;9,52;2,73;9,52;0;0;
6353;-17,79;-35,53;-17,79;-35,53;3,03;8,55;3,03;8,55;0;0;
6369;-15,42;-5,96;-15,42;-5,96;2,59;6,74;2,59;6,74;0;0;
6386;-13,7;-13,7;-13,7;-13,7;2,81;7,71;2,81;7,71;0;0;
6404;-18,33;-3,89;-18,33;-3,89;3,01;11,06;3,01;11,06;0;0;
6420;-19,03;39,43;-19,03;39,43;2,94;13,46;2,94;13,46;0;0;
6435;-13,31;10,26;-13,31;10,26;2,87;18,49;2,87;18,49;0;0;
6452;-13,31;10,26;-13,31;10,26;2,89;22,72;2,89;22,72;0;0;
6470;-13,86;-17,75;-13,86;-17,75;3,08;23,27;3,08;23,27;0;0;
6486;-18,04;-3,95;-18,04;-3,95;2,82;19,47;2,82;19,47;0;0;
6502;-14,63;-23,65;-14,63;-23,65;2,84;22,71;2,84;22,71;0;0;
6520;-15,39;-11,98;-15,39;-11,98;2,91;16,35;2,91;16,35;0;0;
6538;-15,22;-58,99;-15,22;-58,99;2,9;12,81;2,9;12,81;0;0;
6554;-15,22;-58,99;-15,22;-58,99;2,88;14,62;2,88;14,62;0;0;
6570;-21,01;17,42;-21,01;17,42;3,05;14,69;3,05;14,69;0;0;
6587;-9,31;4,72;-9,31;4,72;3,28;15,9;3,28;15,9;0;0;
6605;-16,42;-36,93;-16,42;-36,93;3,33;14;3,33;14;0;0;
6623;-19,66;6,6;-19,66;6,6;3,44;14,28;3,44;14,28;0;0;
6639;-15,81;-45,47;-15,81;-45,47;3,35;13,94;3,35;13,94;0;0;
6655;-15,81;-45,47;-15,81;-45,47;3,11;13,34;3,11;13,34;0;0;
6671;-20;-56,62;-20;-56,62;3,16;16,04;3,16;16,04;0;0;
6687;-15,32;14,75;-15,32;14,75;3,02;18,66;3,02;18,66;0;0;
6702;-14,39;-2,74;-14,39;-2,74;2,88;17,41;2,88;17,41;0;0;
6718;-15,33;3,53;-15,33;3,53;3,17;17,04;3,17;17,04;0;0;
6736;-15,33;3,53;-15,33;3,53;3,47;14,83;3,47;14,83;0;0;
6753;-14,29;28,2;-14,29;28,2;3,45;12,92;3,45;12,92;0;0;
6768;-18,37;-2,79;-18,37;-2,79;3,01;10,26;3,01;10,26;0;0;
6784;-18,29;8,66;-18,29;8,66;3,02;9,51;3,02;9,51;0;0;
6803;-13,69;-1,9;-13,69;-1,9;3,37;10,58;3,37;10,58;0;0;
6820;-18,85;-8,59;-18,85;-8,59;3,32;10,67;3,32;10,67;0;0;
6837;-19,8;-14,73;-19,8;-14,73;2,85;13,57;2,85;13,57;0;0;
6854;-19,8;-14,73;-19,8;-14,73;2,76;16,19;2,76;16,19;0;0;
6872;-15,72;1,77;-15,72;1,77;2,78;16,26;2,78;16,26;0;0;
6889;-20,48;-24,16;-20,48;-24,16;3,06;18,27;3,06;18,27;0;0;
6905;-6,31;7,56;-6,31;7,56;2,88;19,95;2,88;19,95;0;0;
6923;-8,28;-2,55;-8,28;-2,55;3,37;19,36;3,37;19,36;0;0;
6942;-19,53;-8,59;-19,53;-8,59;3,57;17,48;3,57;17,48;0;0;
6960;-13,81;-3,05;-13,81;-3,05;3,49;14,42;3,49;14,42;0;0;
6974;-13,81;-3,05;-13,81;-3,05;3,39;13,42;3,39;13,42;0;0;
6993;-20,75;-20,77;-20,75;-20,77;3,82;11,82;3,82;11,82;0;0;
7010;-8,53;3,58;-8,53;3,58;3,68;10,78;3,68;10,78;0;0;
7028;-19,66;1;-19,66;1;3,76;11,28;3,76;11,28;0;0;
7044;-19,66;1;-19,66;1;3,95;11,48;3,95;11,48;0;0;
7060;-12,68;-6,59;-12,68;-6,59;4,04;11,9;4,04;11,9;0;0;
7076;-14,94;0,08;-14,94;0,08;4,09;12,74;4,09;12,74;0;0;
7092;-14,94;0,08;-14,94;0,08;4,04;12,53;4,04;12,53;0;0;
7109;-16;-9,16;-16;-9,16;3,58;10,93;3,58;10,93;0;0;
7127;-14,87;28,7;-14,87;28,7;3,4;13,56;3,4;13,56;0;0;
7150;-20,49;-31,19;-20,49;-31,19;3,2;15,86;3,2;15,86;0;0;
7185;-13,46;-7,63;-13,46;-7,63;3,13;13,09;3,13;13,09;0;0;
7202;-19,69;12,07;-19,69;12,07;3,2;11,43;3,2;11,43;0;0;
7218;-20,51;-2,42;-20,51;-2,42;3,21;12,83;3,21;12,83;0;0;
7234;-20,51;-2,42;-20,51;-2,42;3,32;11,25;3,32;11,25;0;0;
7249;-18,46;-0,12;-18,46;-0,12;3,64;9,31;3,64;9,31;0;0;
7266;-21,22;0,48;-21,22;0,48;3,84;8,34;3,84;8,34;0;0;
7283;-24,63;-6,02;-24,63;-6,02;3,99;8,42;3,99;8,42;0;0;
7298;-16,97;8,05;-16,97;8,05;3,83;7,38;3,83;7,38;0;0;
7314;-16,97;8,05;-16,97;8,05;3,79;6,54;3,79;6,54;0;0;
7331;-13,27;10,77;-13,27;10,77;3,78;9,85;3,78;9,85;0;0;
7348;-15;-12,49;-15;-12,49;3,84;8,73;3,84;8,73;0;0;
7365;-9,51;3,11;-9,51;3,11;3,97;11,83;3,97;11,83;0;0;
7382;-20,19;-7,13;-20,19;-7,13;3,87;12,1;3,87;12,1;0;0;
7402;-13,79;54,67;-13,79;54,67;3,77;13;3,77;13;0;0;
7419;-20,32;-1,31;-20,32;-1,31;3,87;11,36;3,87;11,36;0;0;
7435;-20,32;-1,31;-20,32;-1,31;3,83;11,76;3,83;11,76;0;0;
7450;-14,1;-10,55;-14,1;-10,55;3,46;9,47;3,46;9,47;0;0;
7467;-12,72;-3,7;-12,72;-3,7;3,16;10,28;3,16;10,28;0;0;
7482;-20,28;-4,11;-20,28;-4,11;3,68;10,52;3,68;10,52;0;0;
7499;-6,33;-8,08;-6,33;-8,08;4,4;7,98;4,4;7,98;0;0;
7515;-6,33;-8,08;-6,33;-8,08;5,08;6,25;5,08;6,25;0;0;
7534;-24,82;-8,94;-24,82;-8,94;5,31;5,17;5,31;5,17;0;0;
7549;-12,03;-8,9;-12,03;-8,9;8,91;2,89;8,91;2,89;0;0;
7569;-160,75;-15,58;-160,75;-15,58;16,53;3,33;16,53;3,33;0;0;
7585;-109,48;-4,84;-109,48;-4,84;45,77;4,73;45,77;4,73;1;0;
7602;-82,22;-3,87;-82,22;-3,87;58,73;4,91;58,73;4,91;1;0;
7617;-7,91;-7,62;-7,91;-7,62;64,13;4,94;64,13;4,94;1;0;
7633;-7,91;-7,62;-7,91;-7,62;69,47;4,89;69,47;4,89;1;0;
7648;-21,44;-8,03;-21,44;-8,03;65,16;4,43;65,16;4,43;1;0;
7664;39,11;-8,56;39,11;-8,56;63,93;3,5;63,93;3,5;1;0;
7682;83,44;-2,98;83,44;-2,98;52,21;2,7;52,21;2,7;1;0;
7698;-68,7;-6,4;-68,7;-6,4;59,55;3,07;59,55;3,07;1;0;
7714;-68,7;-6,4;-68,7;-6,4;68,58;3,4;68,58;3,4;1;0;
7733;-276,26;-12,08;-276,26;-12,08;76,14;3,51;76,14;3,51;1;0;
7751;-17,53;-8,3;-17,53;-8,3;68,55;3,27;68,55;3,27;0;0;
7772;-8,72;-3,01;-8,72;-3,01;55,82;3,08;55,82;3,08;0;0;
7792;-23,18;-7,31;-23,18;-7,31;43,91;2,91;43,91;2,91;0;0;
7808;-14,06;-2,49;-14,06;-2,49;29,11;2,53;29,11;2,53;0;0;
7824;-24,63;-8,57;-24,63;-8,57;20,46;2,3;20,46;2,3;0;0;
7842;-2,48;-5,16;-2,48;-5,16;9,86;2,1;9,86;2,1;0;0;
7861;25,04;-10,8;25,04;-10,8;10,12;1,96;10,12;1,96;0;0;
7877;-21,06;-3,2;-21,06;-3,2;11,58;1,89;11,58;1,89;0;0;
7893;-21,06;-3,2;-21,06;-3,2;13,99;1,77;13,99;1,77;0;0;
7912;-12,54;-6,42;-12,54;-6,42;13,76;1,72;13,76;1,72;0;0;
7931;-16,21;-5,71;-16,21;-5,71;12,79;1,83;12,79;1,83;0;0;
7946;-20,2;-1,47;-20,2;-1,47;11,09;1,9;11,09;1,9;0;0;
7964;-9,68;-4,1;-9,68;-4,1;6,32;1,97;6,32;1,97;0;0;
7982;-17,09;-4,46;-17,09;-4,46;3,71;1,89;3,71;1,89;0;0;
7999;-13,97;-3,72;-13,97;-3,72;3,57;2,07;3,57;2,07;0;0;
8014;-13,97;-3,72;-13,97;-3,72;3,82;2,1;3,82;2,1;0;0;
8030;-19,83;-8,53;-19,83;-8,53;3,61;2,09;3,61;2,09;0;0;
8046;-14,77;-2,02;-14,77;-2,02;3,4;2,48;3,4;2,48;0;0;
8063;-15,53;-0,8;-15,53;-0,8;3,4;3,47;3,4;3,47;0;0;
8079;-11,8;-9,15;-11,8;-9,15;3,3;3,54;3,3;3,54;0;0;
8096;-18,43;-14,69;-18,43;-14,69;2,94;10,21;2,94;10,21;0;0;
8110;-18,43;-14,69;-18,43;-14,69;2,54;16,93;2,54;16,93;0;0;
8127;-17,76;-59,85;-17,76;-59,85;2,47;21,37;2,47;21,37;0;0;
8142;-20,8;1,08;-20,8;1,08;2,58;23,09;2,58;23,09;0;0;
8158;-11,91;3,72;-11,91;3,72;2,44;23,25;2,44;23,25;0;0;
8176;-11,82;-21,19;-11,82;-21,19;2,7;21,69;2,7;21,69;0;0;
8194;-11,82;-21,19;-11,82;-21,19;2,96;17,99;2,96;17,99;0;0;
8209;-17,92;5,82;-17,92;5,82;3,1;16,28;3,1;16,28;0;0;
8226;-16,43;3,4;-16,43;3,4;3,27;15,08;3,27;15,08;0;0;
8243;-19,91;-8,38;-19,91;-8,38;3,59;20,45;3,59;20,45;0;0;
8259;-12,27;2,17;-12,27;2,17;3,61;20,8;3,61;20,8;0;0;
8275;-14,03;6,9;-14,03;6,9;3,54;18,42;3,54;18,42;0;0;
8291;-14,03;6,9;-14,03;6,9;3,67;16,14;3,67;16,14;0;0;
8308;-11,99;-94,66;-11,99;-94,66;3,85;19,24;3,85;19,24;0;0;
8325;-15,63;-4,3;-15,63;-4,3;3,92;19,91;3,92;19,91;0;0;
8341;-8,13;-3,99;-8,13;-3,99;3,82;15,18;3,82;15,18;0;0;
8360;-20,77;-4,71;-20,77;-4,71;3,7;14,14;3,7;14,14;0;0;
8375;-20,77;-4,71;-20,77;-4,71;3,58;13,48;3,58;13,48;0;0;
8392;-17,59;-63,58;-17,59;-63,58;3,01;21,12;3,01;21,12;0;0;
8408;-8,79;20,16;-8,79;20,16;2,82;16,13;2,82;16,13;0;0;
8424;-15,08;-4,98;-15,08;-4,98;3,02;14,97;3,02;14,97;0;0;
8442;-17,38;-9,33;-17,38;-9,33;3,16;15,21;3,16;15,21;0;0;
8457;-13,39;-6,01;-13,39;-6,01;3,11;15,32;3,11;15,32;0;0;
8472;-13,39;-6,01;-13,39;-6,01;3,28;11,43;3,28;11,43;0;0;
8487;-22,44;-37,41;-22,44;-37,41;3,55;11,67;3,55;11,67;0;0;
8503;-14,15;-10,63;-14,15;-10,63;3,12;10,79;3,12;10,79;0;0;
8521;-16,33;-11,04;-16,33;-11,04;3,23;11,37;3,23;11,37;1;0;
8538;-14,36;-1,74;-14,36;-1,74;3,68;11,07;3,68;11,07;1;0;
8555;-14,36;-1,74;-14,36;-1,74;4,38;11,03;4,38;11,03;1;0;
8573;-15,03;-12,53;-15,03;-12,53;4,29;7,49;4,29;7,49;1;0;
8589;-18,7;-2,24;-18,7;-2,24;4,55;3,64;4,55;3,64;1;0;
8611;106,79;-5,35;106,79;-5,35;9,67;3,02;9,67;3,02;1;0;
8627;-18,2;-1,18;-18,2;-1,18;23,77;3,28;23,77;3,28;1;0;
8642;95,25;-12,55;95,25;-12,55;40,8;3,2;40,8;3,2;1;0;
8658;-215,57;-2,02;-215,57;-2,02;64,09;4,22;64,09;4,22;1;0;
8675;-215,57;-2,02;-215,57;-2,02;87,49;4,91;87,49;4,91;1;0;
8693;-17,83;-7,43;-17,83;-7,43;87,68;4,71;87,68;4,71;0;0;
8711;-187,15;-8,87;-187,15;-8,87;82;4,37;82;4,37;0;0;
8730;110,83;-8,42;110,83;-8,42;79,85;4,24;79,85;4,24;0;0;
8746;25,9;-9,39;25,9;-9,39;62,9;4,03;62,9;4,03;0;0;
8764;7,4;-2,93;7,4;-2,93;43,09;3,13;43,09;3,13;0;0;
8781;-22,14;-5,36;-22,14;-5,36;27,87;2,23;27,87;2,23;0;0;
8798;-22,14;-5,36;-22,14;-5,36;28,09;2,19;28,09;2,19;0;0;
8814;-22,14;-5,36;-22,14;-5,36;17,36;1,92;17,36;1,92;0;0;
8830;-28,76;-3,74;-28,76;-3,74;12,17;1,92;12,17;1,92;0;0;
8851;-13,05;-6,33;-13,05;-6,33;7,33;1,61;7,33;1,61;0;0;
8871;-18,69;-4,25;-18,69;-4,25;5,72;1,56;5,72;1,56;0;0;
8888;-12,46;-4,72;-12,46;-4,72;4,77;1,67;4,77;1,67;0;0;
8905;-29,82;-8,38;-29,82;-8,38;4,81;1,65;4,81;1,65;0;0;
8921;-14,86;-2,16;-14,86;-2,16;4,58;1,63;4,58;1,63;0;0;
8937;-11,97;-5,17;-11,97;-5,17;4,05;1,83;4,05;1,83;0;0;
8952;-11,97;-5,17;-11,97;-5,17;3,44;1,91;3,44;1,91;0;0;
8967;-19,84;-2,99;-19,84;-2,99;3,97;2,12;3,97;2,12;0;0;
8983;-18,59;-8,58;-18,59;-8,58;3,29;2,22;3,29;2,22;0;0;
9001;-11,56;-0,7;-11,56;-0,7;2,77;2,23;2,77;2,23;0;0;
9017;-11,48;-7,39;-11,48;-7,39;2,83;2,18;2,83;2,18;0;0;
9033;-11,48;-7,39;-11,48;-7,39;2,86;2,1;2,86;2,1;0;0;
9049;-16,45;-5,22;-16,45;-5,22;2,6;1,86;2,6;1,86;0;0;
9065;-16,49;-3,39;-16,49;-3,39;2,29;1,63;2,29;1,63;0;0;
9080;-16,96;-6,34;-16,96;-6,34;2,68;1,47;2,68;1,47;0;0;
9096;-19,63;-4,95;-19,63;-4,95;2,97;1,57;2,97;1,57;0;0;
9112;-19,63;-4,95;-19,63;-4,95;3,27;1,64;3,27;1,64;0;0;
9128;-17,46;-2,26;-17,46;-2,26;3,19;1,63;3,19;1,63;0;0;
9144;-16,35;-9,74;-16,35;-9,74;2,93;2,01;2,93;2,01;0;0;
9162;-8,53;-4,56;-8,53;-4,56;2,93;2,15;2,93;2,15;0;0;
9177;-8,53;-4,56;-8,53;-4,56;2,57;2,05;2,57;2,05;0;0;
9195;-8,53;-4,56;-8,53;-4,56;2,29;2,01;2,29;2,01;0;0;
9210;-13,58;-5,73;-13,58;-5,73;2,11;2,07;2,11;2,07;0;0;
9226;-17,57;-7,31;-17,57;-7,31;2,22;1,92;2,22;1,92;0;0;
9241;-20,07;-4,19;-20,07;-4,19;2,38;1,69;2,38;1,69;0;0;
9258;-12,65;-6,32;-12,65;-6,32;2,37;1,64;2,37;1,64;0;0;
9272;-12,65;-6,32;-12,65;-6,32;2,36;1,58;2,36;1,58;0;0;
9290;-20,75;-6,29;-20,75;-6,29;2,42;1,49;2,42;1,49;0;0;
9306;-13,85;-4,44;-13,85;-4,44;2,93;1,52;2,93;1,52;0;0;
9322;-17,77;-5,73;-17,77;-5,73;3,09;1,52;3,09;1,52;0;0;
9340;-13,93;-6,94;-13,93;-6,94;3,22;1,68;3,22;1,68;0;0;
9358;-21,36;-5,9;-21,36;-5,9;3,1;1,56;3,1;1,56;0;0;
9373;-21,36;-5,9;-21,36;-5,9;2,86;1,44;2,86;1,44;0;0;
9388;-13,68;-7,23;-13,68;-7,23;2,89;1,37;2,89;1,37;0;0;
9404;-19,99;-7,6;-19,99;-7,6;2,92;1,49;2,92;1,49;0;0;
9423;-16,01;-8,42;-16,01;-8,42;2,81;1,56;2,81;1,56;0;0;
9438;-10,47;-6,34;-10,47;-6,34;3,13;1,56;3,13;1,56;0;0;
9455;-10,47;-6,34;-10,47;-6,34;3,6;1,7;3,6;1,7;0;0;
9470;-19,68;-6,08;-19,68;-6,08;3,59;1,63;3,59;1,63;0;0;
9488;-13,79;-7,56;-13,79;-7,56;3,15;1,63;3,15;1,63;0;0;
9503;-10,86;-5,22;-10,86;-5,22;3,65;1,57;3,65;1,57;0;0;
9521;-14,14;-3,96;-14,14;-3,96;3,55;1,54;3,55;1,54;0;0;
9539;-10,94;-4,53;-10,94;-4,53;3,41;1,44;3,41;1,44;0;0;
9557;-20,94;-1,97;-20,94;-1,97;4,52;1,56;4,52;1,56;0;0;
9572;-20,94;-1,97;-20,94;-1,97;5,89;1,73;5,89;1,73;0;0;
9589;-14,75;-3,99;-14,75;-3,99;5,45;1,72;5,45;1,72;0;0;
9605;-19,82;-6,81;-19,82;-6,81;5,12;1,84;5,12;1,84;0;0;
9624;-22,04;-7,07;-22,04;-7,07;5,08;1,78;5,08;1,78;0;0;
9639;-16,13;-8,88;-16,13;-8,88;4,64;2,01;4,64;2,01;0;0;
9655;-16,13;-8,88;-16,13;-8,88;3,23;2,03;3,23;2,03;0;0;
9673;-8,25;-4,99;-8,25;-4,99;2,67;2,09;2,67;2,09;0;0;
9690;-8,25;-4,99;-8,25;-4,99;3,38;2,31;3,38;2,31;0;0;
9709;-19,82;-2,3;-19,82;-2,3;3,39;2,13;3,39;2,13;0;0;
9726;-20,1;-7,08;-20,1;-7,08;3,63;2,18;3,63;2,18;0;0;
9742;-20,1;-7,08;-20,1;-7,08;3,94;2,11;3,94;2,11;0;0;
9761;-12,94;-4,72;-12,94;-4,72;3,61;1,8;3,61;1,8;0;0;
9777;-13,38;-5,38;-13,38;-5,38;3,09;1,5;3,09;1,5;0;0;
9792;-13,38;-5,38;-13,38;-5,38;2,9;1,44;2,9;1,44;0;0;
9808;-15,99;-7,9;-15,99;-7,9;2,67;1,4;2,67;1,4;0;0;
9825;-16,39;-3,59;-16,39;-3,59;2,57;1,36;2,57;1,36;0;0;
9842;-12,7;-5,72;-12,7;-5,72;2,43;1,35;2,43;1,35;0;0;
9858;-21,65;-12,24;-21,65;-12,24;2,49;1,52;2,49;1,52;0;0;
9876;-20,21;-4,19;-20,21;-4,19;2,7;1,94;2,7;1,94;0;0;
9894;-20,21;-4,19;-20,21;-4,19;2,92;2,38;2,92;2,38;0;0;
9910;-20,58;-8,43;-20,58;-8,43;3,06;2,61;3,06;2,61;0;0;
9930;-15,97;-6,7;-15,97;-6,7;3,21;2,66;3,21;2,66;0;0;
9946;-13,05;-4,01;-13,05;-4,01;3,15;2,73;3,15;2,73;0;0;
9964;-15,59;-5,05;-15,59;-5,05;3,03;2,39;3,03;2,39;0;0;
9980;-14,47;-7,86;-14,47;-7,86;2,79;2,06;2,79;2,06;0;0;
9999;-13,13;-5,71;-13,13;-5,71;2,86;1,72;2,86;1,72;0;0;
10015;-13,13;-5,71;-13,13;-5,71;2,75;1,43;2,75;1,43;0;0;
10031;-19,67;-7,07;-19,67;-7,07;2,76;1,34;2,76;1,34;0;0;
10053;-17,33;-4,33;-17,33;-4,33;2,77;1,26;2,77;1,26;0;0;
10070;-17,33;-4,33;-17,33;-4,33;2,76;1,36;2,76;1,36;0;0;
10087;-16,78;-4,6;-16,78;-4,6;2,91;1,43;2,91;1,43;0;0;
10103;-15,67;-5,69;-15,67;-5,69;2,8;1,63;2,8;1,63;0;0;
10119;-18,99;-3,37;-18,99;-3,37;2,53;1,7;2,53;1,7;0;0;
10136;-18,92;-8,38;-18,92;-8,38;2,45;1,64;2,45;1,64;0;0;
10151;-18,92;-8,38;-18,92;-8,38;2,47;1,58;2,47;1,58;0;0;
10166;-15,83;-4,98;-15,83;-4,98;2,37;1,46;2,37;1,46;0;0;
10182;-24,74;-5,16;-24,74;-5,16;2,25;1,39;2,25;1,39;0;0;
10200;-11,49;-6,81;-11,49;-6,81;2,42;1,45;2,42;1,45;0;0;
10217;-18,09;-4,83;-18,09;-4,83;2,55;1,36;2,55;1,36;0;0;
10233;-18,09;-4,83;-18,09;-4,83;2,61;1,28;2,61;1,28;0;0;
10248;-14,69;-3,92;-14,69;-3,92;2,46;1,18;2,46;1,18;0;0;
10263;-8,96;-3,61;-8,96;-3,61;2,36;1,35;2,36;1,35;0;0;
10279;-15,86;-4,72;-15,86;-4,72;2,4;1,26;2,4;1,26;0;0;
10295;-15,86;-4,72;-15,86;-4,72;2,19;1,17;2,19;1,17;0;0;
10313;-15,49;-7,01;-15,49;-7,01;2,02;1,37;2,02;1,37;0;0;
10328;-12,23;0,83;-12,23;0,83;2,16;1,69;2,16;1,69;0;0;
10344;-18;-7,68;-18;-7,68;2,22;1,86;2,22;1,86;0;0;
10361;-12,93;-6,17;-12,93;-6,17;2,44;1,92;2,44;1,92;0;0;
10380;-18,27;-4,9;-18,27;-4,9;2,42;1,98;2,42;1,98;0;0;
10396;-22,36;-6,87;-22,36;-6,87;2,77;2,07;2,77;2,07;0;0;
10412;-22,36;-6,87;-22,36;-6,87;2,95;1,78;2,95;1,78;0;0;
10429;-15,33;-5,21;-15,33;-5,21;3,01;1,71;3,01;1,71;0;0;
10444;-15,51;-7,05;-15,51;-7,05;3,08;1,65;3,08;1,65;0;0;
10461;-17,55;-7,05;-17,55;-7,05;2,94;1,6;2,94;1,6;0;0;
10478;-11,06;-7,06;-11,06;-7,06;3,19;1,64;3,19;1,64;0;0;
10494;-11,06;-7,06;-11,06;-7,06;3,36;1,64;3,36;1,64;0;0;
10510;-7,23;-3,77;-7,23;-3,77;3,45;1,63;3,45;1,63;0;0;
10527;-19,9;-8,38;-19,9;-8,38;3,41;1,8;3,41;1,8;0;0;
10545;-13,59;-2,74;-13,59;-2,74;3,52;1,91;3,52;1,91;0;0;
10563;-16,67;-7,74;-16,67;-7,74;3,79;1,94;3,79;1,94;0;0;
10580;-15,88;-3,18;-15,88;-3,18;3,67;1,97;3,67;1,97;0;0;
10596;-12,64;-1,93;-12,64;-1,93;3,27;2,09;3,27;2,09;0;0;
10612;-12,64;-1,93;-12,64;-1,93;3,1;2,09;3,1;2,09;0;0;
10627;-16,97;-6,57;-16,97;-6,57;3,19;1,86;3,19;1,86;0;0;
10643;-14,21;-7,4;-14,21;-7,4;3,01;1,74;3,01;1,74;0;0;
10659;-13,93;-6,89;-13,93;-6,89;2,56;1,68;2,56;1,68;0;0;
10676;-7,78;-4,22;-7,78;-4,22;2,67;1,73;2,67;1,73;0;0;
10693;-7,78;-4,22;-7,78;-4,22;2,67;1,72;2,67;1,72;0;0;
10711;-15,9;-4,12;-15,9;-4,12;2,48;1,49;2,48;1,49;0;0;
10730;-21,12;-3,74;-21,12;-3,74;2,67;1,66;2,67;1,66;0;0;
10746;-13,22;-8,01;-13,22;-8,01;2,6;1,81;2,6;1,81;0;0;
10764;-12,72;-3,39;-12,72;-3,39;2,64;1,76;2,64;1,76;0;0;
10781;-10,05;-7,58;-10,05;-7,58;2,75;1,57;2,75;1,57;0;0;
10796;-14,17;-8,35;-14,17;-8,35;2,78;1,83;2,78;1,83;0;0;
10814;-14,17;-8,35;-14,17;-8,35;2,79;2,17;2,79;2,17;0;0;
10829;-20,34;-4,47;-20,34;-4,47;2,57;2,34;2,57;2,34;0;0;
10845;-14,99;-7,94;-14,99;-7,94;2,96;2,33;2,96;2,33;0;0;
10861;-18,33;-6,85;-18,33;-6,85;2,84;2,43;2,84;2,43;0;0;
10877;-12,49;-7,4;-12,49;-7,4;2,5;2,24;2,5;2,24;0;0;
10892;-12,49;-7,4;-12,49;-7,4;2,35;1,81;2,35;1,81;0;0;
10908;-17,53;-5,09;-17,53;-5,09;2,33;1,5;2,33;1,5;0;0;
10923;-10,82;-7,13;-10,82;-7,13;2,22;1,45;2,22;1,45;0;0;
10940;-7,13;-3,72;-7,13;-3,72;2,32;1,4;2,32;1,4;0;0;
10956;-15,07;-3,17;-15,07;-3,17;2,57;1,35;2,57;1,35;0;0;
10974;-15,07;-3,17;-15,07;-3,17;2,79;1,39;2,79;1,39;0;0;
10989;-26,99;-2,85;-26,99;-2,85;2,93;1,59;2,93;1,59;0;0;
11006;-12,32;-3,64;-12,32;-3,64;2,88;1,57;2,88;1,57;0;0;
11023;-17,59;-4,66;-17,59;-4,66;3,19;1,46;3,19;1,46;0;0;
11039;0,16;-5,42;0,16;-5,42;3,24;1,65;3,24;1,65;0;0;
11054;0,16;-5,42;0,16;-5,42;3,24;1,87;3,24;1,87;0;0;
11071;-16,49;-6,18;-16,49;-6,18;2,94;1,84;2,94;1,84;0;0;
11087;-11,31;-3,6;-11,31;-3,6;2,92;1,8;2,92;1,8;0;0;
11102;-20,24;-8,85;-20,24;-8,85;3,42;1,98;3,42;1,98;0;0;
11120;-6,6;-4,06;-6,6;-4,06;3,44;2,14;3,44;2,14;0;0;
11137;-14,78;-8,41;-14,78;-8,41;3,49;1,93;3,49;1,93;0;0;
11152;-14,78;-8,41;-14,78;-8,41;3,57;1,69;3,57;1,69;0;0;
11168;-19,12;-7,75;-19,12;-7,75;3,59;1,61;3,59;1,61;0;0;
11184;-19,09;-4,72;-19,09;-4,72;3,34;1,51;3,34;1,51;0;0;
11201;-21,58;-3,2;-21,58;-3,2;3,1;1,38;3,1;1,38;0;0;
11221;-15,93;-7,05;-15,93;-7,05;2,84;1,46;2,84;1,46;0;0;
11236;-14,09;-2,76;-14,09;-2,76;2,72;1,57;2,72;1,57;0;0;
11253;-14,09;-2,76;-14,09;-2,76;2,69;1,71;2,69;1,71;0;0;
11270;-22,74;-6,7;-22,74;-6,7;2,63;1,69;2,63;1,69;0;0;
11289;-17,98;-2,13;-17,98;-2,13;2,59;1,79;2,59;1,79;0;0;
11305;-11,19;-4,72;-11,19;-4,72;2,77;1,68;2,77;1,68;0;0;
11325;-13,18;-6,07;-13,18;-6,07;2,83;1,55;2,83;1,55;0;0;
11342;-15,66;-3,56;-15,66;-3,56;2,91;1,52;2,91;1,52;0;0;
11358;-13,54;-7,06;-13,54;-7,06;3,21;1,67;3,21;1,67;0;0;
11375;-13,54;-7,06;-13,54;-7,06;3,31;1,97;3,31;1,97;0;0;
11391;-15,85;-2,7;-15,85;-2,7;3,4;1,94;3,4;1,94;0;0;
11407;-16,79;-5,92;-16,79;-5,92;3,05;1,97;3,05;1,97;0;0;
11423;-16,49;-7,37;-16,49;-7,37;2,89;1,95;2,89;1,95;0;0;
11439;-18,56;-4,37;-18,56;-4,37;2,75;1,91;2,75;1,91;0;0;
11457;-15,27;-8,28;-15,27;-8,28;2,56;1,87;2,56;1,87;0;0;
11474;-15,27;-8,28;-15,27;-8,28;2,51;1,88;2,51;1,88;0;0;
11493;-15,81;-9,01;-15,81;-9,01;2,37;1,9;2,37;1,9;0;0;
11510;-14,33;-4,61;-14,33;-4,61;2,75;1,91;2,75;1,91;0;0;
11525;-18,54;-4,2;-18,54;-4,2;2,63;1,79;2,63;1,79;0;0;
11541;-15,46;-7,54;-15,46;-7,54;2,52;1,8;2,52;1,8;0;0;
11556;-22,74;-8;-22,74;-8;2,61;1,66;2,61;1,66;0;0;
11570;-22,74;-8;-22,74;-8;2,72;1,56;2,72;1,56;0;0;
11585;-12,47;-8,6;-12,47;-8,6;2,91;1,43;2,91;1,43;0;0;
11603;-19,93;-4,76;-19,93;-4,76;2,52;1,45;2,52;1,45;0;0;
11620;-18,99;-4,59;-18,99;-4,59;2,59;1,5;2,59;1,5;0;0;
11634;-18,99;-4,59;-18,99;-4,59;2,89;1,55;2,89;1,55;0;0;
11652;-16,13;-9,73;-16,13;-9,73;2,74;1,74;2,74;1,74;0;0;
11669;-26,3;-7,2;-26,3;-7,2;2,77;1,67;2,77;1,67;0;0;
11685;-9,32;-5,75;-9,32;-5,75;2,94;1,69;2,94;1,69;0;0;
11701;-22,06;-6,93;-22,06;-6,93;3,04;1,75;3,04;1,75;0;0;
11717;-17,17;-4,4;-17,17;-4,4;3;1,87;3;1,87;0;0;
11734;-17,17;-4,4;-17,17;-4,4;2,96;2,06;2,96;2,06;0;0;
11750;-21,49;-4,85;-21,49;-4,85;3,08;1,79;3,08;1,79;0;0;
11769;-17,61;-6,7;-17,61;-6,7;2,77;1,87;2,77;1,87;0;0;
11785;-19,18;-4,71;-19,18;-4,71;2,52;1,89;2,52;1,89;0;0;
11803;-14,74;-8,19;-14,74;-8,19;2,33;1,94;2,33;1,94;0;0;
11821;-11,27;-7,65;-11,27;-7,65;2,61;1,84;2,61;1,84;0;0;
11836;-14,26;-4,43;-14,26;-4,43;2,74;1,84;2,74;1,84;0;0;
11854;-14,26;-4,43;-14,26;-4,43;2,8;1,79;2,8;1,79;0;0;
11871;-15,34;-7,9;-15,34;-7,9;2,86;1,78;2,86;1,78;0;0;
11888;-15,11;1,04;-15,11;1,04;2,73;2,09;2,73;2,09;0;0;
11903;-15,11;1,04;-15,11;1,04;2,5;2,12;2,5;2,12;0;0;
11921;-17;-5,4;-17;-5,4;2,22;2,02;2,22;2,02;0;0;
11937;-17,74;-5,53;-17,74;-5,53;2,07;2;2,07;2;0;0;
11952;-17,74;-5,53;-17,74;-5,53;2,06;2,04;2,06;2,04;0;0;
11969;-10,18;-7,16;-10,18;-7,16;2,33;2;2,33;2;0;0;
11987;-23,59;-8,38;-23,59;-8,38;2,96;1,87;2,96;1,87;0;0;
12004;-18,55;-6,44;-18,55;-6,44;3,23;1,81;3,23;1,81;0;0;
12022;-15,46;-6,21;-15,46;-6,21;3,18;1,71;3,18;1,71;0;0;
12040;-18,7;-3,87;-18,7;-3,87;3,18;1,69;3,18;1,69;0;0;
12056;-19,18;7,87;-19,18;7,87;3,2;1,84;3,2;1,84;0;0;
12073;-19,18;7,87;-19,18;7,87;2,92;1,9;2,92;1,9;0;0;
12089;-6,67;-11,46;-6,67;-11,46;2,39;4,08;2,39;4,08;0;0;
12105;-16,69;-6,77;-16,69;-6,77;2,67;4,24;2,67;4,24;0;0;
12120;-16,6;-3,49;-16,6;-3,49;2,71;4,18;2,71;4,18;0;0;
12136;-17,39;-7,55;-17,39;-7,55;2,55;4,45;2,55;4,45;0;0;
12153;-17,39;-7,55;-17,39;-7,55;2,42;4,54;2,42;4,54;0;0;
12170;-17,25;-6,29;-17,25;-6,29;2,5;3,86;2,5;3,86;0;0;
12187;-21,93;-7,15;-21,93;-7,15;2,3;2,17;2,3;2,17;0;0;
12204;-18,85;-3,22;-18,85;-3,22;2,48;2,1;2,48;2,1;0;0;
12219;-19,82;-7,76;-19,82;-7,76;2,71;2,14;2,71;2,14;0;0;
12234;-19,82;-7,76;-19,82;-7,76;3,01;1,96;3,01;1,96;0;0;
12249;-15,06;-4,72;-15,06;-4,72;3,22;1,74;3,22;1,74;0;0;
12265;-13,73;0,05;-13,73;0,05;3,34;1,83;3,34;1,83;0;0;
12282;-17,77;-2,29;-17,77;-2,29;3,01;1,83;3,01;1,83;0;0;
12296;-16,35;-12,78;-16,35;-12,78;2,69;2,04;2,69;2,04;0;0;
12312;-16,35;-12,78;-16,35;-12,78;2,34;2,23;2,34;2,23;0;0;
12329;-10,34;-5,9;-10,34;-5,9;2,27;2,15;2,27;2,15;0;0;
12345;-20,9;-4,96;-20,9;-4,96;2,34;2,1;2,34;2,1;0;0;
12360;-24,24;-3,99;-24,24;-3,99;2,75;1,99;2,75;1,99;0;0;
12376;-16,14;-5,74;-16,14;-5,74;3,44;3,79;3,44;3,79;0;0;
12391;-16,14;-5,74;-16,14;-5,74;4,15;5,43;4,15;5,43;0;0;
12409;-22,83;-8,28;-22,83;-8,28;4,62;5,29;4,62;5,29;0;0;
12426;-16,53;-8,08;-16,53;-8,08;4,4;5,46;4,4;5,46;0;0;
12442;-12,89;-3,19;-12,89;-3,19;4,04;5,64;4,04;5,64;0;0;
12461;-14,33;-3,25;-14,33;-3,25;3,75;4,94;3,75;4,94;0;0;
12480;-18,82;-9,59;-18,82;-9,59;3,4;4,64;3,4;4,64;0;0;
12497;-12,67;-6,13;-12,67;-6,13;2,82;3,76;2,82;3,76;0;0;
12513;-12,67;-6,13;-12,67;-6,13;2,49;3,97;2,49;3,97;0;0;
12528;-10,74;-3,03;-10,74;-3,03;2,6;3,98;2,6;3,98;0;0;
12547;-17,28;-7,16;-17,28;-7,16;2,74;3,98;2,74;3,98;1;0;
12562;-19,08;-6,04;-19,08;-6,04;2,64;3,59;2,64;3,59;1;0;
12578;-14,58;-8,27;-14,58;-8,27;2,79;2,52;2,79;2,52;1;0;
12593;-14,58;-8,27;-14,58;-8,27;3,06;2,34;3,06;2,34;1;0;
12608;-21,93;-28,08;-21,93;-28,08;3,12;4,89;3,12;4,89;1;0;
12624;-10,02;2,49;-10,02;2,49;3,27;6,57;3,27;6,57;1;0;
12640;21,96;-3,24;21,96;-3,24;5,49;6,91;5,49;6,91;1;0;
12655;-196,98;-6,23;-196,98;-6,23;16,23;7,28;16,23;7,28;1;0;
12673;-196,98;-6,23;-196,98;-6,23;26,68;7,54;26,68;7,54;1;0;
12688;4,11;-6,7;4,11;-6,7;33,65;6,17;33,65;6,17;1;0;
12704;-14,99;-4,98;-14,99;-4,98;34,48;3,15;34,48;3,15;1;0;
12720;-7,92;-6,24;-7,92;-6,24;34,3;2,52;34,3;2,52;1;0;
12738;-252;-1,72;-252;-1,72;46,14;2,48;46,14;2,48;1;0;
12756;54,35;3,76;54,35;3,76;47,53;3,31;47,53;3,31;1;0;
12775;54,35;3,76;54,35;3,76;46,74;4,27;46,74;4,27;1;0;
12791;-132,14;-5,71;-132,14;-5,71;51,35;4,42;51,35;4,42;1;0;
12810;73,57;-2,88;73,57;-2,88;60,67;4,55;60,67;4,55;1;0;
12828;19,42;-7,06;19,42;-7,06;67,99;4,4;67,99;4,4;1;0;
12844;-21,42;-8,12;-21,42;-8,12;52,37;3,7;52,37;3,7;1;0;
12862;-9,48;-11,39;-9,48;-11,39;46,17;2,52;46,17;2,52;1;0;
12879;16,49;-3,51;16,49;-3,51;39,25;1,92;39,25;1,92;0;0;
12896;-99,36;-3,22;-99,36;-3,22;36,91;2;36,91;2;0;0;
12912;-99,36;-3,22;-99,36;-3,22;32,76;2,01;32,76;2,01;0;0;
12936;-18,47;-4,66;-18,47;-4,66;22,81;2,09;22,81;2,09;0;0;
12955;-24,01;-6,47;-24,01;-6,47;16,67;2,09;16,67;2,09;0;0;
12975;-43,94;-6,37;-43,94;-6,37;15,73;2,03;15,73;2,03;0;0;
12995;-21,12;-6,32;-21,12;-6,32;13,01;1,86;13,01;1,86;0;0;
13015;-17;-6,94;-17;-6,94;8,17;1,99;8,17;1,99;0;0;
13033;-10,74;-5,34;-10,74;-5,34;5,33;2,21;5,33;2,21;0;0;
13051;-9,51;-7,7;-9,51;-7,7;5,08;2,72;5,08;2,72;0;0;
13069;-15,96;-0,47;-15,96;-0,47;4,72;3,61;4,72;3,61;0;0;
13086;-8,76;8,39;-8,76;8,39;3,58;7,58;3,58;7,58;0;0;
13102;-17,8;-8,67;-17,8;-8,67;3,19;9,43;3,19;9,43;0;0;
13118;-16,65;-2,14;-16,65;-2,14;3,23;11,72;3,23;11,72;0;0;
13137;-15,7;-30,58;-15,7;-30,58;3,03;13,86;3,03;13,86;0;0;
13152;-15,7;-30,58;-15,7;-30,58;3,04;15,86;3,04;15,86;0;0;
13167;-11,94;-1,38;-11,94;-1,38;3,49;16,43;3,49;16,43;0;0;
13184;-17,43;-2,82;-17,43;-2,82;3,84;14,91;3,84;14,91;0;0;
13201;-11,95;-6,34;-11,95;-6,34;3,83;13,07;3,83;13,07;0;0;
13218;-13,61;7,78;-13,61;7,78;4,21;11,61;4,21;11,61;0;0;
13233;-13,61;7,78;-13,61;7,78;4,19;9,57;4,19;9,57;0;0;
13250;-18,26;-0,25;-18,26;-0,25;3,95;5,8;3,95;5,8;0;0;
13267;-11,31;6,01;-11,31;6,01;3,76;7,9;3,76;7,9;0;0;
13283;-14,18;-7,2;-14,18;-7,2;3,76;7,63;3,76;7,63;0;0;
13300;-17,21;0,4;-17,21;0,4;3,54;7,91;3,54;7,91;1;0;
13315;-17,21;0,4;-17,21;0,4;3,56;7,93;3,56;7,93;1;0;
13332;-17,19;-40,04;-17,19;-40,04;3,75;8,99;3,75;8,99;1;0;
13347;-20,48;-7,03;-20,48;-7,03;3,74;8,31;3,74;8,31;1;0;
13363;-17,75;22,36;-17,75;22,36;3,2;13,52;3,2;13,52;1;0;
13381;-19,31;-7,18;-19,31;-7,18;2,91;15,35;2,91;15,35;1;0;
13397;-16,45;-20,17;-16,45;-20,17;2,96;17,19;2,96;17,19;1;0;
13413;-16,45;-20,17;-16,45;-20,17;3,02;18,87;3,02;18,87;1;0;
13431;-20,63;-5,97;-20,63;-5,97;3,33;16,33;3,33;16,33;1;0;
13446;17,6;3,78;17,6;3,78;5,35;11,29;5,35;11,29;1;0;
13462;89,7;-6,18;89,7;-6,18;15,62;7,9;15,62;7,9;1;0;
13480;105,16;-4,19;105,16;-4,19;31,87;7,71;31,87;7,71;1;0;
13497;398,93;7,92;398,93;7,92;71,46;6,13;71,46;6,13;1;0;
13514;398,93;7,92;398,93;7,92;110,95;4,83;110,95;4,83;1;0;
13531;79,49;-15,32;79,49;-15,32;128,21;5,34;128,21;5,34;0;0;
13548;-18,86;-2,06;-18,86;-2,06;136,34;5,02;136,34;5,02;0;0;
13567;131,1;-6,31;131,1;-6,31;124,87;4,68;124,87;4,68;0;0;
13584;-7,8;-6,66;-7,8;-6,66;119,58;4,51;119,58;4,51;0;0;
13602;-2,93;2,11;-2,93;2,11;85,49;3,88;85,49;3,88;0;0;
13617;-22,08;-9,63;-22,08;-9,63;50,21;3,41;50,21;3,41;0;0;
13634;-22,08;-9,63;-22,08;-9,63;35,12;3,22;35,12;3,22;0;0;
13651;-46,43;-8,07;-46,43;-8,07;32,49;3,09;32,49;3,09;0;0;
13670;-20,16;-0,7;-20,16;-0,7;22,39;2,47;22,39;2,47;0;0;
13687;-7,89;-3,84;-7,89;-3,84;18,88;2,46;18,88;2,46;0;0;
13703;-9,53;-4,87;-9,53;-4,87;14,88;2,23;14,88;2,23;0;0;
13717;-1,38;-9,47;-1,38;-9,47;17,63;2,24;17,63;2,24;0;0;
13734;-1,38;-9,47;-1,38;-9,47;18,32;2,42;18,32;2,42;0;0;
13750;-5,95;-2,4;-5,95;-2,4;16,04;2,56;16,04;2,56;0;0;
13766;-22,09;-5,39;-22,09;-5,39;15,7;2,56;15,7;2,56;0;0;
13783;-15,22;-5,78;-15,22;-5,78;13,04;2,5;13,04;2,5;0;0;
13802;-13,52;-5,52;-13,52;-5,52;11,11;2,3;11,11;2,3;0;0;
13817;-10,11;-6,92;-10,11;-6,92;9,5;2,13;9,5;2,13;0;0;
13833;-10,11;-6,92;-10,11;-6,92;9,64;2,14;9,64;2,14;0;0;
13849;-11,92;-3,99;-11,92;-3,99;7,85;1,93;7,85;1,93;0;0;
13868;-3,62;-6,07;-3,62;-6,07;8,11;1,9;8,11;1,9;0;0;
13883;-18,25;-5,92;-18,25;-5,92;7,96;2,06;7,96;2,06;0;0;
13902;-6,72;-6,52;-6,72;-6,52;7,1;2;7,1;2;0;0;
13921;-21,29;-2,4;-21,29;-2,4;5,25;1,8;5,25;1,8;0;0;
13937;-15,64;-7,4;-15,64;-7,4;4,32;1,76;4,32;1,76;0;0;
13952;-15,64;-7,4;-15,64;-7,4;4,35;1,79;4,35;1,79;0;0;
13967;-17,94;-5;-17,94;-5;4,04;1,69;4,04;1,69;0;0;
13982;-15,18;-6,77;-15,18;-6,77;4,37;1,65;4,37;1,65;0;0;
13998;-5,2;-4,37;-5,2;-4,37;4,11;1,57;4,11;1,57;0;0;
14016;-23,16;-4,43;-23,16;-4,43;3,84;1,59;3,84;1,59;0;0;
14031;-23,16;-4,43;-23,16;-4,43;3,51;1,46;3,51;1,46;0;0;
14048;-14,35;-11,45;-14,35;-11,45;3,36;1,69;3,36;1,69;0;0;
14063;-16,57;-2,43;-16,57;-2,43;3,34;1,84;3,34;1,84;0;0;
14079;-17,95;-4,27;-17,95;-4,27;3,1;1,96;3,1;1,96;0;0;
14094;-17,95;-4,27;-17,95;-4,27;2,85;2,08;2,85;2,08;0;0;
14109;-23,23;-6,42;-23,23;-6,42;2,71;2,02;2,71;2,02;0;0;
14125;-14,15;-5,07;-14,15;-5,07;2,99;2,13;2,99;2,13;0;0;
14141;-15,17;-6,27;-15,17;-6,27;2,71;1,76;2,71;1,76;0;0;
14157;-18,2;-4,68;-18,2;-4,68;2,62;1,82;2,62;1,82;0;0;
14172;-18,2;-4,68;-18,2;-4,68;2,8;1,79;2,8;1,79;0;0;
14187;-6,6;-5,37;-6,6;-5,37;3,46;1,83;3,46;1,83;0;0;
14204;-13;-3,97;-13;-3,97;3,24;2,08;3,24;2,08;0;0;
14222;-23,25;-4,43;-23,25;-4,43;3,09;1,96;3,09;1,96;0;0;
14238;-17,49;-6,97;-17,49;-6,97;2,89;1,96;2,89;1,96;0;0;
14254;-17,49;-6,97;-17,49;-6,97;3;1,96;3;1,96;0;0;
14273;-15,26;-5,53;-15,26;-5,53;2,67;2,02;2,67;2,02;0;0;
14289;-16,58;-6,52;-16,58;-6,52;2,44;2,11;2,44;2,11;0;0;
14304;-12,69;-1,53;-12,69;-1,53;2,8;2,13;2,8;2,13;0;0;
14321;-19,18;-9,38;-19,18;-9,38;3,1;2,28;3,1;2,28;0;0;
14337;-17,39;-5,66;-17,39;-5,66;3,68;2,34;3,68;2,34;0;0;
14352;-17,39;-5,66;-17,39;-5,66;4,48;2,37;4,48;2,37;0;0;
14373;-14,59;-3,36;-14,59;-3,36;4,38;2,28;4,38;2,28;0;0;
14389;-22,27;-4,06;-22,27;-4,06;4,95;2,07;4,95;2,07;0;0;
14406;-12,69;-7,59;-12,69;-7,59;4,95;1,92;4,95;1,92;0;0;
14421;-11,43;-7,14;-11,43;-7,14;4,49;1,8;4,49;1,8;0;0;
14436;-19,09;-3,21;-19,09;-3,21;4,02;1,75;4,02;1,75;0;0;
14454;-19,09;-3,21;-19,09;-3,21;3,75;1,81;3,75;1,81;0;0;
14470;-16,07;-6,07;-16,07;-6,07;3,9;1,72;3,9;1,72;0;0;
14486;-16,88;-9,99;-16,88;-9,99;3,17;1,76;3,17;1,76;0;0;
14503;-19,93;-5,17;-19,93;-5,17;3,09;1,74;3,09;1,74;0;0;
14518;-15,14;-7,75;-15,14;-7,75;3,15;1,85;3,15;1,85;0;0;
14534;-15,14;-7,75;-15,14;-7,75;2,95;1,89;2,95;1,89;0;0;
14549;-18,48;-4,6;-18,48;-4,6;2,73;2;2,73;2;0;0;
14564;-18,48;-4,6;-18,48;-4,6;2,92;2,04;2,92;2,04;0;0;
14581;-19,46;-8,36;-19,46;-8,36;2,94;2,06;2,94;2,06;0;0;
14599;-13,3;-3,23;-13,3;-3,23;3,01;2,2;3,01;2,2;0;0;
14614;-13,3;-3,23;-13,3;-3,23;2,97;2,23;2,97;2,23;0;0;
14629;-15,19;-7,79;-15,19;-7,79;2,67;2,05;2,67;2,05;0;0;
14646;-15,01;1,62;-15,01;1,62;2,72;2,2;2,72;2,2;0;0;
14663;-16,06;-3,65;-16,06;-3,65;2,7;2,24;2,7;2,24;0;0;
14680;-17,15;-4,54;-17,15;-4,54;2,86;1,96;2,86;1,96;0;0;
14696;-20,92;-5,7;-20,92;-5,7;3,27;1,83;3,27;1,83;0;0;
14712;-20,92;-5,7;-20,92;-5,7;3,63;1,85;3,63;1,85;0;0;
14727;-20,18;-6,2;-20,18;-6,2;3,58;1,67;3,58;1,67;0;0;
14744;-14,48;-1,67;-14,48;-1,67;3,35;1,62;3,35;1,62;0;0;
14759;-18,64;-7,22;-18,64;-7,22;3,37;1,81;3,37;1,81;0;0;
14776;-16,63;-3,71;-16,63;-3,71;2,89;1,75;2,89;1,75;0;0;
14791;-16,63;-3,71;-16,63;-3,71;2,51;1,77;2,51;1,77;0;0;
14807;-15,06;-3,38;-15,06;-3,38;2,66;1,8;2,66;1,8;0;0;
14825;-14,29;-8,36;-14,29;-8,36;2,67;1,8;2,67;1,8;0;0;
14840;-14,95;-1,31;-14,95;-1,31;2,7;1,82;2,7;1,82;0;0;
14856;-16,94;-3,01;-16,94;-3,01;2,46;1,76;2,46;1,76;0;0;
14871;-16,94;-3,01;-16,94;-3,01;2,26;1,78;2,26;1,78;0;0;
14889;-21,53;-8,4;-21,53;-8,4;2,25;2,03;2,25;2,03;0;0;
14904;-12,73;-10,36;-12,73;-10,36;2,32;2,12;2,32;2,12;0;0;
14920;-18,44;-5,2;-18,44;-5,2;2,56;2,32;2,56;2,32;0;0;
14936;-14,39;-3,71;-14,39;-3,71;2,74;2,15;2,74;2,15;0;0;
14953;-14,39;-3,71;-14,39;-3,71;3;2,03;3;2,03;0;0;
14968;-17,06;-4,23;-17,06;-4,23;3,07;2,06;3,07;2,06;0;0;
14985;-17,15;-8,94;-17,15;-8,94;2,92;1,97;2,92;1,97;0;0;
15002;-19,42;-6,86;-19,42;-6,86;2,84;1,71;2,84;1,71;0;0;
15019;-17,76;-3,16;-17,76;-3,16;2,78;1,69;2,78;1,69;0;0;
15034;-17,76;-3,16;-17,76;-3,16;2,82;1,71;2,82;1,71;0;0;
15048;-16,84;-5,7;-16,84;-5,7;2,99;1,53;2,99;1,53;0;0;
15065;-17,58;-4,71;-17,58;-4,71;3,19;1,54;3,19;1,54;0;0;
15081;-12,86;-4,35;-12,86;-4,35;3,37;1,57;3,37;1,57;0;0;
15098;-15,36;-1,45;-15,36;-1,45;3,25;1,5;3,25;1,5;0;0;
15114;-15,36;-1,45;-15,36;-1,45;3,02;1,5;3,02;1,5;0;0;
15129;-18,07;-6,1;-18,07;-6,1;3,18;1,71;3,18;1,71;0;0;
15147;-14,36;-2,48;-14,36;-2,48;2,88;1,89;2,88;1,89;0;0;
15162;-18,2;-7,96;-18,2;-7,96;2,98;1,93;2,98;1,93;0;0;
15178;-14,61;-4,67;-14,61;-4,67;3,01;2;3,01;2;0;0;
15195;-14,61;-4,67;-14,61;-4,67;3,35;2,13;3,35;2,13;0;0;
15213;-15,6;-6,11;-15,6;-6,11;3,42;2,46;3,42;2,46;0;0;
15228;-11,96;0,17;-11,96;0,17;3,38;2,42;3,38;2,42;0;0;
15244;-11,69;-7,78;-11,69;-7,78;3,35;2,56;3,35;2,56;0;0;
15260;-20,93;-0,56;-20,93;-0,56;3,08;2,6;3,08;2,6;0;0;
15276;-17,3;-3,37;-17,3;-3,37;2,97;2,44;2,97;2,44;0;0;
15292;-17,3;-3,37;-17,3;-3,37;2,94;2,23;2,94;2,23;0;0;
15309;-16,63;-4,9;-16,63;-4,9;2,98;2,04;2,98;2,04;0;0;
15326;-13,75;-6,23;-13,75;-6,23;2,87;1,97;2,87;1,97;0;0;
15342;-18,26;-6,06;-18,26;-6,06;3,43;2;3,43;2;0;0;
15357;-17,77;-1,21;-17,77;-1,21;3,13;1,92;3,13;1,92;0;0;
15376;-16,37;-6,08;-16,37;-6,08;3,3;1,91;3,3;1,91;0;0;
15391;-16,37;-6,08;-16,37;-6,08;3,54;1,66;3,54;1,66;0;0;
15409;-21,32;-6,58;-21,32;-6,58;3,34;1,63;3,34;1,63;0;0;
15427;-26,18;-6,09;-26,18;-6,09;3,56;1,37;3,56;1,37;0;0;
15443;-12,32;-7,69;-12,32;-7,69;3,71;1,28;3,71;1,28;0;0;
15459;-18;-4,97;-18;-4,97;3,78;1,23;3,78;1,23;0;0;
15476;-17,14;-1,99;-17,14;-1,99;3,74;1,93;3,74;1,93;0;0;
15492;-17,14;-1,99;-17,14;-1,99;3,87;2,67;3,87;2,67;0;0;
15508;-14,25;-7,1;-14,25;-7,1;4;2,8;4;2,8;0;0;
15527;-19,3;-5,7;-19,3;-5,7;3,5;2,81;3,5;2,81;0;0;
15543;-10,76;-5,9;-10,76;-5,9;3,66;2,89;3,66;2,89;0;0;
15558;-16,32;-2,04;-16,32;-2,04;3,57;2,86;3,57;2,86;0;0;
15573;-16,32;-2,04;-16,32;-2,04;3,2;2,35;3,2;2,35;0;0;
15588;-10,76;22,29;-10,76;22,29;2,88;8,7;2,88;8,7;0;0;
15605;-16,28;-35,83;-16,28;-35,83;2,61;12,51;2,61;12,51;0;0;
15621;-19,34;-14,97;-19,34;-14,97;2,67;16,53;2,67;16,53;1;0;
15635;-19,34;-14,97;-19,34;-14,97;2,94;20,51;2,94;20,51;1;0;
15651;-17,66;-9,05;-17,66;-9,05;3,35;20,54;3,35;20,54;1;0;
15667;-13,77;-6,77;-13,77;-6,77;3,59;15,16;3,59;15,16;1;0;
15683;-19,98;-9,87;-19,98;-9,87;6,7;11,7;6,7;11,7;1;0;
15700;-14,88;-5,44;-14,88;-5,44;7,49;7,96;7,49;7,96;1;0;
15717;-12,49;-7,41;-12,49;-7,41;7,18;3,89;7,18;3,89;1;0;
15734;-12,49;-7,41;-12,49;-7,41;6,87;2,11;6,87;2,11;1;0;
15749;-63,56;-14,81;-63,56;-14,81;32,78;2,91;32,78;2,91;1;0;
15765;-204,28;-2,9;-204,28;-2,9;52,44;3,74;52,44;3,74;1;0;
15785;142,67;2,28;142,67;2,28;96,53;4,22;96,53;4,22;1;0;
15803;-15,28;-6,7;-15,28;-6,7;104,48;4,53;104,48;4,53;0;0;
15823;4,72;-7,83;4,72;-7,83;116,79;5,4;116,79;5,4;0;0;
15841;82,98;9,39;82,98;9,39;111,14;5,3;111,14;5,3;0;0;
15861;-58,04;-1,46;-58,04;-1,46;88,88;4,34;88,88;4,34;0;0;
15880;-11,62;-7,71;-11,62;-7,71;63,61;3,91;63,61;3,91;0;0;
15898;-8,08;-9,1;-8,08;-9,1;30,76;3,32;30,76;3,32;0;0;
15916;-11,17;-5,38;-11,17;-5,38;24,54;3,15;24,54;3,15;0;0;
15933;-11,17;-5,38;-11,17;-5,38;13,62;2,43;13,62;2,43;0;0;
15949;29,92;0,68;29,92;0,68;14,58;2,03;14,58;2,03;0;0;
15965;-20,13;-6,54;-20,13;-6,54;11,49;1,71;11,49;1,71;0;0;
15982;-24,69;-9,65;-24,69;-9,65;11,51;1,89;11,51;1,89;0;0;
16000;-11,93;-8,04;-11,93;-8,04;10,14;2,13;10,14;2,13;0;0;
16017;-16,14;-6,09;-16,14;-6,09;9,63;2,12;9,63;2,12;0;0;
16033;-16,14;-6,09;-16,14;-6,09;6,1;2,03;6,1;2,03;0;0;
16049;-17,32;-7,13;-17,32;-7,13;3,63;2,05;3,63;2,05;0;0;
16066;-19,14;-1,49;-19,14;-1,49;3,43;2,08;3,43;2,08;0;0;
16082;-25,38;-6,56;-25,38;-6,56;3,3;1,82;3,3;1,82;0;0;
16098;-14,87;-16,58;-14,87;-16,58;3,37;2,32;3,37;2,32;0;0;
16114;-14,87;-16,58;-14,87;-16,58;3,51;2,88;3,51;2,88;0;0;
16131;-20,18;-4,51;-20,18;-4,51;3,54;3,17;3,54;3,17;0;0;
16146;-19,42;12,72;-19,42;12,72;3,61;4,56;3,61;4,56;0;0;
16164;-14,64;5,13;-14,64;5,13;4,25;6,75;4,25;6,75;0;0;
16180;-19,01;-7,65;-19,01;-7,65;3,71;7,24;3,71;7,24;0;0;
16199;-19,61;-7,86;-19,61;-7,86;3,46;6,82;3,46;6,82;0;0;
16214;-19,61;-7,86;-19,61;-7,86;3,37;6,52;3,37;6,52;0;0;
16230;-12,22;10,49;-12,22;10,49;3,6;6,8;3,6;6,8;0;0;
16245;-14,85;-31,66;-14,85;-31,66;3,57;5,3;3,57;5,3;0;0;
16262;-16,19;-1,51;-16,19;-1,51;3,12;6,49;3,12;6,49;0;0;
16277;-26,19;-5,89;-26,19;-5,89;3,49;6,55;3,49;6,55;0;0;
16292;-26,19;-5,89;-26,19;-5,89;4,06;6,72;4,06;6,72;0;0;
16307;-13,57;-5,65;-13,57;-5,65;4,06;7,16;4,06;7,16;0;0;
16323;-10,78;-4,18;-10,78;-4,18;3,61;6,04;3,61;6,04;0;0;
16342;-14,88;-4,89;-14,88;-4,89;3,6;3,96;3,6;3,96;0;0;
16359;-16,18;-5,04;-16,18;-5,04;3,88;3,6;3,88;3,6;0;0;
16374;-16,18;-5,04;-16,18;-5,04;3,66;4,22;3,66;4,22;0;0;
16389;-15,64;-6,55;-15,64;-6,55;3,19;4,11;3,19;4,11;0;0;
16406;-16,51;-6,29;-16,51;-6,29;3,5;3,94;3,5;3,94;0;0;
16424;-18,97;-8,65;-18,97;-8,65;3,39;4,04;3,39;4,04;0;0;
16439;-15,54;-3,4;-15,54;-3,4;3,18;3,69;3,18;3,69;0;0;
16456;-15,55;-5,07;-15,55;-5,07;2,61;2,78;2,61;2,78;0;0;
16472;-15,55;-5,07;-15,55;-5,07;2,45;1,89;2,45;1,89;0;0;
16488;-15,22;-6,29;-15,22;-6,29;2,22;2,07;2,22;2,07;0;0;
16504;-19,96;-8,42;-19,96;-8,42;2,09;1,89;2,09;1,89;0;0;
16521;-20,84;-0,05;-20,84;-0,05;2,17;2,09;2,17;2,09;0;0;
16538;-15,3;-7,39;-15,3;-7,39;2,46;4,78;2,46;4,78;0;0;
16552;-15,3;-7,39;-15,3;-7,39;2,81;7,42;2,81;7,42;0;0;
16569;-21,07;-5,01;-21,07;-5,01;3,12;7,48;3,12;7,48;0;0;
16586;-16,69;-6,26;-16,69;-6,26;3,72;7,75;3,72;7,75;0;0;
16602;-16,69;-8,39;-16,69;-8,39;3,37;7,74;3,37;7,74;0;0;
16617;-11,52;-7,13;-11,52;-7,13;3,31;6,45;3,31;6,45;0;0;
16665;-13,76;-2,64;-13,76;-2,64;3,25;3,77;3,25;3,77;0;0;
16682;-14,21;-0,17;-14,21;-0,17;3,01;4,32;3,01;4,32;0;0;
16700;-17,04;-6,06;-17,04;-6,06;2,73;4,72;2,73;4,72;0;0;
16717;-14,07;-11,59;-14,07;-11,59;2,76;4,63;2,76;4,63;0;0;
16734;-14,07;-11,59;-14,07;-11,59;2,68;4,34;2,68;4,34;0;0;
16748;-8,39;-1,66;-8,39;-1,66;2,86;4,37;2,86;4,37;0;0;
16765;-13,8;-17,7;-13,8;-17,7;3;4,89;3;4,89;0;0;
16783;-16,32;1,22;-16,32;1,22;2,97;4,44;2,97;4,44;0;0;
16801;-17,83;-11,1;-17,83;-11,1;2,55;4,7;2,55;4,7;0;0;
16817;-12,14;-0,35;-12,14;-0,35;2,3;5;2,3;5;0;0;
16832;-12,14;-0,35;-12,14;-0,35;2,2;5,15;2,2;5,15;0;0;
16846;-17,24;-7,68;-17,24;-7,68;2,25;5,14;2,25;5,14;0;0;
16862;-16,66;-10,75;-16,66;-10,75;2,02;3,64;2,02;3,64;0;0;
16878;-15,78;-3,77;-15,78;-3,77;2,21;2,99;2,21;2,99;0;0;
16894;-15,78;-3,77;-15,78;-3,77;2,52;2,94;2,52;2,94;0;0;
16910;-15,59;-14,3;-15,59;-14,3;2,77;3,73;2,77;3,73;0;0;
16926;-19,44;-4,09;-19,44;-4,09;2,96;3,8;2,96;3,8;0;0;
16941;-17,35;-9,28;-17,35;-9,28;2,71;3,97;2,71;3,97;0;0;
16956;-23,01;-11,48;-23,01;-11,48;2,64;3,83;2,64;3,83;0;0;
16973;-23,01;-11,48;-23,01;-11,48;2,62;3,77;2,62;3,77;0;0;
16988;-19,74;-5,23;-19,74;-5,23;2,38;3,51;2,38;3,51;0;0;
17005;-9,74;-10,91;-9,74;-10,91;2,36;2,51;2,36;2,51;0;0;
17022;-17,96;-2,3;-17,96;-2,3;2,2;2,29;2,2;2,29;0;0;
17036;-9,1;-2,65;-9,1;-2,65;2,65;1,98;2,65;1,98;0;0;
17052;-9,1;-2,65;-9,1;-2,65;2,84;1,82;2,84;1,82;0;0;
17069;-12,82;-14;-12,82;-14;2,91;2,08;2,91;2,08;0;0;
17086;-10,72;-7,83;-10,72;-7,83;3,12;2,33;3,12;2,33;0;0;
17100;-17,16;-4,91;-17,16;-4,91;3,15;4,57;3,15;4,57;0;0;
17116;-17,78;-0,31;-17,78;-0,31;3,25;4,95;3,25;4,95;0;0;
17132;-17,78;-0,31;-17,78;-0,31;3,18;5,45;3,18;5,45;0;0;
17147;-14,17;-7,57;-14,17;-7,57;3,67;5,84;3,67;5,84;0;0;
17164;-11,96;-2,71;-11,96;-2,71;3,63;5,62;3,63;5,62;0;0;
17180;-18,12;-9,57;-18,12;-9,57;3,68;4,48;3,68;4,48;0;0;
17196;-19,73;1,13;-19,73;1,13;3,85;3,12;3,85;3,12;0;0;
17213;-19,73;1,13;-19,73;1,13;4,17;2,87;4,17;2,87;0;0;
17231;-22,6;-11,75;-22,6;-11,75;3,84;3,06;3,84;3,06;0;0;
17251;-14,69;-4,92;-14,69;-4,92;3,55;3,19;3,55;3,19;0;0;
17267;-22,03;-5,91;-22,03;-5,91;3,41;3,33;3,41;3,33;0;0;
17284;-19,2;-2,47;-19,2;-2,47;3,8;3,31;3,8;3,31;0;0;
17299;-16,97;-6,86;-16,97;-6,86;3,42;3,82;3,42;3,82;0;0;
17314;-16,97;-6,86;-16,97;-6,86;3,07;4,27;3,07;4,27;0;0;
17331;-3,44;2,97;-3,44;2,97;3,2;4,09;3,2;4,09;0;0;
17349;-21,36;-2,67;-21,36;-2,67;3,29;4,48;3,29;4,48;0;0;
17365;-14,93;-14,95;-14,93;-14,95;2,79;4,64;2,79;4,64;0;0;
17380;-17,49;-1,12;-17,49;-1,12;2,81;5,25;2,81;5,25;0;0;
17396;-20,07;-3,19;-20,07;-3,19;2,72;4,97;2,72;4,97;0;0;
17412;-20,07;-3,19;-20,07;-3,19;2,7;4,37;2,7;4,37;0;0;
17427;-23,62;-39,1;-23,62;-39,1;2,93;8,44;2,93;8,44;0;0;
17445;-24,58;6,74;-24,58;6,74;3,59;10,98;3,59;10,98;0;0;
17460;-20,44;-4,39;-20,44;-4,39;3,8;10,62;3,8;10,62;0;0;
17478;-12,85;-6,67;-12,85;-6,67;3,8;10,21;3,8;10,21;0;0;
17498;-12,29;-6,87;-12,29;-6,87;3,79;10,27;3,79;10,27;0;0;
17515;-19,15;-4,27;-19,15;-4,27;3,6;8,48;3,6;8,48;0;0;
17532;-19,15;-4,27;-19,15;-4,27;3,22;3,85;3,22;3,85;0;0;
17550;-17,9;46,61;-17,9;46,61;3,11;5,5;3,11;5,5;0;0;
17566;-8,91;-69,1;-8,91;-69,1;3,14;11,55;3,14;11,55;1;0;
17582;-20,22;4,8;-20,22;4,8;3,67;13,84;3,67;13,84;1;0;
17598;-17,53;-9,82;-17,53;-9,82;3,78;13,74;3,78;13,74;1;0;
17614;-17,53;-9,82;-17,53;-9,82;3,75;13,74;3,75;13,74;1;0;
17630;-4,14;-14,14;-4,14;-14,14;3,59;12,85;3,59;12,85;1;0;
17647;0,67;-3,75;0,67;-3,75;4,18;9,5;4,18;9,5;1;0;
17665;-54,85;2,56;-54,85;2,56;10,76;4,54;10,76;4,54;1;0;
17682;-175,11;0,34;-175,11;0,34;29,73;3,83;29,73;3,83;1;0;
17697;-101,98;-3,77;-101,98;-3,77;54,92;4,14;54,92;4,14;1;0;
17713;-101,98;-3,77;-101,98;-3,77;80,08;4,6;80,08;4,6;1;0;
17731;-10,43;-5,93;-10,43;-5,93;94,41;4,88;94,41;4,88;0;0;
17755;-11,88;-4,25;-11,88;-4,25;99,24;5,31;99,24;5,31;0;0;
17772;-19,25;-0,15;-19,25;-0,15;92,34;5,26;92,34;5,26;0;0;
17791;-19,25;-0,15;-19,25;-0,15;65,84;4,79;65,84;4,79;0;0;
17807;-7,92;-7,4;-7,92;-7,4;41;4,45;41;4,45;0;0;
17824;-20,57;-6,03;-20,57;-6,03;23,76;4,19;23,76;4,19;0;0;
17840;-18,1;-5,69;-18,1;-5,69;13,03;3,24;13,03;3,24;0;0;
17856;-18,82;-6,43;-18,82;-6,43;11,88;3,05;11,88;3,05;0;0;
17873;-18,82;-6,43;-18,82;-6,43;9,02;2,54;9,02;2,54;0;0;
17888;9,67;-7,8;9,67;-7,8;14,81;2,07;14,81;2,07;0;0;
17902;-6,16;1,13;-6,16;1,13;14,27;1,82;14,27;1,82;0;0;
17918;-11,5;-5,2;-11,5;-5,2;13,65;1,89;13,65;1,89;0;0;
17934;-11,5;-5,2;-11,5;-5,2;13,31;1,88;13,31;1,88;0;0;
17949;-15,23;-5,5;-15,23;-5,5;12,72;2,15;12,72;2,15;0;0;
17966;-12,69;-4,92;-12,69;-4,92;5,02;2,12;5,02;2,12;0;0;
17983;-20,04;-4,19;-20,04;-4,19;3,3;2,15;3,3;2,15;0;0;
17999;-7,88;-3,43;-7,88;-3,43;3,66;2,62;3,66;2,62;0;0;
18016;-23,97;-1,06;-23,97;-1,06;4;2,55;4;2,55;0;0;
18032;-23,97;-1,06;-23,97;-1,06;4,42;2,6;4,42;2,6;0;0;
18049;-15,47;-7,32;-15,47;-7,32;4,38;3,33;4,38;3,33;0;0;
18066;-13,28;-2,04;-13,28;-2,04;4,24;3,3;4,24;3,3;0;0;
18084;-14,02;-2,88;-14,02;-2,88;4,19;3,22;4,19;3,22;0;0;
18102;-13,16;24,27;-13,16;24,27;3,55;8,9;3,55;8,9;0;0;
18118;-14,02;4,31;-14,02;4,31;2,8;12,87;2,8;12,87;0;0;
18134;-14,02;4,31;-14,02;4,31;2,14;16,53;2,14;16,53;0;0;
18150;-16,24;-6,65;-16,24;-6,65;2,13;16,77;2,13;16,77;0;0;
18165;-21,39;-7,06;-21,39;-7,06;2,37;16,67;2,37;16,67;0;0;
18180;-15,12;-7,46;-15,12;-7,46;2,87;13,73;2,87;13,73;0;0;
18196;-19,83;5,82;-19,83;5,82;3,04;8,28;3,04;8,28;0;0;
18213;-19,83;5,82;-19,83;5,82;3,25;4,38;3,25;4,38;0;0;
18229;-18,07;0,3;-18,07;0,3;3,55;3,6;3,55;3,6;0;0;
18245;-18,4;15,11;-18,4;15,11;3,85;3,92;3,85;3,92;0;0;
18260;-21,77;0,24;-21,77;0,24;3,7;4,61;3,7;4,61;0;0;
18277;-15,16;-4,36;-15,16;-4,36;3,65;4,53;3,65;4,53;0;0;
18292;-15,16;-4,36;-15,16;-4,36;3,96;4,32;3,96;4,32;0;0;
18308;-21,88;-3,73;-21,88;-3,73;4,05;3,82;4,05;3,82;0;0;
18326;-16,09;13,87;-16,09;13,87;4,2;3,29;4,2;3,29;0;0;
18343;-14,8;0;-14,8;0;3,79;4,74;3,79;4,74;0;0;
18360;-16,18;-18,33;-16,18;-18,33;3,38;5,49;3,38;5,49;0;0;
18375;-16,18;-18,33;-16,18;-18,33;3,03;6,79;3,03;6,79;0;0;
18390;-13,03;-9,95;-13,03;-9,95;3,35;9,49;3,35;9,49;0;0;
18407;-17,23;-17,42;-17,23;-17,42;2,93;8,24;2,93;8,24;0;0;
18423;-20,23;-8,38;-20,23;-8,38;3,01;7,88;3,01;7,88;0;0;
18439;-19,47;-4,72;-19,47;-4,72;2,94;6,83;2,94;6,83;0;0;
18455;-19,47;-4,72;-19,47;-4,72;2,68;4,25;2,68;4,25;0;0;
18472;-17,17;0,96;-17,17;0,96;2,26;3,6;2,26;3,6;0;0;
18487;-19,7;-3,95;-19,7;-3,95;2,09;5,61;2,09;5,61;0;0;
18504;-18,14;-8,88;-18,14;-8,88;2,31;5,51;2,31;5,51;0;0;
18521;-19,91;-17,3;-19,91;-17,3;2,28;5,91;2,28;5,91;0;0;
18537;-17,53;-1,07;-17,53;-1,07;2,69;6,28;2,69;6,28;0;0;
18553;-17,53;-1,07;-17,53;-1,07;3,11;6,33;3,11;6,33;0;0;
18568;-10,58;-6,52;-10,58;-6,52;3,22;6,02;3,22;6,02;0;0;
18584;-14,9;-6,56;-14,9;-6,56;3,31;4,48;3,31;4,48;0;0;
18600;-16,93;-4,75;-16,93;-4,75;3,24;4,98;3,24;4,98;0;0;
18616;-17,61;-5,21;-17,61;-5,21;2,92;4,46;2,92;4,46;0;0;
18630;-17,61;-5,21;-17,61;-5,21;2,44;4,28;2,44;4,28;0;0;
18650;-13,8;-10,64;-13,8;-10,64;2,15;4,38;2,15;4,38;0;0;
18666;-18,73;-3,41;-18,73;-3,41;2,09;3,73;2,09;3,73;0;0;
18683;-17,63;-2,25;-17,63;-2,25;1,92;5,13;1,92;5,13;0;0;
18700;-15,62;-5,69;-15,62;-5,69;1,92;4,75;1,92;4,75;0;0;
18716;-17,22;-3,33;-17,22;-3,33;2,52;4,61;2,52;4,61;0;0;
18734;-17,22;-3,33;-17,22;-3,33;3,03;4,69;3,03;4,69;0;0;
18752;-18,85;-4,72;-18,85;-4,72;3,03;4,97;3,03;4,97;0;0;
18769;-15,39;6,26;-15,39;6,26;3,22;3,61;3,22;3,61;0;0;
18788;-27,47;-7,35;-27,47;-7,35;3,48;4,02;3,48;4,02;0;0;
18804;-12,05;-7,59;-12,05;-7,59;3,3;3,83;3,3;3,83;0;0;
18819;-17,81;-9,87;-17,81;-9,87;2,56;2,87;2,56;2,87;0;0;
18834;-17,81;-9,87;-17,81;-9,87;2,43;2,96;2,43;2,96;0;0;
18850;-14,87;-1,49;-14,87;-1,49;2,5;3,93;2,5;3,93;0;0;
18867;-12,75;-3,89;-12,75;-3,89;2,41;3,75;2,41;3,75;0;0;
18883;-20,46;-7,66;-20,46;-7,66;2,43;3,3;2,43;3,3;0;0;
18898;-9,25;0,49;-9,25;0,49;2,67;3,44;2,67;3,44;0;0;
18914;-9,25;0,49;-9,25;0,49;3,03;3,36;3,03;3,36;0;0;
18930;-18,13;-16,31;-18,13;-16,31;3,45;3,05;3,45;3,05;0;0;
18947;-16,13;-6,43;-16,13;-6,43;3,82;3,12;3,82;3,12;0;0;
18962;-15,07;-7,45;-15,07;-7,45;4,1;4,43;4,1;4,43;0;0;
18978;-12,95;-11,38;-12,95;-11,38;3,92;4,76;3,92;4,76;0;0;
18995;-13,15;5,71;-13,15;5,71;3,92;5,83;3,92;5,83;0;0;
19011;-13,15;5,71;-13,15;5,71;3,56;6,89;3,56;6,89;0;0;
19027;-17,57;-4,72;-17,57;-4,72;3,53;6,15;3,53;6,15;0;0;
19044;-22,68;-3,79;-22,68;-3,79;3,15;5,47;3,15;5,47;0;0;
19062;-13,67;-11,84;-13,67;-11,84;3,2;5,13;3,2;5,13;0;0;
19079;-8,94;-0,32;-8,94;-0,32;3,56;5,29;3,56;5,29;0;0;
19093;-8,94;-0,32;-8,94;-0,32;3,79;4,98;3,79;4,98;0;0;
19109;-22,18;-7,6;-22,18;-7,6;3,8;4,18;3,8;4,18;0;0;
19127;-15,34;-3,9;-15,34;-3,9;3,94;4,63;3,94;4,63;0;0;
19143;-25,74;-8,77;-25,74;-8,77;3,75;4,62;3,75;4,62;0;0;
19159;-11,71;-3,6;-11,71;-3,6;3,8;3,58;3,8;3,58;0;0;
19175;-11,71;-3,6;-11,71;-3,6;3,79;2,84;3,79;2,84;0;0;
19191;-14,99;-1,08;-14,99;-1,08;3,56;5,47;3,56;5,47;0;0;
19207;-15,89;0,99;-15,89;0,99;3,96;5,85;3,96;5,85;0;0;
19222;-15,5;-4,33;-15,5;-4,33;3,88;6,01;3,88;6,01;0;0;
19238;-13,59;-16,39;-13,59;-16,39;3,65;6,88;3,65;6,88;0;0;
19254;-13,59;-16,39;-13,59;-16,39;3,3;7,71;3,3;7,71;0;0;
19270;-13,85;-13,07;-13,85;-13,07;2,9;8,53;2,9;8,53;0;0;
19287;-13,35;14,07;-13,35;14,07;3,22;12,45;3,22;12,45;0;0;
19302;-15,57;-9,11;-15,57;-9,11;3,35;12,75;3,35;12,75;0;0;
19318;-10,48;-5,68;-10,48;-5,68;3,78;13,1;3,78;13,1;1;0;
19334;-10,48;-5,68;-10,48;-5,68;4,11;12,59;4,11;12,59;1;0;
19350;-23,19;-3,94;-23,19;-3,94;4,18;12,78;4,18;12,78;1;0;
19367;-20,21;-59,38;-20,21;-59,38;4,31;19,07;4,31;19,07;1;0;
19383;-12,61;11,46;-12,61;11,46;4,32;20,03;4,32;20,03;1;0;
19400;-27,17;-9,53;-27,17;-9,53;4,68;20,28;4,68;20,28;1;0;
19418;-17,24;-3,32;-17,24;-3,32;5,59;20,29;5,59;20,29;1;0;
19433;-17,24;-3,32;-17,24;-3,32;6,76;19,59;6,76;19,59;1;0;
19448;-387,15;-3,74;-387,15;-3,74;55,02;13,27;55,02;13,27;1;0;
19465;66,52;-11,46;66,52;-11,46;74,1;9,38;74,1;9,38;1;0;
19484;53,55;-6,82;53,55;-6,82;86,28;7,62;86,28;7,62;0;0;
19502;-13,66;-4,39;-13,66;-4,39;87,42;7,73;87,42;7,73;0;0;
19522;-14,32;-4,16;-14,32;-4,16;86,09;7,16;86,09;7,16;0;0;
19542;-9,94;-8,52;-9,94;-8,52;65,74;6,11;65,74;6,11;0;0;
19560;-3,69;-4,33;-3,69;-4,33;30,84;4,23;30,84;4,23;0;0;
19574;-3,69;-4,33;-3,69;-4,33;23,6;3,04;23,6;3,04;0;0;
19592;-22,51;-0,46;-22,51;-0,46;20,62;4,19;20,62;4,19;0;0;
19608;43,96;-14,25;43,96;-14,25;34,98;5,21;34,98;5,21;0;0;
19624;-49,39;-39,56;-49,39;-39,56;37;7,19;37;7,19;0;0;
19639;-67,99;-3,24;-67,99;-3,24;35,69;8,89;35,69;8,89;0;0;
19654;-67,99;-3,24;-67,99;-3,24;33,72;10,71;33,72;10,71;0;0;
19670;-12,38;4,67;-12,38;4,67;28,28;11,42;28,28;11,42;0;0;
19687;-21,6;-7,97;-21,6;-7,97;23,33;11,65;23,33;11,65;0;0;
19703;-7,14;-9,62;-7,14;-9,62;11,21;11,59;11,21;11,59;0;0;
19718;-7,12;-2,15;-7,12;-2,15;13,19;11,76;13,19;11,76;0;0;
19736;-15,45;-3;-15,45;-3;11,57;11,03;11,57;11,03;0;0;
19751;-15,45;-3;-15,45;-3;10,13;9,92;10,13;9,92;0;0;
19768;-22,26;-6,72;-22,26;-6,72;10,15;11,2;10,15;11,2;0;0;
19785;-15,08;-8,29;-15,08;-8,29;9,72;11,42;9,72;11,42;0;0;
19802;-15,21;6,77;-15,21;6,77;7,98;11,02;7,98;11,02;0;0;
19820;-21,4;-8,9;-21,4;-8,9;3,84;9,27;3,84;9,27;0;0;
19834;-21,4;-8,9;-21,4;-8,9;3,25;8,43;3,25;8,43;0;0;
19849;-17,03;-9,99;-17,03;-9,99;3;6,19;3;6,19;0;0;
19866;-22,83;-1,86;-22,83;-1,86;2,94;5,73;2,94;5,73;0;0;
19881;-10,79;-26,18;-10,79;-26,18;3,43;4,39;3,43;4,39;0;0;
19897;-14,56;-10,19;-14,56;-10,19;3,19;5,35;3,19;5,35;0;0;
19913;-14,56;-10,19;-14,56;-10,19;3,04;6,86;3,04;6,86;0;0;
19927;-22,06;-22,42;-22,06;-22,42;3,22;7,95;3,22;7,95;0;0;
19943;-17,08;0,01;-17,08;0,01;3,29;7,67;3,29;7,67;0;0;
19959;-19,07;-5,06;-19,07;-5,06;2,96;7,2;2,96;7,2;0;0;
19973;-19,07;-5,06;-19,07;-5,06;2,61;5,76;2,61;5,76;0;0;
19988;-12,48;-4,37;-12,48;-4,37;2,72;4,68;2,72;4,68;0;0;
20005;-12,84;-8,76;-12,84;-8,76;2,6;4,1;2,6;4,1;0;0;
20021;-7,6;0,85;-7,6;0,85;2,56;4,43;2,56;4,43;0;0;
20036;-23,53;-6,07;-23,53;-6,07;3,01;4,4;3,01;4,4;0;0;
20052;-23,53;-6,07;-23,53;-6,07;3,49;4,57;3,49;4,57;0;0;
20073;-13,07;-6,85;-13,07;-6,85;3,62;4,16;3,62;4,16;0;0;
20089;-20,99;-1,78;-20,99;-1,78;3,52;3,97;3,52;3,97;0;0;
20105;-16,23;-7,67;-16,23;-7,67;4,43;3,45;4,43;3,45;0;0;
20121;-18,48;12,55;-18,48;12,55;4,14;6,31;4,14;6,31;0;0;
20139;-8,21;2,1;-8,21;2,1;3,82;7,18;3,82;7,18;0;0;
20154;-8,21;2,1;-8,21;2,1;3,69;8,28;3,69;8,28;0;0;
20169;-15,16;-4,3;-15,16;-4,3;3,71;8,75;3,71;8,75;0;0;
20186;-12,55;-3,51;-12,55;-3,51;3,6;8,82;3,6;8,82;0;0;
20202;-16,48;-8,04;-16,48;-8,04;2,89;7,68;2,89;7,68;0;0;
20217;-17,52;-13,51;-17,52;-13,51;2,87;5,15;2,87;5,15;0;0;
20232;-17,52;-13,51;-17,52;-13,51;3,01;4,95;3,01;4,95;0;0;
20250;-16,23;5,25;-16,23;5,25;2,97;4,34;2,97;4,34;0;0;
20267;-11,7;-15,42;-11,7;-15,42;3,15;5,47;3,15;5,47;0;0;
20283;-12,9;3,67;-12,9;3,67;3,16;6,94;3,16;6,94;0;0;
20299;-17,22;-5,72;-17,22;-5,72;2,8;6,84;2,8;6,84;0;0;
20315;-15,26;-3,89;-15,26;-3,89;2,76;6,68;2,76;6,68;0;0;
20331;-15,26;-3,89;-15,26;-3,89;2,97;7,1;2,97;7,1;0;0;
20346;-15,55;-6,68;-15,55;-6,68;3,15;6,41;3,15;6,41;0;0;
20361;-11,27;-37,67;-11,27;-37,67;3,23;5,47;3,23;5,47;0;0;
20377;-18,62;-1,04;-18,62;-1,04;3,51;6,54;3,51;6,54;0;0;
20392;-18,62;-1,04;-18,62;-1,04;3,6;7,84;3,6;7,84;0;0;
20409;-17,9;-57,3;-17,9;-57,3;3,62;9,53;3,62;9,53;0;0;
20424;-19,23;1,46;-19,23;1,46;3,93;11,2;3,93;11,2;0;0;
20440;-12,68;-6,93;-12,68;-6,93;3,53;11,38;3,53;11,38;0;0;
20456;-23,93;-7,19;-23,93;-7,19;3,25;8,81;3,25;8,81;0;0;
20473;-23,93;-7,19;-23,93;-7,19;2,97;6,92;2,97;6,92;0;0;
20489;-16,82;-4,09;-16,82;-4,09;2,7;6,28;2,7;6,28;0;0;
20504;-16,82;-4,09;-16,82;-4,09;2,4;2,45;2,4;2,45;0;0;
20521;-12,68;5,53;-12,68;5,53;2,53;2,14;2,53;2,14;0;0;
20538;-16,98;-1,57;-16,98;-1,57;2,44;3,22;2,44;3,22;0;0;
20554;-16,98;-1,57;-16,98;-1,57;2,29;4,15;2,29;4,15;0;0;
20570;-17,14;-10,9;-17,14;-10,9;2,37;4,8;2,37;4,8;0;0;
20586;-15,54;-6,78;-15,54;-6,78;2,62;4,79;2,62;4,79;0;0;
20602;-16,48;-6,83;-16,48;-6,83;2,82;5,12;2,82;5,12;0;0;
20618;-18,13;-0,41;-18,13;-0,41;2,58;3,98;2,58;3,98;0;0;
20633;-18,13;-0,41;-18,13;-0,41;2,68;3,23;2,68;3,23;0;0;
20648;-11,86;-27,28;-11,86;-27,28;2,9;5,02;2,9;5,02;0;0;
20666;-11,86;-3,29;-11,86;-3,29;2,94;6,26;2,94;6,26;0;0;
20682;-5,09;-6,96;-5,09;-6,96;2,68;6,46;2,68;6,46;0;0;
20697;-16,83;-5,21;-16,83;-5,21;2,95;6,18;2,95;6,18;0;0;
20711;-16,83;-5,21;-16,83;-5,21;3,41;6,05;3,41;6,05;0;0;
20726;-15,55;24,67;-15,55;24,67;3,93;10,01;3,93;10,01;0;0;
20742;-20,91;22,09;-20,91;22,09;4;10,31;4;10,31;0;0;
20760;-14,25;-0,34;-14,25;-0,34;3,93;11,47;3,93;11,47;0;0;
20776;-18,18;-7,15;-18,18;-7,15;4,06;11,45;4,06;11,45;0;0;
20793;-18,18;-7,15;-18,18;-7,15;4,21;11,58;4,21;11,58;0;0;
20810;-12,55;-12,53;-12,55;-12,53;4,04;10,09;4,04;10,09;0;0;
20827;-22,7;8,16;-22,7;8,16;3,65;7,1;3,65;7,1;0;0;
20841;-11,71;-25,95;-11,71;-25,95;3,84;4,94;3,84;4,94;0;0;
20859;-14,4;-5,27;-14,4;-5,27;3,73;5,31;3,73;5,31;0;0;
20876;-17,01;-6,55;-17,01;-6,55;3,14;5,17;3,14;5,17;0;0;
20891;-17,01;-6,55;-17,01;-6,55;2,66;4,99;2,66;4,99;0;0;
20906;-27,09;-26,73;-27,09;-26,73;3,06;6,62;3,06;6,62;0;0;
20923;-13,18;-1,14;-13,18;-1,14;3,06;6,95;3,06;6,95;0;0;
20939;-22,66;-7,41;-22,66;-7,41;2,73;6,02;2,73;6,02;0;0;
20956;-18,04;-9,39;-18,04;-9,39;2,89;6,03;2,89;6,03;0;0;
20974;-18,04;-9,39;-18,04;-9,39;3,09;6;3,09;6;0;0;
20990;-15,45;1,25;-15,45;1,25;3,2;13,96;3,2;13,96;0;0;
21008;-24,55;3,08;-24,55;3,08;3,27;13,86;3,27;13,86;0;0;
21024;-13,68;-5,88;-13,68;-5,88;3,6;13,97;3,6;13,97;0;0;
21041;-19,02;-4,15;-19,02;-4,15;3,81;15,05;3,81;15,05;0;0;
21057;-19,02;-4,15;-19,02;-4,15;3,97;16,15;3,97;16,15;0;0;
21072;-19,02;-4,15;-19,02;-4,15;4,34;14,11;4,34;14,11;0;0;
21089;-11,94;0,26;-11,94;0,26;4,2;9,14;4,2;9,14;0;0;
21104;-17,75;-8,82;-17,75;-8,82;3,61;12,6;3,61;12,6;0;0;
21120;-5,39;30,59;-5,39;30,59;3,66;14,53;3,66;14,53;0;0;
21137;-23,03;3,11;-23,03;3,11;3,71;16,03;3,71;16,03;0;0;
21156;-17,15;-13,88;-17,15;-13,88;4,26;15,92;4,26;15,92;0;0;
21170;-17,15;-13,88;-17,15;-13,88;4,94;15,67;4,94;15,67;0;0;
21186;6,17;20,93;6,17;20,93;4,99;19,11;4,99;19,11;1;0;
21203;-17,1;-9,11;-17,1;-9,11;5,52;14,42;5,52;14,42;1;0;
21217;-17,76;-26,1;-17,76;-26,1;5,83;11,77;5,83;11,77;1;0;
21234;-17,76;-26,1;-17,76;-26,1;5,93;11,15;5,93;11,15;1;0;
21249;-24,75;-10,17;-24,75;-10,17;7,34;11,5;7,34;11,5;1;0;
21267;94,69;-2,48;94,69;-2,48;24,43;8,98;24,43;8,98;1;0;
21284;0,34;-7,89;0,34;-7,89;57,45;7,24;57,45;7,24;1;0;
21301;-4,99;-4,73;-4,99;-4,73;64,98;7,12;64,98;7,12;1;0;
21316;-47,04;-9,77;-47,04;-9,77;66,1;6,23;66,1;6,23;1;0;
21333;-47,04;-9,77;-47,04;-9,77;67,06;4,59;67,06;4,59;1;0;
21351;-68,81;-4,1;-68,81;-4,1;89,71;3,72;89,71;3,72;1;0;
21368;6,23;-2,16;6,23;-2,16;61,58;2,81;61,58;2,81;0;0;
21387;-21,61;-5,7;-21,61;-5,7;47,23;3,05;47,23;3,05;0;0;
21406;-14,19;-5,02;-14,19;-5,02;43,91;3,25;43,91;3,25;0;0;
21422;-6,57;-7,67;-6,57;-7,67;42,58;3,34;42,58;3,34;0;0;
21437;-47,82;-15,68;-47,82;-15,68;30,16;3,94;30,16;3,94;0;0;
21455;-61,32;-4,56;-61,32;-4,56;11,99;2,89;11,99;2,89;0;0;
21478;16,55;-7,35;16,55;-7,35;13,91;3,04;13,91;3,04;0;0;
21496;15,07;-3,75;15,07;-3,75;16,43;2,97;16,43;2,97;0;0;
21510;15,07;-3,75;15,07;-3,75;19,63;2,93;19,63;2,93;0;0;
21528;-13,81;16,98;-13,81;16,98;19,12;4,71;19,12;4,71;0;0;
21544;-13,54;-10,99;-13,54;-10,99;16,8;5,69;16,8;5,69;0;0;
21562;-15,61;34,1;-15,61;34,1;10,52;8,9;10,52;8,9;0;0;
21580;-19,17;-1,07;-19,17;-1,07;7,85;11;7,85;11;0;0;
21599;9,54;-8,96;9,54;-8,96;6,37;11,08;6,37;11,08;0;0;
21616;-23,31;-5,38;-23,31;-5,38;5,56;10,45;5,56;10,45;0;0;
21632;-23,31;-5,38;-23,31;-5,38;6,3;8,68;6,3;8,68;0;0;
21650;-14,91;-14,4;-14,91;-14,4;6,21;6,55;6,21;6,55;0;0;
21667;-15,89;-0,93;-15,89;-0,93;6,33;3,72;6,33;3,72;0;0;
21683;-17,23;43,92;-17,23;43,92;5,86;4,45;5,86;4,45;0;0;
21700;-19,57;-0,54;-19,57;-0,54;3,78;7,2;3,78;7,2;0;0;
21716;-20,84;32,8;-20,84;32,8;3,14;9,58;3,14;9,58;0;0;
21732;-20,84;32,8;-20,84;32,8;3;12,1;3;12,1;0;0;
21747;-18,79;-8,51;-18,79;-8,51;2,95;11,38;2,95;11,38;0;0;
21762;-16,38;-4,01;-16,38;-4,01;2,87;10,97;2,87;10,97;0;0;
21778;-6,7;-4,44;-6,7;-4,44;3,36;7,02;3,36;7,02;0;0;
21794;-6,7;-4,44;-6,7;-4,44;3,51;5,8;3,51;5,8;0;0;
21810;-16,37;-5,72;-16,37;-5,72;3,51;3,33;3,51;3,33;0;0;
21826;-18,01;-8,62;-18,01;-8,62;3,31;2,08;3,31;2,08;0;0;
21841;-22,45;19,95;-22,45;19,95;3,42;2,54;3,42;2,54;0;0;
21859;-20,36;-4,14;-20,36;-4,14;3,69;4,07;3,69;4,07;0;0;
21875;-20,36;-4,14;-20,36;-4,14;3,67;5,44;3,67;5,44;0;0;
21890;-12,37;-5,69;-12,37;-5,69;3,35;5,29;3,35;5,29;0;0;
21905;-15,09;-5,44;-15,09;-5,44;3,37;5,57;3,37;5,57;0;0;
21923;-13,63;-6,81;-13,63;-6,81;3,3;5,47;3,3;5,47;0;0;
21940;-15,18;-3,38;-15,18;-3,38;3,23;3,71;3,23;3,71;0;0;
21956;-15,92;-4,39;-15,92;-4,39;2,85;2,14;2,85;2,14;0;0;
21971;-15,92;-4,39;-15,92;-4,39;2,5;1,87;2,5;1,87;0;0;
21986;-22,11;-8,23;-22,11;-8,23;2,42;1,36;2,42;1,36;0;0;
22003;-15,96;-6,3;-15,96;-6,3;2,74;1,76;2,74;1,76;0;0;
22020;-13,15;-14,63;-13,15;-14,63;2,72;3,97;2,72;3,97;0;0;
22034;-13,15;-14,63;-13,15;-14,63;2,56;6,18;2,56;6,18;0;0;
22049;-12,81;-6,57;-12,81;-6,57;2,41;6,3;2,41;6,3;0;0;
22066;-20,82;1,56;-20,82;1,56;2,75;6,88;2,75;6,88;0;0;
22081;-23,06;-9,97;-23,06;-9,97;2,8;7,7;2,8;7,7;0;0;
22098;-23,06;-9,97;-23,06;-9,97;3,01;7,85;3,01;7,85;0;0;
22111;-23,06;-9,97;-23,06;-9,97;3,22;6,57;3,22;6,57;0;0;
22128;-17,06;-4,23;-17,06;-4,23;3,46;4,79;3,46;4,79;0;0;
22144;-17,39;-2,63;-17,39;-2,63;3,51;4,71;3,51;4,71;0;0;
22159;-17,37;1,79;-17,37;1,79;3,36;4,86;3,36;4,86;0;0;
22174;-17,37;1,79;-17,37;1,79;3,32;4,76;3,32;4,76;0;0;
22189;-12,34;-2,26;-12,34;-2,26;3,02;4,38;3,02;4,38;0;0;
22205;-16,78;-9,06;-16,78;-9,06;2,91;3,86;2,91;3,86;0;0;
22221;-6,39;0,69;-6,39;0,69;3,12;4,46;3,12;4,46;0;0;
22236;-17,16;-6,07;-17,16;-6,07;3,16;4,36;3,16;4,36;0;0;
22253;-17,16;-6,07;-17,16;-6,07;3,17;3,55;3,17;3,55;0;0;
22270;-20,87;-9,84;-20,87;-9,84;3,29;2,55;3,29;2,55;0;0;
22285;-15,08;-10,36;-15,08;-10,36;3,3;2,67;3,3;2,67;0;0;
22300;-14,36;-5,7;-14,36;-5,7;3,08;2,94;3,08;2,94;0;0;
22315;-14,36;-5,7;-14,36;-5,7;2,94;3,25;2,94;3,25;0;0;
22332;-19,44;-8,03;-19,44;-8,03;2,76;4,04;2,76;4,04;0;0;
22347;-10,56;-2,9;-10,56;-2,9;2,87;4,22;2,87;4,22;0;0;
22362;-18,88;-9,94;-18,88;-9,94;2,88;4,63;2,88;4,63;0;0;
22379;-17,09;-5,66;-17,09;-5,66;2,89;5,16;2,89;5,16;0;0;
22396;-18,36;1,75;-18,36;1,75;2,93;5,58;2,93;5,58;0;0;
22411;-18,36;1,75;-18,36;1,75;3,02;5,72;3,02;5,72;0;0;
22428;-13,9;-8,42;-13,9;-8,42;3,29;5,6;3,29;5,6;0;0;
22443;-18,04;-5,53;-18,04;-5,53;3,14;5,48;3,14;5,48;0;0;
22459;-17,88;-1,65;-17,88;-1,65;2,84;4,63;2,84;4,63;0;0;
22475;-12,69;-6,43;-12,69;-6,43;2,8;3,23;2,8;3,23;0;0;
22491;-12,69;-6,43;-12,69;-6,43;2,81;2,27;2,81;2,27;0;0;
22506;-10,78;7,13;-10,78;7,13;3;3,62;3;3,62;0;0;
22523;-11,51;-0,67;-11,51;-0,67;2,96;3,98;2,96;3,98;0;0;
22539;-20,6;-5,7;-20,6;-5,7;3,17;3,68;3,17;3,68;0;0;
22554;-20,6;-5,7;-20,6;-5,7;3,52;3,65;3,52;3,65;0;0;
22569;-15,51;-8,78;-15,51;-8,78;3,39;7,4;3,39;7,4;0;0;
22585;-19,97;2,95;-19,97;2,95;3,38;10,69;3,38;10,69;0;0;
22603;-12,52;14,88;-12,52;14,88;3,22;11,56;3,22;11,56;0;0;
22620;-16,3;8,49;-16,3;8,49;3,16;15,48;3,16;15,48;0;0;
22636;-18,62;-6,61;-18,62;-6,61;2,97;16,6;2,97;16,6;0;0;
22653;-18,62;-6,61;-18,62;-6,61;2,9;15,66;2,9;15,66;0;0;
22670;-14,55;-5,57;-14,55;-5,57;2,75;12,37;2,75;12,37;0;0;
22688;-24,71;-4,72;-24,71;-4,72;2,79;9,62;2,79;9,62;0;0;
22703;-20,17;0,23;-20,17;0,23;2,74;7,8;2,74;7,8;0;0;
22718;-20,42;-12,73;-20,42;-12,73;2,81;5,72;2,81;5,72;0;0;
22737;-20,91;2,23;-20,91;2,23;3,1;5,09;3,1;5,09;0;0;
22754;-20,91;2,23;-20,91;2,23;3,35;5,21;3,35;5,21;0;0;
22768;-4,53;-6,71;-4,53;-6,71;3,37;5,24;3,37;5,24;0;0;
22784;-18,82;-8,15;-18,82;-8,15;3,43;4,5;3,43;4,5;0;0;
22800;-18,86;-6,12;-18,86;-6,12;3,31;2,83;3,31;2,83;0;0;
22817;-21,34;1,12;-21,34;1,12;3,61;3,17;3,61;3,17;0;0;
22831;-21,34;1,12;-21,34;1,12;3,57;3,33;3,57;3,33;0;0;
22846;-16,06;6,52;-16,06;6,52;3,3;5,88;3,3;5,88;0;0;
22862;-11;10,18;-11;10,18;3,32;6,71;3,32;6,71;0;0;
22880;-19,61;-2,71;-19,61;-2,71;3,35;11,88;3,35;11,88;0;0;
22904;-23,67;-10,01;-23,67;-10,01;3,32;17,19;3,32;17,19;0;0;
22919;-20,14;13,72;-20,14;13,72;3,32;23,26;3,32;23,26;1;0;
22935;-20,14;13,72;-20,14;13,72;3,47;28,6;3,47;28,6;1;0;
22954;-8,91;34,93;-8,91;34,93;4,02;33,67;4,02;33,67;1;0;
22971;-12,27;32,4;-12,27;32,4;4,54;34,61;4,54;34,61;1;0;
22988;-11,72;1,95;-11,72;1,95;5,14;30,22;5,14;30,22;1;0;
23005;-16,26;-3,29;-16,26;-3,29;4,87;24,7;4,87;24,7;1;0;
23023;-27,84;-6,82;-27,84;-6,82;5,13;17,41;5,13;17,41;1;0;
23039;-18,79;-0,67;-18,79;-0,67;5,23;15,26;5,23;15,26;1;0;
23056;-56,98;1,28;-56,98;1,28;8,42;7,14;8,42;7,14;1;0;
23073;-56,98;1,28;-56,98;1,28;11,06;5,29;11,06;5,29;1;0;
23089;144,67;-9,16;144,67;-9,16;22,67;6,23;22,67;6,23;1;0;
23103;-27,62;13,37;-27,62;13,37;35,71;6,29;35,71;6,29;1;0;
23119;23,38;-7,44;23,38;-7,44;52,63;6,53;52,63;6,53;1;0;
23136;-5;-15,27;-5;-15,27;62,51;6,79;62,51;6,79;1;0;
23151;-5;-15,27;-5;-15,27;70,53;7,11;70,53;7,11;1;0;
23166;-10,72;-7,15;-10,72;-7,15;64,19;5,93;64,19;5,93;1;0;
23186;-10,63;-2,66;-10,63;-2,66;50,13;5,12;50,13;5,12;1;0;
23202;-12,57;6,87;-12,57;6,87;38,14;9,55;38,14;9,55;1;0;
23220;26,56;-5,72;26,56;-5,72;32,61;9,61;32,61;9,61;1;0;
23236;-118,7;-7,08;-118,7;-7,08;33,89;9,01;33,89;9,01;1;0;
23254;-118,7;-7,08;-118,7;-7,08;41,09;8,27;41,09;8,27;1;0;
23271;12,72;-0,67;12,72;-0,67;44,52;8,91;44,52;8,91;0;0;
23287;-7,68;-7,67;-7,68;-7,67;43,83;8,14;43,83;8,14;0;0;
23304;-20,01;-1,16;-20,01;-1,16;40,04;5,71;40,04;5,71;0;0;
23321;3,27;3,71;3,27;3,71;37,6;7,93;37,6;7,93;0;0;
23340;-15,34;-3,4;-15,34;-3,4;25,15;8,01;25,15;8,01;0;0;
23358;2,13;-1,52;2,13;-1,52;16,46;7,34;16,46;7,34;0;0;
23373;2,13;-1,52;2,13;-1,52;11,97;5,86;11,97;5,86;0;0;
23392;-22,48;-7,55;-22,48;-7,55;15,22;5,31;15,22;5,31;0;0;
23411;-13,27;-6,05;-13,27;-6,05;12,73;3,79;12,73;3,79;0;0;
23429;-14,08;-6,22;-14,08;-6,22;7,8;2,18;7,8;2,18;0;0;
23447;-21,52;-5,21;-21,52;-5,21;8,01;1,65;8,01;1,65;0;0;
23463;-17,02;-5,26;-17,02;-5,26;8,03;1,7;8,03;1,7;0;0;
23479;-11,3;-5,17;-11,3;-5,17;6,06;3,4;6,06;3,4;0;0;
23494;-11,3;-5,17;-11,3;-5,17;3,7;5,25;3,7;5,25;0;0;
23511;-23,46;-3,09;-23,46;-3,09;3,65;10,71;3,65;10,71;0;0;
23529;-14,86;-5,66;-14,86;-5,66;3,73;12,72;3,73;12,72;0;0;
23545;-6,59;-3,88;-6,59;-3,88;3,47;13,43;3,47;13,43;0;0;
23563;-27,82;-12,86;-27,82;-12,86;3,38;12,51;3,38;12,51;0;0;
23577;-20,32;-3,16;-20,32;-3,16;3,17;11,39;3,17;11,39;0;0;
23595;-20,32;-3,16;-20,32;-3,16;3,19;8,09;3,19;8,09;0;0;
23610;-20,64;-9,48;-20,64;-9,48;3,36;4,81;3,36;4,81;0;0;
23627;-14,92;-7,41;-14,92;-7,41;3,41;3,76;3,41;3,76;0;0;
23642;-11,62;-11,08;-11,62;-11,08;3,66;4,03;3,66;4,03;0;0;
23659;-15,11;10,72;-15,11;10,72;3,46;8,39;3,46;8,39;0;0;
23675;-15,11;10,72;-15,11;10,72;3,46;12,46;3,46;12,46;0;0;
23691;-13,61;-8,76;-13,61;-8,76;3,49;12,25;3,49;12,25;0;0;
23708;-19,47;-7,36;-19,47;-7,36;3,23;12,39;3,23;12,39;0;0;
23723;-19,04;-4,2;-19,04;-4,2;3,17;11,88;3,17;11,88;0;0;
23740;-11,99;-10,92;-11,99;-10,92;2,54;8,75;2,54;8,75;0;0;
23756;-10,83;-10,02;-10,83;-10,02;2,26;6,53;2,26;6,53;0;0;
23771;-10,83;-10,02;-10,83;-10,02;2,19;7,22;2,19;7,22;0;0;
23786;-22,97;-17,58;-22,97;-17,58;2,1;7,82;2,1;7,82;0;0;
23803;-15,41;-1,87;-15,41;-1,87;2,19;8,46;2,19;8,46;0;0;
23817;-19,13;-39,28;-19,13;-39,28;2,29;10,37;2,29;10,37;0;0;
23832;-19,13;-39,28;-19,13;-39,28;2,35;12,01;2,35;12,01;0;0;
23849;-15,29;2,88;-15,29;2,88;2,31;13,25;2,31;13,25;0;0;
23868;-4,2;-11,03;-4,2;-11,03;2,46;11,2;2,46;11,2;0;0;
23882;-9,99;1,5;-9,99;1,5;2,67;10,74;2,67;10,74;0;0;
23902;-14,36;-14,31;-14,36;-14,31;2,66;11,22;2,66;11,22;0;0;
23916;-21,56;4,63;-21,56;4,63;2,81;9,88;2,81;9,88;0;0;
23933;-21,56;4,63;-21,56;4,63;2,96;7,01;2,96;7,01;0;0;
23965;-12,4;-12,9;-12,4;-12,9;3,5;5,78;3,5;5,78;0;0;
23981;-17,49;-9,1;-17,49;-9,1;3,36;4,97;3,36;4,97;0;0;
24000;-14,9;-19,63;-14,9;-19,63;3,14;4,93;3,14;4,93;0;0;
24018;-10,79;-51,19;-10,79;-51,19;3,52;11,41;3,52;11,41;0;0;
24033;-10,79;-51,19;-10,79;-51,19;3,59;18,03;3,59;18,03;0;0;
24047;-13,46;-7,8;-13,46;-7,8;2,91;18,65;2,91;18,65;0;0;
24063;-16,05;-8,7;-16,05;-8,7;2,76;18,73;2,76;18,73;0;0;
24079;-11,83;-5,72;-11,83;-5,72;2,77;18,7;2,77;18,7;0;0;
24096;-16,19;-14,84;-16,19;-14,84;2,93;17,1;2,93;17,1;0;0;
24111;-16,19;-14,84;-16,19;-14,84;2,78;10,9;2,78;10,9;0;0;
24128;-12,94;4,26;-12,94;4,26;2,68;7,84;2,68;7,84;0;0;
24146;-12,66;-1,69;-12,66;-1,69;2,85;8,15;2,85;8,15;0;0;
24162;-10,98;-7,47;-10,98;-7,47;3,03;7,71;3,03;7,71;0;0;
24177;-15,82;-5,28;-15,82;-5,28;3,15;8,06;3,15;8,06;0;0;
24194;-15,82;-5,28;-15,82;-5,28;3,33;7,65;3,33;7,65;0;0;
24208;-16,21;-15,88;-16,21;-15,88;3,16;6,37;3,16;6,37;0;0;
24225;-14,36;0,88;-14,36;0,88;3,2;8,16;3,2;8,16;0;0;
24240;-19,24;-9,82;-19,24;-9,82;3,17;9,02;3,17;9,02;0;0;
24257;-13,67;10,5;-13,67;10,5;3,08;11,37;3,08;11,37;0;0;
24271;-13,67;10,5;-13,67;10,5;3,18;13,51;3,18;13,51;0;0;
24287;-19,36;0,87;-19,36;0,87;3,29;14,05;3,29;14,05;0;0;
24304;-18,77;-18,35;-18,77;-18,35;3,51;13,52;3,51;13,52;0;0;
24319;-15,59;-8,78;-15,59;-8,78;3,43;11,84;3,43;11,84;0;0;
24340;-15,7;-28,81;-15,7;-28,81;3,06;12,32;3,06;12,32;0;0;
24355;-15,7;-28,81;-15,7;-28,81;2,9;12,81;2,9;12,81;0;0;
24371;-6,79;-5,37;-6,79;-5,37;2,73;11,79;2,73;11,79;0;0;
24386;-16,94;4,72;-16,94;4,72;2,53;13,93;2,53;13,93;0;0;
24402;-24,17;-1,67;-24,17;-1,67;2,8;12,63;2,8;12,63;0;0;
24420;-16,32;-29,76;-16,32;-29,76;2,78;11,24;2,78;11,24;0;0;
24437;-21,18;-1,03;-21,18;-1,03;2,52;8,63;2,52;8,63;0;0;
24451;-21,18;-1,03;-21,18;-1,03;2,43;6,88;2,43;6,88;0;0;
24467;-21,21;-39,99;-21,21;-39,99;2,25;9,83;2,25;9,83;0;0;
24483;-14,79;4,66;-14,79;4,66;2,58;9,13;2,58;9,13;0;0;
24499;-10,21;-7,41;-10,21;-7,41;2,72;9,28;2,72;9,28;0;0;
24516;-14,38;-2,1;-14,38;-2,1;2,83;9,06;2,83;9,06;0;0;
24533;-14,38;-2,1;-14,38;-2,1;2,96;9,24;2,96;9,24;0;0;
24550;-16,59;5,39;-16,59;5,39;3,16;10,88;3,16;10,88;0;0;
24565;-15,13;-3,23;-15,13;-3,23;3,06;6,62;3,06;6,62;0;0;
24579;-12,49;5,41;-12,49;5,41;2,6;8,3;2,6;8,3;0;0;
24596;-15,66;3,39;-15,66;3,39;2,56;8,38;2,56;8,38;0;0;
24610;-15,66;3,39;-15,66;3,39;2,72;8,25;2,72;8,25;0;0;
24625;-13,28;-3,33;-13,28;-3,33;3,02;8,9;3,02;8,9;0;0;
24640;-13,22;-22,5;-13,22;-22,5;2,86;9,29;2,86;9,29;0;0;
24656;-14,14;-4,03;-14,14;-4,03;3,06;8,05;3,06;8,05;0;0;
24671;-14,14;-4,03;-14,14;-4,03;3,17;7,16;3,17;7,16;0;0;
24687;-16,95;7,05;-16,95;7,05;2,93;7,98;2,93;7,98;0;0;
24702;-18,12;-41,13;-18,12;-41,13;2,74;12,83;2,74;12,83;0;0;
24717;-12,62;10,78;-12,62;10,78;3,14;14,72;3,14;14,72;1;0;
24732;-12,62;10,78;-12,62;10,78;3,54;17,38;3,54;17,38;1;0;
24748;-12,69;-47,21;-12,69;-47,21;5,22;23,56;5,22;23,56;1;0;
24762;-11,33;10,69;-11,33;10,69;5,7;25,85;5,7;25,85;1;0;
24778;-13,45;-18,78;-13,45;-18,78;5,69;26,4;5,69;26,4;1;0;
24796;-32,17;7,96;-32,17;7,96;5,83;26,99;5,83;26,99;1;0;
24813;-32,17;7,96;-32,17;7,96;5,47;27,32;5,47;27,32;1;0;
24829;12,1;-5,18;12,1;-5,18;11,56;23,14;11,56;23,14;1;0;
24847;-22,8;-23,72;-22,8;-23,72;39,6;17,96;39,6;17,96;1;0;
24863;-100,45;-12,36;-100,45;-12,36;56,8;16,76;56,8;16,76;1;0;
24879;116,72;-40,68;116,72;-40,68;71,18;15,74;71,18;15,74;1;0;
24897;29,59;-9,05;29,59;-9,05;84,85;11,95;84,85;11,95;1;0;
24914;29,59;-9,05;29,59;-9,05;96,14;9,3;96,14;9,3;0;0;
24934;-16,48;-7,07;-16,48;-7,07;85,79;8,66;85,79;8,66;0;0;
24954;-23,71;-0,28;-23,71;-0,28;54,75;6,88;54,75;6,88;0;0;
24972;12,27;-2,74;12,27;-2,74;42,58;5,94;42,58;5,94;0;0;
24990;-6,22;-1,81;-6,22;-1,81;36,06;3,49;36,06;3,49;0;0;
25007;-17,37;-9,55;-17,37;-9,55;22,91;3,69;22,91;3,69;0;0;
25026;-7,58;-2,64;-7,58;-2,64;12,4;3,31;12,4;3,31;0;0;
25041;-18,42;-5,76;-18,42;-5,76;12,9;3,38;12,9;3,38;0;0;
25058;135,22;-6,86;135,22;-6,86;22,36;3,38;22,36;3,38;0;0;
25074;135,22;-6,86;135,22;-6,86;29,5;3,39;29,5;3,39;0;0;
25091;-20,34;-3,94;-20,34;-3,94;27,07;2,71;27,07;2,71;0;0;
25107;-11,9;-9,83;-11,9;-9,83;27,1;2,04;27,1;2,04;0;0;
25122;-18,13;-6,62;-18,13;-6,62;26,13;1,91;26,13;1,91;0;0;
25139;-11,37;15,25;-11,37;15,25;24,17;2,19;24,17;2,19;0;0;
25154;-11,37;15,25;-11,37;15,25;13,12;2,6;13,12;2,6;0;0;
25170;-13,58;-25,06;-13,58;-25,06;3,47;4,69;3,47;4,69;0;0;
25186;-18,06;-1,29;-18,06;-1,29;3,2;5,65;3,2;5,65;0;0;
25204;-14,49;-6,15;-14,49;-6,15;3,06;5,85;3,06;5,85;0;0;
25220;-12,91;-4,18;-12,91;-4,18;3,16;5,7;3,16;5,7;0;0;
25237;-16,07;-9,19;-16,07;-9,19;3,03;6,75;3,03;6,75;0;0;
25253;-16,07;-9,19;-16,07;-9,19;3,01;7,22;3,01;7,22;0;0;
25269;-10,08;-61,8;-10,08;-61,8;3,58;8,31;3,58;8,31;0;0;
25283;-15,94;9,29;-15,94;9,29;3,65;10,78;3,65;10,78;0;0;
25302;-14,75;-8,37;-14,75;-8,37;3,65;11,18;3,65;11,18;0;0;
25318;-10,99;-6,01;-10,99;-6,01;3,19;12,33;3,19;12,33;0;0;
25334;-10,99;-6,01;-10,99;-6,01;3,01;12,27;3,01;12,27;0;0;
25349;-16,02;-5,69;-16,02;-5,69;3,1;10,12;3,1;10,12;0;0;
25362;-14,34;33,37;-14,34;33,37;2,81;8,5;2,81;8,5;0;0;
25377;-14,11;2,83;-14,11;2,83;2,89;10,38;2,89;10,38;0;0;
25394;-14,11;2,83;-14,11;2,83;3,05;13,77;3,05;13,77;0;0;
25409;-11,72;-7,3;-11,72;-7,3;3,12;12,66;3,12;12,66;0;0;
25426;-16,16;-8,38;-16,16;-8,38;3,43;11,65;3,43;11,65;0;0;
25441;-18,94;-3,67;-18,94;-3,67;3,54;11,57;3,54;11,57;0;0;
25458;-6,49;-7,28;-6,49;-7,28;3,45;11,41;3,45;11,41;0;0;
25472;-6,49;-7,28;-6,49;-7,28;3,52;10,28;3,52;10,28;0;0;
25488;-32,34;2,48;-32,34;2,48;3,99;10,65;3,99;10,65;0;0;
25504;-13,62;-4,38;-13,62;-4,38;4,7;11,11;4,7;11,11;0;0;
25520;-19,82;-6,2;-19,82;-6,2;4,6;11,11;4,6;11,11;0;0;
25539;-8,89;-1,89;-8,89;-1,89;4,49;10,96;4,49;10,96;0;0;
25554;-8,89;-1,89;-8,89;-1,89;4,43;8,5;4,43;8,5;0;0;
25570;-48,98;-16,29;-48,98;-16,29;5,41;6,75;5,41;6,75;0;0;
25586;-1,22;-16,61;-1,22;-16,61;5,83;8,19;5,83;8,19;0;0;
25603;-7,86;2,08;-7,86;2,08;6,21;10;6,21;10;0;0;
25618;-21,37;-7,89;-21,37;-7,89;5,9;9,95;5,9;9,95;0;0;
25635;-21,37;-7,89;-21,37;-7,89;5,71;10,01;5,71;10,01;0;0;
25652;-14,8;-23,78;-14,8;-23,78;5,77;9,22;5,77;9,22;0;0;
25669;-15,37;-5,24;-15,37;-5,24;3,78;7,34;3,78;7,34;0;0;
25683;-18,57;-10,57;-18,57;-10,57;3,41;6,08;3,41;6,08;0;0;
25700;-16,12;-5,51;-16,12;-5,51;3,09;8,85;3,09;8,85;0;0;
25714;-16,12;-5,51;-16,12;-5,51;3,03;12,45;3,03;12,45;0;0;
25730;-11,5;-4,86;-11,5;-4,86;3,11;12,15;3,11;12,15;0;0;
25751;-10,73;-19,81;-10,73;-19,81;2,96;12,81;2,96;12,81;0;0;
25766;-14,87;-3,26;-14,87;-3,26;2,95;12,38;2,95;12,38;0;0;
25782;-11,05;-16,43;-11,05;-16,43;2,93;8,98;2,93;8,98;0;0;
25800;-15,01;-2,48;-15,01;-2,48;3,01;5,28;3,01;5,28;0;0;
25820;-10,02;-11,73;-10,02;-11,73;3,05;5,49;3,05;5,49;0;0;
25836;-14,55;-0,12;-14,55;-0,12;2,88;5,16;2,88;5,16;0;0;
25851;-14,55;-0,12;-14,55;-0,12;2,83;3,39;2,83;3,39;0;0;
25866;-15,92;8,16;-15,92;8,16;2,7;4,23;2,7;4,23;0;0;
25881;-17,58;-0,51;-17,58;-0,51;2,45;4,16;2,45;4,16;0;0;
25897;-21,89;-7,33;-21,89;-7,33;2,53;4,08;2,53;4,08;0;0;
25912;-21,89;-7,33;-21,89;-7,33;2,61;3,68;2,61;3,68;0;0;
25930;-19,97;-7,16;-19,97;-7,16;2,79;3,41;2,79;3,41;0;0;
25946;-15,35;8,3;-15,35;8,3;2,91;3,38;2,91;3,38;0;0;
25962;-11,56;0,04;-11,56;0,04;2,99;4,27;2,99;4,27;0;0;
25978;-15,81;-21,88;-15,81;-21,88;2,95;5,86;2,95;5,86;0;0;
25994;-15,81;-21,88;-15,81;-21,88;2,79;7,35;2,79;7,35;0;0;
26010;-17,38;-7,26;-17,38;-7,26;2,7;7,55;2,7;7,55;0;0;
26027;-17,21;-2,96;-17,21;-2,96;2,68;7,55;2,68;7,55;0;0;
26043;-16,44;6,14;-16,44;6,14;2,56;6,46;2,56;6,46;0;0;
26060;-19,25;-21,94;-19,25;-21,94;2,48;7,82;2,48;7,82;0;0;
26076;-17,48;-56,35;-17,48;-56,35;2,4;10,37;2,4;10,37;0;0;
26091;-17,48;-56,35;-17,48;-56,35;2,28;13,57;2,28;13,57;0;0;
26105;-19,46;2,39;-19,46;2,39;2,36;16;2,36;16;0;0;
26120;-17,91;-15,7;-17,91;-15,7;2,3;16,51;2,3;16,51;0;0;
26136;-18,52;7,91;-18,52;7,91;2,4;16,12;2,4;16,12;0;0;
26151;-18,52;7,91;-18,52;7,91;2,38;13,78;2,38;13,78;0;0;
26168;-10,05;7,93;-10,05;7,93;2,73;15,08;2,73;15,08;0;0;
26184;-13,44;15,77;-13,44;15,77;2,67;12,48;2,67;12,48;0;0;
26200;-10,61;-9,7;-10,61;-9,7;2,72;12,27;2,72;12,27;0;0;
26214;-10,61;-9,7;-10,61;-9,7;2,83;12,19;2,83;12,19;0;0;
26231;-20,83;-11,66;-20,83;-11,66;3,13;12,22;3,13;12,22;0;0;
26247;-15,04;-48,55;-15,04;-48,55;3,17;11,59;3,17;11,59;0;0;
26264;-13,58;-62,13;-13,58;-62,13;3,1;13,81;3,1;13,81;0;0;
26280;-16,96;-45,24;-16,96;-45,24;3,64;14,29;3,64;14,29;0;0;
26296;-19,17;-2,54;-19,17;-2,54;3,76;15,28;3,76;15,28;0;0;
26313;-19,17;-2,54;-19,17;-2,54;3,82;16,09;3,82;16,09;0;0;
26330;-16,86;-10,13;-16,86;-10,13;3,55;20,16;3,55;20,16;0;0;
26344;-21,11;-0,35;-21,11;-0,35;3,5;15,92;3,5;15,92;0;0;
26359;-23,13;-24,32;-23,13;-24,32;3,15;12,78;3,15;12,78;0;0;
26373;-23,13;-24,32;-23,13;-24,32;2,79;11,36;2,79;11,36;0;0;
26391;-14,82;6,22;-14,82;6,22;3,28;12,63;3,28;12,63;0;0;
26407;-6,83;12,93;-6,83;12,93;3,99;12,84;3,99;12,84;0;0;
26423;-11,25;-26,23;-11,25;-26,23;4,19;17,13;4,19;17,13;0;0;
26440;-17,93;-11,27;-17,93;-11,27;4,39;18,28;4,39;18,28;0;0;
26457;-15,57;54,75;-15,57;54,75;4,84;20,51;4,84;20,51;0;0;
26472;-15,57;54,75;-15,57;54,75;5,01;22;5,01;22;0;0;
26488;-21,03;25,42;-21,03;25,42;4,87;31,01;4,87;31,01;1;0;
26504;-20,38;-0,83;-20,38;-0,83;6,29;30,43;6,29;30,43;1;0;
26522;0,93;-9,91;0,93;-9,91;8,24;27,8;8,24;27,8;1;0;
26539;27,2;-3,36;27,2;-3,36;12,62;26,24;12,62;26,24;1;0;
26556;-47,68;-5,34;-47,68;-5,34;33,66;22,95;33,66;22,95;1;0;
26571;-47,68;-5,34;-47,68;-5,34;54,34;12,03;54,34;12,03;1;0;
26586;146,23;-2,87;146,23;-2,87;61,7;4,85;61,7;4,85;1;0;
26605;-107,68;-21,42;-107,68;-21,42;80,59;4,26;80,59;4,26;1;0;
26621;-98,22;-19,33;-98,22;-19,33;95,49;6,03;95,49;6,03;0;0;
26641;-10,18;-4,16;-10,18;-4,16;96,67;6,35;96,67;6,35;0;0;
26658;-23,52;-4,06;-23,52;-4,06;78,63;6,49;78,63;6,49;0;0;
26676;-27,64;-1,3;-27,64;-1,3;63,14;6,18;63,14;6,18;0;0;
26692;-27,64;-1,3;-27,64;-1,3;48,25;5,45;48,25;5,45;0;0;
26708;-24,39;-2,66;-24,39;-2,66;31,46;4,67;31,46;4,67;0;0;
26726;-2,48;-5,68;-2,48;-5,68;18,44;2,95;18,44;2,95;0;0;
26743;-6,4;-6,72;-6,4;-6,72;14,05;2,32;14,05;2,32;0;0;
26758;-13,04;-5,7;-13,04;-5,7;13,18;2,24;13,18;2,24;0;0;
26772;-13,04;-5,7;-13,04;-5,7;13,28;2,28;13,28;2,28;0;0;
26788;-9,24;-7,82;-9,24;-7,82;15,78;1,99;15,78;1,99;0;0;
26804;-20,23;-6,88;-20,23;-6,88;13,49;2,23;13,49;2,23;0;0;
26820;-24,82;1,91;-24,82;1,91;10;2,74;10;2,74;0;0;
26834;-24,82;1,91;-24,82;1,91;8,75;3,25;8,75;3,25;0;0;
26850;-21,11;-25,09;-21,11;-25,09;8,06;7,05;8,06;7,05;0;0;
26868;-16,88;7,92;-16,88;7,92;5,08;9,2;5,08;9,2;0;0;
26882;-19,04;-26,94;-19,04;-26,94;2,95;10,43;2,95;10,43;0;0;
26898;-16,09;2,11;-16,09;2,11;3,18;12,67;3,18;12,67;0;0;
26913;-16,09;2,11;-16,09;2,11;3,17;14,83;3,17;14,83;0;0;
26930;-32,52;-5,81;-32,52;-5,81;3,31;12,78;3,31;12,78;0;0;
26946;-14,94;21,63;-14,94;21,63;3,6;10,29;3,6;10,29;0;0;
26963;-18;-0,22;-18;-0,22;3,63;12,31;3,63;12,31;0;0;
26979;-21,99;-106,73;-21,99;-106,73;3,81;16,34;3,81;16,34;0;0;
26995;-15,39;-0,13;-15,39;-0,13;3,69;16,46;3,69;16,46;0;0;
27012;-15,39;-0,13;-15,39;-0,13;3,74;17,9;3,74;17,9;0;0;
27030;-23,54;-79,89;-23,54;-79,89;3,54;22,36;3,54;22,36;0;0;
27046;-14,54;9,46;-14,54;9,46;3,57;24,87;3,57;24,87;0;0;
27063;-18,71;-3,43;-18,71;-3,43;3,54;19,91;3,54;19,91;0;0;
27079;-15,6;7,35;-15,6;7,35;3,35;16,58;3,35;16,58;0;0;
27095;-15,6;7,35;-15,6;7,35;3,25;15,38;3,25;15,38;0;0;
27110;-18,47;-8,21;-18,47;-8,21;3,32;14,06;3,32;14,06;0;0;
27126;-18,33;-3,37;-18,33;-3,37;2,84;7,6;2,84;7,6;0;0;
27146;-12,68;-55,16;-12,68;-55,16;3,08;9,74;3,08;9,74;0;0;
27163;-8,49;23,21;-8,49;23,21;3,75;18,56;3,75;18,56;0;0;
27179;-17,76;-1,61;-17,76;-1,61;3,72;18,36;3,72;18,36;0;0;
27197;-22,41;-5,67;-22,41;-5,67;3,7;17,53;3,7;17,53;0;0;
27212;-22,41;-5,67;-22,41;-5,67;3,94;17,37;3,94;17,37;0;0;
27227;-13,58;-7,06;-13,58;-7,06;3,93;17,64;3,93;17,64;0;0;
27241;-19,26;-7,67;-19,26;-7,67;2,96;6,75;2,96;6,75;0;0;
27257;-20,16;-5,78;-20,16;-5,78;2,85;3,14;2,85;3,14;0;0;
27274;-20,16;-5,78;-20,16;-5,78;2,78;2,84;2,78;2,84;0;0;
27292;-15,23;-1,65;-15,23;-1,65;2,75;2,96;2,75;2,96;0;0;
27306;-21,34;60,47;-21,34;60,47;2,74;4,38;2,74;4,38;0;0;
27322;-15,86;16,51;-15,86;16,51;3,02;11,2;3,02;11,2;0;0;
27338;-8,19;-1,99;-8,19;-1,99;3,31;13,07;3,31;13,07;0;0;
27355;-20,51;-12,69;-20,51;-12,69;3,24;13,22;3,24;13,22;0;0;
27370;-20,51;-12,69;-20,51;-12,69;2,96;13,15;2,96;13,15;0;0;
27385;-10,58;5,79;-10,58;5,79;3,09;20,67;3,09;20,67;0;0;
27401;-20,93;-9,73;-20,93;-9,73;2,6;13,76;2,6;13,76;0;0;
27419;-19,5;-17,19;-19,5;-17,19;2,38;11,04;2,38;11,04;0;0;
27434;-19,5;-17,19;-19,5;-17,19;2,16;10,8;2,16;10,8;0;0;
27451;-10,78;-1,83;-10,78;-1,83;2,71;10,94;2,71;10,94;0;0;
27468;-28,99;-28,82;-28,99;-28,82;3,31;11,35;3,31;11,35;0;0;
27483;-13,04;3,09;-13,04;3,09;3,55;9,92;3,55;9,92;0;0;
27502;-17,26;-8,57;-17,26;-8,57;3,49;9,88;3,49;9,88;0;0;
27518;-14,98;-6,04;-14,98;-6,04;3,66;9,69;3,66;9,69;0;0;
27536;-12,35;-17,78;-12,35;-17,78;3,2;11,04;3,2;11,04;0;0;
27552;-12,35;-17,78;-12,35;-17,78;2,36;10,94;2,36;10,94;0;0;
27568;-16,05;-10,11;-16,05;-10,11;2,23;6,7;2,23;6,7;0;0;
27584;-23,03;30,64;-23,03;30,64;2,14;6,28;2,14;6,28;0;0;
27601;-21,39;13,85;-21,39;13,85;2,6;9,36;2,6;9,36;0;0;
27617;-10,25;9,26;-10,25;9,26;2,55;11,51;2,55;11,51;0;0;
27633;-10,25;9,26;-10,25;9,26;2,68;12,58;2,68;12,58;0;0;
27649;-18,48;-6,57;-18,48;-6,57;2,49;11,06;2,49;11,06;0;0;
27666;4,64;4,99;4,64;4,99;2,94;11,3;2,94;11,3;0;0;
27682;-13,11;-25,47;-13,11;-25,47;3,13;11,42;3,13;11,42;0;0;
27698;-16,61;7;-16,61;7;3,08;10,74;3,08;10,74;0;0;
27712;-16,61;7;-16,61;7;3,2;10,29;3,2;10,29;0;0;
27729;-16,92;-13,25;-16,92;-13,25;3,16;9,66;3,16;9,66;0;0;
27745;-16,67;-4,67;-16,67;-4,67;3,3;10,1;3,3;10,1;0;0;
27761;-23,16;-53,98;-23,16;-53,98;3,03;12,37;3,03;12,37;0;0;
27776;-16,64;1,38;-16,64;1,38;2,86;10,6;2,86;10,6;0;0;
27794;-16,64;1,38;-16,64;1,38;2,97;10,09;2,97;10,09;0;0;
27810;-15,97;4,3;-15,97;4,3;2,96;11,42;2,96;11,42;0;0;
27826;-12,79;-5,47;-12,79;-5,47;2,98;11,77;2,98;11,77;0;0;
27841;-22,47;-16,18;-22,47;-16,18;3,04;11,93;3,04;11,93;0;0;
27858;-15,11;-13,06;-15,11;-13,06;2,71;10,17;2,71;10,17;0;0;
27873;-15,11;-13,06;-15,11;-13,06;2,63;10,52;2,63;10,52;0;0;
27888;-14,27;-17,72;-14,27;-17,72;2,71;8,77;2,71;8,77;0;0;
27904;-17,65;-2,94;-17,65;-2,94;3,06;8,72;3,06;8,72;0;0;
27919;-19,6;-5,92;-19,6;-5,92;3,19;8,46;3,19;8,46;0;0;
27936;-11,13;-3,69;-11,13;-3,69;3,01;9,33;3,01;9,33;0;0;
27953;-11,13;-3,69;-11,13;-3,69;2,93;9,5;2,93;9,5;0;0;
27967;-20,62;-7,99;-20,62;-7,99;2,83;10,42;2,83;10,42;0;0;
27984;-15,33;-0,06;-15,33;-0,06;3,05;9,38;3,05;9,38;0;0;
28000;-9,53;-22,84;-9,53;-22,84;3,25;9,78;3,25;9,78;0;0;
28017;-13,04;-1,77;-13,04;-1,77;3,3;9,3;3,3;9,3;0;0;
28033;-13,04;-1,77;-13,04;-1,77;3,43;7,37;3,43;7,37;0;0;
28048;-9,57;1,14;-9,57;1,14;3,79;5,51;3,79;5,51;0;0;
28067;-14,17;18,27;-14,17;18,27;3,51;6,28;3,51;6,28;0;0;
28083;-16,49;-5,9;-16,49;-5,9;3,31;10,66;3,31;10,66;0;0;
28097;-10,84;-4,2;-10,84;-4,2;3,34;11,23;3,34;11,23;0;0;
28113;-10,84;-4,2;-10,84;-4,2;3,56;12,51;3,56;12,51;0;0;
28131;-18,43;-8,78;-18,43;-8,78;3,31;12,05;3,31;12,05;0;0;
28149;-15,57;-9,44;-15,57;-9,44;3,26;14,43;3,26;14,43;0;0;
28165;-26,04;-3,97;-26,04;-3,97;3,37;12,67;3,37;12,67;0;0;
28181;-18,76;-24,83;-18,76;-24,83;3,03;9,75;3,03;9,75;0;0;
28199;-15,08;-11,63;-15,08;-11,63;2,86;8,9;2,86;8,9;0;0;
28215;-15,08;-11,63;-15,08;-11,63;3,06;8,97;3,06;8,97;0;0;
28230;-16,9;31,33;-16,9;31,33;3,08;11,52;3,08;11,52;0;0;
28246;-12,57;0,94;-12,57;0,94;3,16;13,62;3,16;13,62;0;0;
28263;-17,08;11,21;-17,08;11,21;3,05;15,84;3,05;15,84;1;0;
28280;-19,43;-8,47;-19,43;-8,47;2,96;14,36;2,96;14,36;1;0;
28296;-14,14;-5,69;-14,14;-5,69;2,94;13,57;2,94;13,57;1;0;
28310;-14,14;-5,69;-14,14;-5,69;2,99;11,6;2,99;11,6;1;0;
28329;-12,59;51,45;-12,59;51,45;3,05;9,44;3,05;9,44;1;0;
28345;-8,98;16,02;-8,98;16,02;3,21;12,84;3,21;12,84;1;0;
28362;1,71;-11,91;1,71;-11,91;6,05;15,68;6,05;15,68;1;0;
28378;-23,92;-7,73;-23,92;-7,73;7,78;16,06;7,78;16,06;1;0;
28394;-23,92;-7,73;-23,92;-7,73;9,41;16,79;9,41;16,79;1;0;
28409;190,59;-6,52;190,59;-6,52;29,71;17,25;29,71;17,25;1;0;
28425;-53,16;14,25;-53,16;14,25;55,97;14,33;55,97;14,33;1;0;
28439;417,03;34,67;417,03;34,67;108;12,53;108;12,53;1;0;
28457;116,13;7,56;116,13;7,56;136,42;15,84;136,42;15,84;0;0;
28479;-21,04;-1,76;-21,04;-1,76;137,94;15,84;137,94;15,84;0;0;
28498;-96,78;-4,1;-96,78;-4,1;134,87;14,97;134,87;14,97;0;0;
28515;-14,14;-3,4;-14,14;-3,4;113,72;13,45;113,72;13,45;0;0;
28533;-14,14;-3,4;-14,14;-3,4;93,81;10,13;93,81;10,13;0;0;
28549;-2,83;-11,57;-2,83;-11,57;42,17;5,62;42,17;5,62;0;0;
28571;-23,4;-3,67;-23,4;-3,67;33,56;3,62;33,56;3,62;0;0;
28589;34,16;-3,51;34,16;-3,51;33,69;3,67;33,69;3,67;0;0;
28606;-12,35;-5,8;-12,35;-5,8;26,66;3,75;26,66;3,75;0;0;
28622;-15,36;-7,43;-15,36;-7,43;21,26;3,4;21,26;3,4;0;0;
28637;-13,54;-13,67;-13,54;-13,67;13,32;3,26;13,32;3,26;0;0;
28654;-13,54;-13,67;-13,54;-13,67;11,82;3,47;11,82;3,47;0;0;
28670;-7,78;-4,43;-7,78;-4,43;9,99;4,11;9,99;4,11;0;0;
28686;-14,41;-1,73;-14,41;-1,73;5,89;7,24;5,89;7,24;0;0;
28701;-9,81;0,37;-9,81;0,37;5,35;7,91;5,35;7,91;0;0;
28719;-11,96;-3,01;-11,96;-3,01;7,34;7,99;7,34;7,99;0;0;
28737;-21,71;0,35;-21,71;0,35;6,23;10,68;6,23;10,68;0;0;
28752;-21,71;0,35;-21,71;0,35;5,55;13,04;5,55;13,04;0;0;
28769;-12,38;-3,29;-12,38;-3,29;5,31;12,78;5,31;12,78;0;0;
28787;-18,57;-26,47;-18,57;-26,47;5,23;11,72;5,23;11,72;0;0;
28802;-9,39;6,62;-9,39;6,62;3,99;14,35;3,99;14,35;0;0;
28816;-18,12;-11,08;-18,12;-11,08;3,31;14,18;3,31;14,18;0;0;
28833;-18,12;-11,08;-18,12;-11,08;3,34;11,3;3,34;11,3;0;0;
28850;-14,49;-0,33;-14,49;-0,33;3,66;7,18;3,66;7,18;0;0;
28867;-17,42;-28,52;-17,42;-28,52;3,57;8,83;3,57;8,83;0;0;
28882;-16,88;-10,8;-16,88;-10,8;3,43;6,05;3,43;6,05;0;0;
28898;-14,68;-5,96;-14,68;-5,96;2,82;5,09;2,82;5,09;0;0;
28913;-14,68;-5,96;-14,68;-5,96;2,47;4,85;2,47;4,85;0;0;
28930;-13,79;23,43;-13,79;23,43;2,24;5,23;2,24;5,23;0;0;
28947;-17,27;-21,3;-17,27;-21,3;1,87;10,33;1,87;10,33;0;0;
28963;-18,58;5,02;-18,58;5,02;2,18;10,38;2,18;10,38;0;0;
28978;-23,04;-21,87;-23,04;-21,87;2,57;10,69;2,57;10,69;0;0;
28994;-23,04;-21,87;-23,04;-21,87;3,04;11,38;3,04;11,38;0;0;
29009;-19,6;-2,95;-19,6;-2,95;3,41;11,54;3,41;11,54;0;0;
29025;-13,15;-4,35;-13,15;-4,35;3,76;9,54;3,76;9,54;0;0;
29042;-21,04;-6,36;-21,04;-6,36;3,85;4,98;3,85;4,98;0;0;
29058;-21,99;-48,39;-21,99;-48,39;4,08;5,29;4,08;5,29;0;0;
29074;-21,99;-48,39;-21,99;-48,39;4,04;6,32;4,04;6,32;0;0;
29091;-16,38;7,24;-16,38;7,24;3,68;5,63;3,68;5,63;0;0;
29106;-21,44;1,99;-21,44;1,99;3,4;7,76;3,4;7,76;0;0;
29122;-15,37;-6,08;-15,37;-6,08;3,32;7,93;3,32;7,93;0;0;
29139;-19,28;-6,06;-19,28;-6,06;3;7,93;3;7,93;0;0;
29158;-8,79;5,06;-8,79;5,06;3,05;6,05;3,05;6,05;0;0;
29172;-8,79;5,06;-8,79;5,06;3,19;4,22;3,19;4,22;0;0;
29188;-20,44;-5,35;-20,44;-5,35;3,26;2,57;3,26;2,57;0;0;
29204;-18,08;-55,67;-18,08;-55,67;3,79;3,68;3,79;3,68;0;0;
29221;-18,95;0,26;-18,95;0,26;3,81;6,06;3,81;6,06;0;0;
29236;-13,89;-4,44;-13,89;-4,44;3,64;6,22;3,64;6,22;0;0;
29250;-13,89;-4,44;-13,89;-4,44;3,33;6,48;3,33;6,48;0;0;
29267;-20,11;-5,59;-20,11;-5,59;3,01;6,27;3,01;6,27;0;0;
29283;-17,08;-4,97;-17,08;-4,97;3,08;6,15;3,08;6,15;0;0;
29298;-12,57;0,55;-12,57;0,55;2,49;2,7;2,49;2,7;0;0;
29313;-12,57;0,55;-12,57;0,55;2,61;2,45;2,61;2,45;0;0;
29329;-13,18;-7,29;-13,18;-7,29;2,89;2,22;2,89;2,22;0;0;
29344;-15,39;-2,99;-15,39;-2,99;2,94;2,05;2,94;2,05;0;0;
29361;-13,99;-23,26;-13,99;-23,26;3,01;5,93;3,01;5,93;0;0;
29378;-13,46;-59,07;-13,46;-59,07;3,27;9,64;3,27;9,64;0;0;
29393;-13,46;-59,07;-13,46;-59,07;3,36;13;3,36;13;0;0;
29409;-19,32;-7,43;-19,32;-7,43;3,07;13;3,07;13;0;0;
29424;-18,61;-4,78;-18,61;-4,78;3,14;13,11;3,14;13,11;0;0;
29439;-13,62;3,33;-13,62;3,33;3,3;14,63;3,3;14,63;0;0;
29455;-13,62;3,33;-13,62;3,33;3,4;14,01;3,4;14,01;0;0;
29471;-14,8;-5,73;-14,8;-5,73;3,16;10,47;3,16;10,47;0;0;
29485;-12,3;3,82;-12,3;3,82;3,1;7,03;3,1;7,03;0;0;
29501;-11,86;-14,15;-11,86;-14,15;3,16;7,99;3,16;7,99;0;0;
29518;-15,55;-0,28;-15,55;-0,28;3,31;6,97;3,31;6,97;0;0;
29537;-22,39;-0,44;-22,39;-0,44;3,25;4,62;3,25;4,62;0;0;
29551;-22,39;-0,44;-22,39;-0,44;3,44;3,65;3,44;3,65;0;0;
29569;-15,48;-4,05;-15,48;-4,05;3,72;3,84;3,72;3,84;0;0;
29588;-18,3;-11,76;-18,3;-11,76;3,59;4,27;3,59;4,27;0;0;
29604;-18,5;-7,75;-18,5;-7,75;3,06;4,28;3,06;4,28;0;0;
29620;-11,15;-3,84;-11,15;-3,84;2,88;3,91;2,88;3,91;0;0;
29634;-11,15;-3,84;-11,15;-3,84;2,56;3,88;2,56;3,88;0;0;
29649;-17,12;-5,31;-17,12;-5,31;2,25;5,23;2,25;5,23;0;0;
29667;-22,65;-4,23;-22,65;-4,23;2,34;4,65;2,34;4,65;0;0;
29682;-22,65;-4,23;-22,65;-4,23;2,18;3,63;2,18;3,63;0;0;
29699;-17,47;-30,92;-17,47;-30,92;2,66;4,21;2,66;4,21;0;0;
29712;-17,47;-30,92;-17,47;-30,92;3,05;5,41;3,05;5,41;0;0;
29728;-18,4;-9,61;-18,4;-9,61;2,94;4,72;2,94;4,72;0;0;
29746;-14,13;-46,05;-14,13;-46,05;3,2;7,12;3,2;7,12;0;0;
29761;-12,76;-4,54;-12,76;-4,54;3,46;9,08;3,46;9,08;0;0;
29776;-15,48;-1,33;-15,48;-1,33;3,34;9,67;3,34;9,67;0;0;
29792;-15,48;-1,33;-15,48;-1,33;3,18;8,89;3,18;8,89;0;0;
29810;-16,19;-2,6;-16,19;-2,6;3,14;7,87;3,14;7,87;0;0;
29825;-16,19;-2,6;-16,19;-2,6;3,05;7,97;3,05;7,97;0;0;
29840;-14,8;3,06;-14,8;3,06;2,71;4,13;2,71;4,13;0;0;
29856;-12,94;-8,39;-12,94;-8,39;2,45;4,92;2,45;4,92;0;0;
29872;-12,94;-8,39;-12,94;-8,39;2,27;5,42;2,27;5,42;0;0;
29888;-16,11;-38,58;-16,11;-38,58;2,14;6,42;2,14;6,42;0;0;
29904;-22,63;-58,83;-22,63;-58,83;2,1;11,03;2,1;11,03;0;0;
29920;-18,32;7,73;-18,32;7,73;2,32;14,27;2,32;14,27;0;0;
29936;-21,86;-10,6;-21,86;-10,6;2,57;13,6;2,57;13,6;0;0;
29951;-21,86;-10,6;-21,86;-10,6;2,83;13,04;2,83;13,04;0;0;
29971;-16,94;-6,67;-16,94;-6,67;3,06;12,55;3,06;12,55;0;0;
29988;-17,03;27,38;-17,03;27,38;3,13;9,63;3,13;9,63;0;0;
30005;-17,04;42,1;-17,04;42,1;2,95;9,15;2,95;9,15;0;0;
30020;-21,19;-10,64;-21,19;-10,64;3,29;9,28;3,29;9,28;0;0;
30039;-20,92;2,91;-20,92;2,91;3,18;9,93;3,18;9,93;0;0;
30053;-20,92;2,91;-20,92;2,91;2,96;11,23;2,96;11,23;0;0;
30071;-12,97;-42,96;-12,97;-42,96;3,07;13,88;3,07;13,88;1;0;
30085;-37,11;-30,09;-37,11;-30,09;4,33;16,25;4,33;16,25;1;0;
30101;-11,34;-54,07;-11,34;-54,07;4,97;23,86;4,97;23,86;1;0;
30120;-20,51;23,93;-20,51;23,93;6,1;34,85;6,1;34,85;1;0;
30135;-20,51;23,93;-20,51;23,93;7,29;46,29;7,29;46,29;1;0;
30150;41,05;-7,49;41,05;-7,49;10,62;45,5;10,62;45,5;1;0;
30169;371,63;-9,45;371,63;-9,45;39,29;44,26;39,29;44,26;1;0;
30186;-16,32;-4,61;-16,32;-4,61;83,52;41,49;83,52;41,49;1;0;
30204;57,57;4,06;57,57;4,06;96,74;23,22;96,74;23,22;0;0;
30225;-141,2;-7,02;-141,2;-7,02;113,5;10,86;113,5;10,86;0;0;
30242;-39,5;-14,62;-39,5;-14,62;125,97;8,59;125,97;8,59;0;0;
30262;57,96;-2,59;57,96;-2,59;120,99;7,28;120,99;7,28;0;0;
30280;-188,94;4,03;-188,94;4,03;103,27;5,6;103,27;5,6;0;0;
30296;5,35;-3,76;5,35;-3,76;86,2;4,76;86,2;4,76;0;0;
30313;5,35;-3,76;5,35;-3,76;79,87;5,33;79,87;5,33;0;0;
30330;-7,48;6;-7,48;6;69,77;5,4;69,77;5,4;0;0;
30345;-11,77;-6,14;-11,77;-6,14;59,18;5,23;59,18;5,23;0;0;
30360;64,47;-4,59;64,47;-4,59;52,24;4,86;52,24;4,86;0;0;
30377;-93,37;-8,18;-93,37;-8,18;40,87;4,28;40,87;4,28;0;0;
30392;-93,37;-8,18;-93,37;-8,18;47,37;3,39;47,37;3,39;0;0;
30408;59,45;-5,35;59,45;-5,35;45,21;2,53;45,21;2,53;0;0;
30424;-17,93;-0,65;-17,93;-0,65;43,57;2,55;43,57;2,55;0;0;
30438;-20,39;-6,12;-20,39;-6,12;44,74;2,91;44,74;2,91;0;0;
30454;-20,39;-6,12;-20,39;-6,12;34,1;3,07;34,1;3,07;0;0;
30471;-19,64;-6,91;-19,64;-6,91;19,89;3,45;19,89;3,45;0;0;
30489;-17,27;-2,06;-17,27;-2,06;13,46;3,61;13,46;3,61;0;0;
30506;-21,25;-1,45;-21,25;-1,45;6,85;6,06;6,85;6,06;0;0;
30523;-9,84;-35,24;-9,84;-35,24;5,84;11,24;5,84;11,24;0;0;
30540;-10,96;19,97;-10,96;19,97;4,43;13,78;4,43;13,78;0;0;
30555;-19,52;-3,04;-19,52;-3,04;3,56;13,97;3,56;13,97;0;0;
30569;-19,52;-3,04;-19,52;-3,04;3,6;14,18;3,6;14,18;0;0;
30583;-19,36;-6,64;-19,36;-6,64;3,52;13,46;3,52;13,46;0;0;
30600;-13,47;-8,63;-13,47;-8,63;3,08;12,16;3,08;12,16;0;0;
30616;-15,93;-0,32;-15,93;-0,32;2,88;6,41;2,88;6,41;0;0;
30632;-15,93;-0,32;-15,93;-0,32;2,96;4,73;2,96;4,73;0;0;
30647;-17,03;-3,37;-17,03;-3,37;3,11;4,5;3,11;4,5;0;0;
30663;-14,73;-8,39;-14,73;-8,39;3,41;3,57;3,41;3,57;0;0;
30679;-15,47;6,42;-15,47;6,42;3,11;2,64;3,11;2,64;0;0;
30694;-15,47;6,42;-15,47;6,42;2,91;2,56;2,91;2,56;0;0;
30709;-23,3;5,99;-23,3;5,99;2,96;3,89;2,96;3,89;0;0;
30726;-20,24;0,03;-20,24;0,03;2,79;4,32;2,79;4,32;0;0;
30741;-8,1;-16,42;-8,1;-16,42;2,75;6,1;2,75;6,1;0;0;
30756;-15,13;-0,6;-15,13;-0,6;2,71;6,59;2,71;6,59;0;0;
30772;-15,13;-0,6;-15,13;-0,6;3,16;6,88;3,16;6,88;0;0;
30787;-20,31;-3,39;-20,31;-3,39;3,19;6,13;3,19;6,13;0;0;
30803;-18,01;-14,77;-18,01;-14,77;3,08;9,62;3,08;9,62;0;0;
30819;-15,06;-7,37;-15,06;-7,37;3,31;10,44;3,31;10,44;0;0;
30834;-15,06;-7,37;-15,06;-7,37;3,32;10,64;3,32;10,64;0;0;
30850;-17,1;5,14;-17,1;5,14;2,94;11,73;2,94;11,73;0;0;
30868;-12,61;-1,23;-12,61;-1,23;2,99;12,22;2,99;12,22;0;0;
30882;-15,42;22,43;-15,42;22,43;3,1;11,32;3,1;11,32;0;0;
30899;-11,25;1,87;-11,25;1,87;3,84;10,16;3,84;10,16;0;0;
30916;-11,68;-8,76;-11,68;-8,76;4,05;8,73;4,05;8,73;0;0;
30931;-11,68;-8,76;-11,68;-8,76;4,53;6,9;4,53;6,9;0;0;
30946;-15,8;-3,4;-15,8;-3,4;4,58;6,19;4,58;6,19;0;0;
30962;-15,75;-5,45;-15,75;-5,45;4,64;8,73;4,64;8,73;0;0;
30977;-19,28;-2,77;-19,28;-2,77;4,05;10,18;4,05;10,18;0;0;
30992;-19,28;-2,77;-19,28;-2,77;3,99;14,14;3,99;14,14;0;0;
31008;-17,33;-17,58;-17,33;-17,58;3,82;14,17;3,82;14,17;0;0;
31023;-11,86;-5,54;-11,86;-5,54;3,4;13,68;3,4;13,68;0;0;
31038;-19,8;7,88;-19,8;7,88;3,69;12,55;3,69;12,55;0;0;
31055;-19,8;7,88;-19,8;7,88;3,49;9,65;3,49;9,65;0;0;
31072;-18,51;-5,62;-18,51;-5,62;3,65;5,99;3,65;5,99;0;0;
31088;-16,92;-5,09;-16,92;-5,09;3,22;2,78;3,22;2,78;0;0;
31103;-13,3;-11,38;-13,3;-11,38;3,11;2,67;3,11;2,67;0;0;
31119;-16,06;-0,45;-16,06;-0,45;2,93;7,63;2,93;7,63;0;0;
31137;-21,38;-0,33;-21,38;-0,33;2,61;8,81;2,61;8,81;0;0;
31152;-21,38;-0,33;-21,38;-0,33;1,74;9,65;1,74;9,65;0;0;
31167;-27,56;-0,32;-27,56;-0,32;2;9,95;2;9,95;0;0;
31182;-15,34;-4,49;-15,34;-4,49;2,39;10,04;2,39;10,04;0;0;
31199;-17,77;-4,35;-17,77;-4,35;2,4;8,34;2,4;8,34;0;0;
31214;-17,77;-4,35;-17,77;-4,35;2,56;4,88;2,56;4,88;0;0;
31229;-12,99;18,57;-12,99;18,57;2,52;4,04;2,52;4,04;0;0;
31244;-23,13;0,62;-23,13;0,62;2,75;5,58;2,75;5,58;0;0;
31260;-14,75;-6,4;-14,75;-6,4;2,4;5,29;2,4;5,29;0;0;
31274;-14,75;-6,4;-14,75;-6,4;2,24;5,13;2,24;5,13;0;0;
31289;-15,64;8,53;-15,64;8,53;2,35;8,88;2,35;8,88;0;0;
31304;-15,64;8,53;-15,64;8,53;2,55;12,79;2,55;12,79;0;0;
31322;-18,55;25,22;-18,55;25,22;2,52;11,57;2,52;11,57;0;0;
31339;-21,6;-51,58;-21,6;-51,58;2,78;14,76;2,78;14,76;0;0;
31354;-21,6;-51,58;-21,6;-51,58;3,08;18,56;3,08;18,56;0;0;
31373;-15,12;-4,09;-15,12;-4,09;2,73;15,95;2,73;15,95;0;0;
31387;-21,6;-3,49;-21,6;-3,49;2,78;12,45;2,78;12,45;0;0;
31405;-8,33;-0,77;-8,33;-0,77;2,94;11,48;2,94;11,48;0;0;
31421;-20,78;-2,86;-20,78;-2,86;2,91;9,5;2,91;9,5;0;0;
31436;-16,35;-9,37;-16,35;-9,37;2,92;5,7;2,92;5,7;0;0;
31451;-16,35;-9,37;-16,35;-9,37;3,15;2,76;3,15;2,76;0;0;
31466;-14,97;-31,68;-14,97;-31,68;3,49;3,22;3,49;3,22;0;0;
31482;-22,65;14,51;-22,65;14,51;3,23;4,69;3,23;4,69;0;0;
31501;-19,3;-25,98;-19,3;-25,98;3,24;7,74;3,24;7,74;0;0;
31519;-16,65;-0,79;-16,65;-0,79;3,25;8,79;3,25;8,79;0;0;
31536;-12,3;-0,13;-12,3;-0,13;3,19;9,59;3,19;9,59;0;0;
31550;-12,3;-0,13;-12,3;-0,13;3,13;10,15;3,13;10,15;0;0;
31567;-14,23;11,92;-14,23;11,92;3,07;10,43;3,07;10,43;0;0;
31582;-16,28;1,97;-16,28;1,97;2,98;9,59;2,98;9,59;0;0;
31603;-14,88;-4,01;-14,88;-4,01;3,2;7,26;3,2;7,26;0;0;
31625;-17,75;-6,53;-17,75;-6,53;2,99;6,26;2,99;6,26;0;0;
31645;-16,52;-7,53;-16,52;-7,53;2,68;5,46;2,68;5,46;0;0;
31665;-8,11;-7,15;-8,11;-7,15;2,94;5,19;2,94;5,19;0;0;
31684;-17,58;6,26;-17,58;6,26;2,87;7,84;2,87;7,84;0;0;
31705;-18,53;-14,77;-18,53;-14,77;2,87;7,46;2,87;7,46;0;0;
31724;-14,87;-1,78;-14,87;-1,78;3,35;7,43;3,35;7,43;0;0;
31743;-19,56;-6,43;-19,56;-6,43;3,92;7,52;3,92;7,52;0;0;
31761;-17,02;-22,1;-17,02;-22,1;3,87;10,21;3,87;10,21;0;0;
31780;-17,1;7,29;-17,1;7,29;3,47;14,77;3,47;14,77;0;0;
31799;-18,95;-3,39;-18,95;-3,39;3,66;12,69;3,66;12,69;0;0;
31816;-11,24;10,52;-11,24;10,52;3,48;12,26;3,48;12,26;0;0;
31832;-11,24;10,52;-11,24;10,52;3,06;12,19;3,06;12,19;0;0;
31847;-10,25;2,61;-10,25;2,61;3,19;14,54;3,19;14,54;0;0;
31863;-17,98;-24,12;-17,98;-24,12;3,32;11,21;3,32;11,21;1;0;
31879;-13,51;-31,52;-13,51;-31,52;3,24;9,46;3,24;9,46;1;0;
31897;-10,52;-73,14;-10,52;-73,14;3,4;16,88;3,4;16,88;1;0;
31912;-10,52;-73,14;-10,52;-73,14;3,34;24,38;3,34;24,38;1;0;
31928;-23,57;-4,63;-23,57;-4,63;3,62;23,2;3,62;23,2;1;0;
31945;-18,14;-2,48;-18,14;-2,48;3,72;21,79;3,72;21,79;1;0;
31960;-17,58;-46,44;-17,58;-46,44;3,77;23,92;3,77;23,92;1;0;
31977;-3,99;-14,74;-3,99;-14,74;4,15;27,96;4,15;27,96;1;0;
31992;-3,99;-14,74;-3,99;-14,74;4,43;29,69;4,43;29,69;1;0;
32009;8,05;1,31;8,05;1,31;6,92;25,77;6,92;25,77;1;0;
32026;118,62;-18,09;118,62;-18,09;22,92;26,19;22,92;26,19;1;0;
32041;55,01;-8,54;55,01;-8,54;32,15;27,41;32,15;27,41;1;0;
32057;-4,44;-39,82;-4,44;-39,82;55,02;24,81;55,02;24,81;1;0;
32074;-4,44;-39,82;-4,44;-39,82;77,63;19,85;77,63;19,85;1;0;
32091;-48,18;-8,88;-48,18;-8,88;78,71;13,79;78,71;13,79;0;0;
32110;-24,03;-4,28;-24,03;-4,28;81,08;13,39;81,08;13,39;0;0;
32128;105,04;-8,07;105,04;-8,07;87,3;12,18;87,3;12,18;0;0;
32147;-3,63;-4,33;-3,63;-4,33;78,98;10,13;78,98;10,13;0;0;
32162;-109,07;-10,78;-109,07;-10,78;67,4;5,99;67,4;5,99;0;0;
32178;-15,86;-10,41;-15,86;-10,41;56,96;3,69;56,96;3,69;0;0;
32195;-15,86;-10,41;-15,86;-10,41;55,89;3,85;55,89;3,85;0;0;
32210;-17,2;-26,9;-17,2;-26,9;41,59;4,67;41,59;4,67;0;0;
32226;-19,84;-7,66;-19,84;-7,66;23,8;4,93;23,8;4,93;0;0;
32241;-11,09;-8,61;-11,09;-8,61;20,66;4,85;20,66;4,85;0;0;
32257;-15,15;-9,24;-15,15;-9,24;8,17;4,83;8,17;4,83;0;0;
32274;-15,15;-9,24;-15,15;-9,24;4,25;4,6;4,25;4,6;0;0;
32288;-18,01;-2,28;-18,01;-2,28;4,83;3,69;4,83;3,69;0;0;
32302;-17,15;-7,09;-17,15;-7,09;4,96;2,5;4,96;2,5;0;0;
32319;-18,14;-8,64;-18,14;-8,64;4,61;2,34;4,61;2,34;0;0;
32338;-17,46;-4,97;-17,46;-4,97;4,82;2,32;4,82;2,32;0;0;
32356;-18,98;-8,37;-18,98;-8,37;4,75;2;4,75;2;0;0;
32370;-18,98;-8,37;-18,98;-8,37;3,09;1,8;3,09;1,8;0;0;
32386;-19,01;-1,47;-19,01;-1,47;3,22;1,8;3,22;1,8;0;0;
32401;-14,4;-6,63;-14,4;-6,63;3,64;1,76;3,64;1,76;0;0;
32416;-19,67;-5,37;-19,67;-5,37;3,82;1,61;3,82;1,61;0;0;
32433;-19,67;-5,37;-19,67;-5,37;3,95;1,72;3,95;1,72;0;0;
32448;-19,19;-5,19;-19,19;-5,19;4,12;1,76;4,12;1,76;0;0;
32466;-13,9;-6,44;-13,9;-6,44;3,95;1,81;3,95;1,81;0;0;
32481;-10,2;-6,37;-10,2;-6,37;3,48;1,71;3,48;1,71;0;0;
32497;-27,31;-10,38;-27,31;-10,38;4,54;1,7;4,54;1,7;0;0;
32512;-27,31;-10,38;-27,31;-10,38;5,38;1,71;5,38;1,71;0;0;
32528;-25,31;-6,93;-25,31;-6,93;5,25;1,82;5,25;1,82;0;0;
32544;-14,03;-6,4;-14,03;-6,4;5,42;1,9;5,42;1,9;0;0;
32559;-16,62;-7,91;-16,62;-7,91;5,09;1,94;5,09;1,94;0;0;
32575;-17,7;-6,85;-17,7;-6,85;4,9;2,09;4,9;2,09;0;0;
32591;-17,7;-6,85;-17,7;-6,85;3,87;2,06;3,87;2,06;0;0;
32608;-13,99;14,7;-13,99;14,7;3,45;9,11;3,45;9,11;0;0;
32624;-17,16;-23,54;-17,16;-23,54;3,69;11,96;3,69;11,96;0;0;
32640;-16,33;11,11;-16,33;11,11;3,71;15,44;3,71;15,44;0;0;
32656;-16,52;2,22;-16,52;2,22;4,1;16,6;4,1;16,6;0;0;
32672;-16,52;2,22;-16,52;2,22;4,18;17,8;4,18;17,8;0;0;
32688;-17,41;14,47;-17,41;14,47;3,93;16,16;3,93;16,16;0;0;
32707;-23,22;-127,35;-23,22;-127,35;3,65;23,06;3,65;23,06;0;0;
32722;-11,68;16,33;-11,68;16,33;3,7;24,63;3,7;24,63;0;0;
32738;-16,28;-11,22;-16,28;-11,22;3,61;23,18;3,61;23,18;0;0;
32755;-20,4;-0,61;-20,4;-0,61;3,61;22,51;3,61;22,51;0;0;
32770;-20,4;-0,61;-20,4;-0,61;3,46;21,68;3,46;21,68;0;0;
32784;-14,46;13,89;-14,46;13,89;3,53;24,08;3,53;24,08;1;0;
32805;-10,63;8,05;-10,63;8,05;3,3;11,9;3,3;11,9;1;0;
32821;-10,15;-6,21;-10,15;-6,21;3,8;15,29;3,8;15,29;1;0;
32836;-21,13;25,82;-21,13;25,82;3,77;24,6;3,77;24,6;1;0;
32851;-21,13;25,82;-21,13;25,82;3,83;33,83;3,83;33,83;1;0;
32868;-14,14;-16,11;-14,14;-16,11;4,91;31,69;4,91;31,69;1;0;
32883;-10,27;-0,87;-10,27;-0,87;5,15;28,68;5,15;28,68;1;0;
32899;-10,27;-0,87;-10,27;-0,87;5,17;25,93;5,17;25,93;1;0;
32915;24,76;-8,04;24,76;-8,04;6,81;18,59;6,81;18,59;1;0;
32932;24,76;-8,04;24,76;-8,04;8,67;8,87;8,67;8,87;1;0;
32948;-31,9;-5,66;-31,9;-5,66;15,63;3,92;15,63;3,92;1;0;
32964;-228,92;-32,19;-228,92;-32,19;36,62;4,83;36,62;4,83;1;0;
33010;23,01;32,01;23,01;32,01;74,03;7,06;74,03;7,06;1;0;
33026;-187,05;-26,79;-187,05;-26,79;88,7;11,92;88,7;11,92;1;0;
33043;118,25;-6,79;118,25;-6,79;107,85;15,04;107,85;15,04;0;0;
33062;-48,95;-4,1;-48,95;-4,1;120,11;15,28;120,11;15,28;0;0;
33081;-31,62;-7,8;-31,62;-7,8;107,06;14,45;107,06;14,45;0;0;
33099;-30,64;-15,94;-30,64;-15,94;83,3;13,57;83,3;13,57;0;0;
33117;12,55;-8,92;12,55;-8,92;68,41;9,49;68,41;9,49;0;0;
33132;12,55;-8,92;12,55;-8,92;56,69;5,78;56,69;5,78;0;0;
33149;-4,09;-2,78;-4,09;-2,78;41,85;4,5;41,85;4,5;0;0;
33165;-4,51;-1,09;-4,51;-1,09;34,79;4,79;34,79;4,79;0;0;
33182;-4,01;-13,64;-4,01;-13,64;33,2;5,35;33,2;5,35;0;0;
33199;-37,33;-9,35;-37,33;-9,35;31,16;5,31;31,16;5,31;0;0;
33214;-37,33;-9,35;-37,33;-9,35;27,12;5,7;27,12;5,7;0;0;
33229;-36,49;12,06;-36,49;12,06;21,27;5,71;21,27;5,71;0;0;
33245;-16,03;-2,98;-16,03;-2,98;16,73;6,41;16,73;6,41;0;0;
33261;-15,94;-0,11;-15,94;-0,11;14,85;6,82;14,85;6,82;0;0;
33278;-21,57;-10,43;-21,57;-10,43;12,65;6,29;12,65;6,29;0;0;
33293;-21,57;-10,43;-21,57;-10,43;7,64;6,38;7,64;6,38;0;0;
33311;-13,35;-34,72;-13,35;-34,72;4,55;8,99;4,55;8,99;0;0;
33327;-15,9;-26,92;-15,9;-26,92;4,09;9,47;4,09;9,47;0;0;
33343;-17,42;-1,86;-17,42;-1,86;4,04;9,85;4,04;9,85;0;0;
33360;-16,75;-5,88;-16,75;-5,88;4,19;8,82;4,19;8,82;0;0;
33376;-14,69;-22,07;-14,69;-22,07;3,39;8,98;3,39;8,98;0;0;
33391;-14,69;-22,07;-14,69;-22,07;2,71;9,06;2,71;9,06;0;0;
33407;-17,06;4,42;-17,06;4,42;2,69;9,65;2,69;9,65;0;0;
33425;-20,63;-12,19;-20,63;-12,19;3,31;17,36;3,31;17,36;0;0;
33439;-13,04;-3,73;-13,04;-3,73;3,86;24,19;3,86;24,19;0;0;
33456;-24,99;-7,81;-24,99;-7,81;4;25,72;4;25,72;0;0;
33471;-24,99;-7,81;-24,99;-7,81;4,3;26,41;4,3;26,41;0;0;
33487;-8,41;11,49;-8,41;11,49;4,55;25,84;4,55;25,84;0;0;
33501;-19,61;-21,18;-19,61;-21,18;4,57;23,05;4,57;23,05;0;0;
33517;-15,3;15,8;-15,3;15,8;3,81;15,11;3,81;15,11;0;0;
33535;-22,13;65,51;-22,13;65,51;3,14;19,02;3,14;19,02;0;0;
33551;-22,13;65,51;-22,13;65,51;2,83;24,95;2,83;24,95;0;0;
33566;-20,5;-9,67;-20,5;-9,67;3,05;27,27;3,05;27,27;0;0;
33582;-19,63;9,52;-19,63;9,52;3,27;29,22;3,27;29,22;0;0;
33598;-14,68;-21,3;-14,68;-21,3;3,08;28,09;3,08;28,09;0;0;
33616;-5,2;10,37;-5,2;10,37;3,36;23,86;3,36;23,86;0;0;
33633;-5,2;10,37;-5,2;10,37;3,57;17,69;3,57;17,69;0;0;
33647;-8,49;11,31;-8,49;11,31;3,53;22,46;3,53;22,46;0;0;
33664;-5,73;-60,61;-5,73;-60,61;3,27;24,56;3,27;24,56;0;0;
33680;-15,14;-49,94;-15,14;-49,94;3,44;27,27;3,44;27,27;0;0;
33695;-11,03;1,61;-11,03;1,61;3,75;27,21;3,75;27,21;0;0;
33711;-11,03;1,61;-11,03;1,61;3,79;27,49;3,79;27,49;0;0;
33728;-14,61;17,08;-14,61;17,08;3,57;25,75;3,57;25,75;0;0;
33744;-19,76;-1,96;-19,76;-1,96;3,34;23,39;3,34;23,39;0;0;
33759;-7,17;53,73;-7,17;53,73;3,4;20,61;3,4;20,61;0;0;
33774;-7,17;53,73;-7,17;53,73;3,06;16,74;3,06;16,74;0;0;
33789;-9,25;36,13;-9,25;36,13;3,5;19,04;3,5;19,04;0;0;
33807;-9,87;13,66;-9,87;13,66;4,17;22,36;4,17;22,36;0;0;
33823;-16,46;-12,78;-16,46;-12,78;4,55;22,21;4,55;22,21;0;0;
33839;-15,58;-40,55;-15,58;-40,55;4,59;26,06;4,59;26,06;0;0;
33854;-15,58;-40,55;-15,58;-40,55;4,4;31,09;4,4;31,09;0;0;
33871;-36,57;3,11;-36,57;3,11;5,42;30,52;5,42;30,52;0;0;
33887;-19,71;-7,75;-19,71;-7,75;6,6;25,84;6,6;25,84;1;0;
33902;-21,04;-7,05;-21,04;-7,05;12,72;24,14;12,72;24,14;1;0;
33917;-0,96;-1,88;-0,96;-1,88;15;21,35;15;21,35;1;0;
33933;-0,96;-1,88;-0,96;-1,88;17,31;13,67;17,31;13,67;1;0;
33949;10,01;-12,72;10,01;-12,72;28,64;6,63;28,64;6,63;1;0;
33967;-165,83;-12,81;-165,83;-12,81;46,38;5,3;46,38;5,3;1;0;
33984;-48,11;11,52;-48,11;11,52;60,35;6,2;60,35;6,2;1;0;
34002;138,62;-0,71;138,62;-0,71;58,81;5,56;58,81;5,56;1;0;
34017;138,62;-0,71;138,62;-0,71;60,69;5,73;60,69;5,73;1;0;
34032;138,62;-0,71;138,62;-0,71;58,91;5,73;58,91;5,73;1;0;
34047;7,14;9,36;7,14;9,36;59,97;5,6;59,97;5,6;1;0;
34064;-9,56;-2,26;-9,56;-2,26;41,4;4,85;41,4;4,85;1;0;
34079;-110,3;-7,55;-110,3;-7,55;37,22;4,09;37,22;4,09;1;0;
34094;-110,3;-7,55;-110,3;-7,55;37,33;4,28;37,33;4,28;1;0;
34109;192,45;-8,81;192,45;-8,81;45,48;6,42;45,48;6,42;1;0;
34124;48,69;-4,51;48,69;-4,51;58,19;6,95;58,19;6,95;1;0;
34140;8,2;-6,29;8,2;-6,29;46,75;6,52;46,75;6,52;1;0;
34155;3,33;21,15;3,33;21,15;50,76;7,87;50,76;7,87;1;0;
34170;3,33;21,15;3,33;21,15;52,35;8,92;52,35;8,92;1;0;
34186;-15,09;4,96;-15,09;4,96;46,25;8,52;46,25;8,52;1;0;
34203;-7,63;-6,75;-7,63;-6,75;24,89;8,13;24,89;8,13;1;0;
34219;-26,13;-2,22;-26,13;-2,22;38,16;8,25;38,16;8,25;1;0;
34239;-14,38;-1,52;-14,38;-1,52;35,83;7,96;35,83;7,96;0;0;
34256;-13,41;28,9;-13,41;28,9;30;17,47;30;17,47;0;0;
34272;-13,41;28,9;-13,41;28,9;26,65;27,15;26,65;27,15;0;0;
34289;-9,42;-27,41;-9,42;-27,41;24,85;26,46;24,85;26,46;0;0;
34306;-23,75;-38,97;-23,75;-38,97;17,56;31,92;17,56;31,92;0;0;
34324;-5,13;-11,99;-5,13;-11,99;4,34;33,88;4,34;33,88;0;0;
34341;-14,81;-51,54;-14,81;-51,54;3,8;37,46;3,8;37,46;0;0;
34358;-16,78;99,12;-16,78;99,12;3,87;35,9;3,87;35,9;0;0;
34376;-17,68;-54,28;-17,68;-54,28;3,58;39,6;3,58;39,6;0;0;
34393;-17,68;-54,28;-17,68;-54,28;3,03;46,8;3,03;46,8;0;0;
34410;-17,45;-2,64;-17,45;-2,64;3,03;42,79;3,03;42,79;0;0;
34426;-19,98;-8,99;-19,98;-8,99;2,64;37,08;2,64;37,08;0;0;
34442;-9,47;50,61;-9,47;50,61;2,5;28,72;2,5;28,72;0;0;
34460;-2,51;20,13;-2,51;20,13;3,17;21,92;3,17;21,92;0;0;
34478;-2,51;20,13;-2,51;20,13;3,84;16,02;3,84;16,02;0;0;
34494;-2,51;20,13;-2,51;20,13;4,22;16,59;4,22;16,59;0;0;
34512;-7;27,16;-7;27,16;4,3;16,93;4,3;16,93;0;0;
34527;-16,1;-25,03;-16,1;-25,03;4,41;25,78;4,41;25,78;0;0;
34544;-18,14;-27,59;-18,14;-27,59;4,25;34,51;4,25;34,51;1;0;
34559;-18,14;-27,59;-18,14;-27,59;3,93;41,22;3,93;41,22;1;0;
34575;-18,14;-27,59;-18,14;-27,59;3,61;47,93;3,61;47,93;1;0;
34590;-13,36;15,14;-13,36;15,14;3,72;51,58;3,72;51,58;1;0;
34606;4,55;-7,59;4,55;-7,59;3,87;48,4;3,87;48,4;1;0;
34622;-12,1;-14,48;-12,1;-14,48;5,95;41,6;5,95;41,6;1;0;
34639;-106,69;65,13;-106,69;65,13;20,58;35,51;20,58;35,51;1;0;
34653;-106,69;65,13;-106,69;65,13;35,22;29,43;35,22;29,43;1;0;
34670;-105,14;3,19;-105,14;3,19;65,55;19,19;65,55;19,19;1;0;
34686;-79,28;-5,04;-79,28;-5,04;85,82;16,35;85,82;16,35;1;0;
34703;-29,9;-11,08;-29,9;-11,08;86,98;15,51;86,98;15,51;0;0;
34722;-91,6;6,61;-91,6;6,61;85;12,86;85;12,86;0;0;
34740;-86,06;-15,01;-86,06;-15,01;84,64;8,48;84,64;8,48;0;0;
34756;-7,14;-2,41;-7,14;-2,41;60,61;6,21;60,61;6,21;0;0;
34771;-7,14;-2,41;-7,14;-2,41;42,47;5,99;42,47;5,99;0;0;
34788;-82,82;-4,31;-82,82;-4,31;36,33;5,27;36,33;5,27;0;0;
34804;-21,06;1,66;-21,06;1,66;37,88;5,34;37,88;5,34;0;0;
34819;-24,95;-5,03;-24,95;-5,03;32,01;5,49;32,01;5,49;0;0;
34834;-24,95;-5,03;-24,95;-5,03;19,81;4,87;19,81;4,87;0;0;
34852;-17,14;-4,26;-17,14;-4,26;14,77;4,37;14,77;4,37;0;0;
34871;-19,48;-7,67;-19,48;-7,67;13,44;4,03;13,44;4,03;0;0;
34887;15,99;1,08;15,99;1,08;8,87;4,19;8,87;4,19;0;0;
34905;-16,43;66,6;-16,43;66,6;7,81;6,39;7,81;6,39;0;0;
34920;-29,3;34,61;-29,3;34,61;7,5;13,8;7,5;13,8;0;0;
34937;-33,23;13,8;-33,23;13,8;7,41;19,32;7,41;19,32;0;0;
34952;-33,23;13,8;-33,23;13,8;7,04;24,93;7,04;24,93;0;0;
34966;-19,07;-35,1;-19,07;-35,1;6,58;26,88;6,58;26,88;0;0;
34981;-24,22;-1,24;-24,22;-1,24;5,21;27,31;5,21;27,31;0;0;
34998;-29,24;-6,19;-29,24;-6,19;4,89;23,07;4,89;23,07;0;0;
35014;-29,24;-6,19;-29,24;-6,19;4,58;20,02;4,58;20,02;0;0;
35030;-17,45;21,71;-17,45;21,71;4,75;19,63;4,75;19,63;0;0;
35046;-17,69;-7,8;-17,69;-7,8;4,76;20,9;4,76;20,9;0;0;
35061;-14,67;10,4;-14,67;10,4;5,11;21,63;5,11;21,63;0;0;
35076;-40,97;-147,5;-40,97;-147,5;5,56;27,02;5,56;27,02;0;0;
35091;-40,97;-147,5;-40,97;-147,5;6,33;31,48;6,33;31,48;0;0;
35107;-13,65;4,86;-13,65;4,86;6,27;35,17;6,27;35,17;0;0;
35123;-21,48;-62,08;-21,48;-62,08;5,66;35,63;5,66;35,63;0;0;
35138;-13,69;233,29;-13,69;233,29;5,48;48,56;5,48;48,56;0;0;
35154;-13,69;233,29;-13,69;233,29;5,63;61,06;5,63;61,06;0;0;
35169;-33,58;8,47;-33,58;8,47;5,06;61,77;5,06;61,77;0;0;
35185;-15;-25,93;-15;-25,93;5,11;51,8;5,11;51,8;0;0;
35202;-14,69;41,13;-14,69;41,13;5,45;48,69;5,45;48,69;0;0;
35219;-14,52;-10,11;-14,52;-10,11;5,11;44,58;5,11;44,58;0;0;
35233;-14,52;-10,11;-14,52;-10,11;4,66;33,78;4,66;33,78;0;0;
35248;-22;-2,99;-22;-2,99;4,97;20,06;4,97;20,06;0;0;
35265;-16,57;25,7;-16,57;25,7;4,26;18,83;4,26;18,83;0;0;
35280;-16,39;25,85;-16,39;25,85;4,17;20,14;4,17;20,14;0;0;
35296;-6,59;5,79;-6,59;5,79;3,95;18,6;3,95;18,6;0;0;
35311;-6,59;5,79;-6,59;5,79;4,16;17,15;4,16;17,15;0;0;
35327;-14,17;25,14;-14,17;25,14;4,11;18,14;4,11;18,14;0;0;
35343;-19,16;13,24;-19,16;13,24;3,46;20,77;3,46;20,77;0;0;
35358;-18,02;-67,31;-18,02;-67,31;3,33;22,49;3,33;22,49;0;0;
35371;-18,02;-67,31;-18,02;-67,31;3,58;24,57;3,58;24,57;0;0;
35387;-29,9;-50,07;-29,9;-50,07;4,36;24,22;4,36;24,22;0;0;
35404;-17,73;4,85;-17,73;4,85;4,74;26,75;4,74;26,75;0;0;
35419;-12,58;4,13;-12,58;4,13;5,16;23,55;5,16;23,55;0;0;
35434;-12,58;4,13;-12,58;4,13;5,4;23,51;5,4;23,51;0;0;
35449;-20,65;-1,04;-20,65;-1,04;5,51;21,99;5,51;21,99;1;0;
35467;-38,58;0,18;-38,58;0,18;6,3;18,72;6,3;18,72;1;0;
35484;-22,31;3,71;-22,31;3,71;9,08;13,88;9,08;13,88;1;0;
35499;64,49;-7,71;64,49;-7,71;25,86;11,88;25,86;11,88;1;0;
35515;64,49;-7,71;64,49;-7,71;42,46;11;42,46;11;1;0;
35531;20,14;18,73;20,14;18,73;55,07;11,71;55,07;11,71;1;0;
35546;60,63;-9,83;60,63;-9,83;68,1;11,66;68,1;11,66;1;0;
35563;-36,61;-5,51;-36,61;-5,51;74,37;11,65;74,37;11,65;1;0;
35581;133,34;-17,6;133,34;-17,6;85,07;10,46;85,07;10,46;0;0;
35601;-91,82;-2,8;-91,82;-2,8;86,11;9,89;86,11;9,89;0;0;
35623;3,16;10,03;3,16;10,03;75,23;11,11;75,23;11,11;0;0;
35639;-18,15;-3,99;-18,15;-3,99;60,48;8,68;60,48;8,68;0;0;
35658;-25,37;-9,27;-25,37;-9,27;50,82;8,09;50,82;8,09;0;0;
35673;-25,37;-9,27;-25,37;-9,27;35,04;7,73;35,04;7,73;0;0;
