Time;EMG1;EMG2;EMG3;EMG4;EMG1_F;EMG2_F;EMG3_F;EMG4_F;Note_R;Note_V;;Level 5;Joueur;Score;Notes hit;% Reussite R;Offset EMG1;Onset EMG1;% Reussite V;Offset EMG2;Onset EMG2
3;0;0;0;0;0;0;3,95;31,39;0;0;;;1;4100;41;50;173,6988;96,94826;9,722222;401,7851;51,86029
8;0;0;0;0;0;0;3,7;30,39;0;0;;;2;0;0;0;50;200;0;50;200
13;0;0;0;0;0;0;3,45;29,39;0;0;
17;0;0;0;0;0;0;3,15;28,64;0;0;
20;0;0;0;0;0;0;2,85;27,89;0;0;
24;0;0;0;0;0;0;2,65;27,49;0;0;
29;0;0;0;0;0;0;2,45;27,09;0;0;
32;0;0;0;0;0;0;2,25;26,69;0;0;
36;0;0;0;0;0;0;2,15;26,64;0;0;
39;0;0;0;0;0;0;2,05;26,59;0;0;
44;0;0;0;0;0;0;1,95;26,54;0;0;
47;0;0;0;0;0;0;1,95;27,04;0;0;
52;0;0;0;0;0;0;1,95;27,54;0;0;
56;0;0;0;0;0;0;1,95;28,04;0;0;
60;0;0;0;0;0;0;2,1;28,99;0;0;
63;0;0;0;0;0;0;2,25;29,94;0;0;
67;0;0;0;0;0;0;2,4;30,89;0;0;
71;0;0;0;0;0;0;2,55;31,84;0;0;
76;0;0;0;0;0;0;2,75;32,89;0;0;
80;0;0;0;0;0;0;3,1;34,24;0;0;
83;0;0;0;0;0;0;3,45;35,59;0;0;
86;0;0;0;0;0;0;3,8;36,94;0;0;
90;0;0;0;0;0;0;4,15;38,29;0;0;
94;0;0;0;0;0;0;4,55;39,39;0;0;
99;0;0;0;0;0;0;5,05;40,29;0;0;
103;0;0;0;0;0;0;5,55;41,19;0;0;
106;0;0;0;0;0;0;6,05;42,09;0;0;
110;0;0;0;0;0;0;6,55;42,99;0;0;
114;0;0;0;0;0;0;6,95;43,54;0;0;
119;0;0;0;0;0;0;7,35;44,09;0;0;
122;0;0;0;0;0;0;7,65;44,09;0;0;
125;0;0;0;0;0;0;7,95;44,09;0;0;
130;0;0;0;0;0;0;8,25;44,09;0;0;
135;0;0;0;0;0;0;8,55;44,09;0;0;
140;0;0;0;0;0;0;8,7;43,64;0;0;
144;0;0;0;0;0;0;8,7;42,69;0;0;
147;0;0;0;0;0;0;8,7;41,74;0;0;
151;0;0;0;0;0;0;8,7;40,79;0;0;
155;0;0;0;0;0;0;8,7;39,84;0;0;
159;0;0;0;0;0;0;8,55;38,59;0;0;
163;0;0;0;0;0;0;8,3;37,34;0;0;
166;0;0;0;0;0;0;8,05;36,09;0;0;
170;0;0;0;0;0;0;7,8;34,84;0;0;
175;0;0;0;0;0;0;7,55;33,59;0;0;
179;0;0;0;0;0;0;7,2;32,54;0;0;
184;0;0;0;0;0;0;6,85;31,69;0;0;
187;0;0;0;0;0;0;6,5;30,84;0;0;
192;0;0;0;0;0;0;6,15;29,99;0;0;
196;0;0;0;0;0;0;5,8;29,14;0;0;
201;0;0;0;0;0;0;5,45;28,29;0;0;
205;0;0;0;0;0;0;5,2;27,99;0;0;
209;0;0;0;0;0;0;4,95;28,04;0;0;
212;0;0;0;0;0;0;4,7;28,09;0;0;
217;0;0;0;0;0;0;4,45;28,14;0;0;
223;0;0;0;0;0;0;4,2;28,19;0;0;
228;0;0;0;0;0;0;4,2;29,09;0;0;
231;0;0;0;0;0;0;4,2;29,99;0;0;
236;0;0;0;0;0;0;4,2;30,89;0;0;
242;0;0;0;0;0;0;4,2;31,79;0;0;
245;0;0;0;0;0;0;4,2;32,69;0;0;
249;0;0;0;0;0;0;4,45;33,79;0;0;
252;0;0;0;0;0;0;4,7;34,89;0;0;
256;0;0;0;0;0;0;4,95;35,99;0;0;
259;0;0;0;0;0;0;5,2;37,09;0;0;
265;0;0;0;0;0;0;5,45;38,19;0;0;
270;0;0;0;0;0;0;5,7;39,09;0;0;
274;0;0;0;0;0;0;5,95;39,64;0;0;
276;0;0;0;0;0;0;6,2;40,19;0;0;
281;0;0;0;0;0;0;6,45;40,74;0;0;
286;0;0;0;0;0;0;6,7;41,29;0;0;
290;0;0;0;0;0;0;6,95;41,84;0;0;
293;0;0;0;0;0;0;7,1;41,44;0;0;
297;0;0;0;0;0;0;7,25;41,04;0;0;
301;0;0;0;0;0;0;7,4;40,64;0;0;
307;0;0;0;0;0;0;7,55;40,24;0;0;
312;0;0;0;0;0;0;7,6;39,49;0;0;
315;0;0;0;0;0;0;7,45;38,49;0;0;
318;0;0;0;0;0;0;7,3;37,49;0;0;
322;0;0;0;0;0;0;7,15;36,49;0;0;
327;0;0;0;0;0;0;7;35,49;0;0;
332;0;0;0;0;0;0;6,7;34,29;0;0;
336;0;0;0;0;0;0;6,3;33,14;0;0;
339;0;0;0;0;0;0;5,9;31,99;0;0;
343;0;0;0;0;0;0;5,5;30,84;0;0;
347;0;0;0;0;0;0;5,1;29,69;0;0;
351;0;0;0;0;0;0;4,7;28,54;0;0;
355;0;0;0;0;0;0;4,4;28,04;0;0;
358;0;0;0;0;0;0;4,1;27,54;0;0;
362;0;0;0;0;0;0;3,8;27,04;0;0;
366;0;0;0;0;0;0;3,5;26,54;0;0;
370;0;0;0;0;0;0;3,2;26,04;0;0;
374;0;0;0;0;0;0;3;26,14;0;0;
377;0;0;0;0;0;0;2,9;26,64;0;0;
381;0;0;0;0;0;0;2,8;27,14;0;0;
389;0;0;0;0;0;0;2,7;27,64;0;0;
395;0;0;0;0;0;0;2,6;28,14;0;0;
398;0;0;0;0;0;0;2,85;29,24;0;0;
401;0;0;0;0;0;0;3,1;30,34;0;0;
406;0;0;0;0;0;0;3,35;31,44;0;0;
409;0;0;0;0;0;0;3,6;32,54;0;0;
413;0;0;0;0;0;0;3,85;33,64;0;0;
418;0;0;0;0;0;0;4,2;34,69;0;0;
422;0;0;0;0;0;0;4,65;35,79;0;0;
425;0;0;0;0;0;0;5,1;36,89;0;0;
429;0;0;0;0;0;0;5,55;37,99;0;0;
434;0;0;0;0;0;0;6;39,09;0;0;
439;0;0;0;0;0;0;6,35;39,89;0;0;
443;0;0;0;0;0;0;6,7;40,24;0;0;
446;0;0;0;0;0;0;7,05;40,59;0;0;
450;0;0;0;0;0;0;7,4;40,94;0;0;
454;0;0;0;0;0;0;7,75;41,29;0;0;
459;0;0;0;0;0;0;8,1;41,64;0;0;
463;0;0;0;0;0;0;8,2;41,04;0;0;
466;0;0;0;0;0;0;8,3;40,44;0;0;
471;0;0;0;0;0;0;8,4;39,84;0;0;
475;0;0;0;0;0;0;8,5;39,24;0;0;
479;0;0;0;0;0;0;8,45;38,29;0;0;
483;0;0;0;0;0;0;8,25;37,14;0;0;
486;0;0;0;0;0;0;8,05;35,99;0;0;
491;0;0;0;0;0;0;7,85;34,84;0;0;
496;0;0;0;0;0;0;7,65;33,69;0;0;
500;0;0;0;0;0;0;7,45;32,54;0;0;
504;0;0;0;0;0;0;7,1;31,54;0;0;
507;0;0;0;0;0;0;6,75;30,54;0;0;
512;0;0;0;0;0;0;6,4;29,54;0;0;
517;0;0;0;0;0;0;6,05;28,54;0;0;
522;0;0;0;0;0;0;5,7;27,54;0;0;
525;0;0;0;0;0;0;5,3;27,34;0;0;
528;0;0;0;0;0;0;4,9;27,14;0;0;
532;0;0;0;0;0;0;4,5;26,94;0;0;
536;0;0;0;0;0;0;4,1;26,74;0;0;
540;0;0;0;0;0;0;3,7;26,54;0;0;
546;0;0;0;0;0;0;3,45;26,89;0;0;
549;0;0;0;0;0;0;3,35;27,59;0;0;
552;0;0;0;0;0;0;3,25;28,29;0;0;
556;0;0;0;0;0;0;3,15;28,99;0;0;
561;0;0;0;0;0;0;3,05;29,69;0;0;
566;0;0;0;0;0;0;3,1;30,59;0;0;
570;0;0;0;0;0;0;3,3;31,84;0;0;
573;0;0;0;0;0;0;3,5;33,09;0;0;
577;0;0;0;0;0;0;3,7;34,34;0;0;
582;0;0;0;0;0;0;3,9;35,59;0;0;
587;0;0;0;0;0;0;4,15;36,64;0;0;
591;0;0;0;0;0;0;4,5;37,54;0;0;
594;0;0;0;0;0;0;4,85;38,44;0;0;
598;0;0;0;0;0;0;5,2;39,34;0;0;
603;0;0;0;0;0;0;5,55;40,24;0;0;
609;0;0;0;0;0;0;5,95;40,79;0;0;
612;0;0;0;0;0;0;6,35;40,74;0;0;
615;0;0;0;0;0;0;6,75;40,69;0;0;
620;0;0;0;0;0;0;7,15;40,64;0;0;
625;0;0;0;0;0;0;7,55;40,59;0;0;
629;0;0;0;0;0;0;7,95;40,54;0;0;
633;0;0;0;0;0;0;8,05;39,64;0;0;
636;0;0;0;0;0;0;8,15;38,74;0;0;
639;0;0;0;0;0;0;8,25;37,84;0;0;
643;0;0;0;0;0;0;8,35;36,94;0;0;
648;0;0;0;0;0;0;8,45;36,04;0;0;
653;0;0;0;0;0;0;8,3;34,69;0;0;
656;0;0;0;0;0;0;8,15;33,34;0;0;
661;0;0;0;0;0;0;8;31,99;0;0;
666;0;0;0;0;0;0;7,85;30,64;0;0;
670;0;0;0;0;0;0;7,7;29,29;0;0;
674;0;0;0;0;0;0;7,45;28,39;0;0;
677;0;0;0;0;0;0;7,2;27,49;0;0;
682;0;0;0;0;0;0;6,95;26,59;0;0;
686;0;0;0;0;0;0;6,7;25,69;0;0;
691;0;0;0;0;0;0;6,45;24,79;0;0;
695;0;0;0;0;0;0;6,2;24,79;0;0;
698;0;0;0;0;0;0;5,95;24,79;0;0;
702;0;0;0;0;0;0;5,7;24,79;0;0;
706;0;0;0;0;0;0;5,45;24,79;0;0;
711;0;0;0;0;0;0;5,2;24,79;0;0;
716;0;0;0;0;0;0;5,1;25,29;0;0;
720;0;0;0;0;0;0;5,1;26,24;0;0;
723;0;0;0;0;0;0;5,1;27,19;0;0;
727;0;0;0;0;0;0;5,1;28,14;0;0;
732;0;0;0;0;0;0;5,1;29,09;0;0;
738;0;0;0;0;0;0;5,2;30,14;0;0;
741;0;0;0;0;0;0;5,35;31,39;0;0;
744;0;0;0;0;0;0;5,5;32,64;0;0;
748;0;0;0;0;0;0;5,65;33,89;0;0;
753;0;0;0;0;0;0;5,8;35,14;0;0;
758;0;0;0;0;0;0;5,95;36,09;0;0;
762;0;0;0;0;0;0;6,1;36,74;0;0;
765;0;0;0;0;0;0;6,25;37,39;0;0;
769;0;0;0;0;0;0;6,4;38,04;0;0;
774;0;0;0;0;0;0;6,55;38,69;0;0;
778;0;0;0;0;0;0;6,7;39,04;0;0;
781;0;0;0;0;0;0;6,85;38,89;0;0;
785;0;0;0;0;0;0;7;38,74;0;0;
789;0;0;0;0;0;0;7,15;38,59;0;0;
794;0;0;0;0;0;0;7,3;38,44;0;0;
799;0;0;0;0;0;0;7,45;38,29;0;0;
803;0;0;0;0;0;0;7,35;37,29;0;0;
806;0;0;0;0;0;0;7,25;36,29;0;0;
810;0;0;0;0;0;0;7,15;35,29;0;0;
815;0;0;0;0;0;0;7,05;34,29;0;0;
820;0;0;0;0;0;0;6,95;33,29;0;0;
824;0;0;0;0;0;0;6,75;32,14;0;0;
827;0;0;0;0;0;0;6,55;30,99;0;0;
831;0;0;0;0;0;0;6,35;29,84;0;0;
836;0;0;0;0;0;0;6,15;28,69;0;0;
842;0;0;0;0;0;0;5,95;27,54;0;0;
845;0;0;0;0;0;0;5,75;27,04;0;0;
848;0;0;0;0;0;0;5,55;26,54;0;0;
852;0;0;0;0;0;0;5,35;26,04;0;0;
856;0;0;0;0;0;0;5,15;25,54;0;0;
861;0;0;0;0;0;0;4,95;25,04;0;0;
866;0;0;0;0;0;0;4,85;25,39;0;0;
870;0;0;0;0;0;0;4,75;25,74;0;0;
874;0;0;0;0;0;0;4,65;26,09;0;0;
878;0;0;0;0;0;0;4,55;26,44;0;0;
883;0;0;0;0;0;0;4,45;26,79;0;0;
887;0;0;0;0;0;0;4,65;27,84;0;0;
890;0;0;0;0;0;0;4,85;28,89;0;0;
895;0;0;0;0;0;0;5,05;29,94;0;0;
900;0;0;0;0;0;0;5,25;30,99;0;0;
904;0;0;0;0;0;0;5,45;32,04;0;0;
908;0;0;0;0;0;0;5,8;33,19;0;0;
911;0;0;0;0;0;0;6,15;34,34;0;0;
916;0;0;0;0;0;0;6,5;35,49;0;0;
920;0;0;0;0;0;0;6,85;36,64;0;0;
925;0;0;0;0;0;0;7,2;37,79;0;0;
930;0;0;0;0;0;0;7,5;38,14;0;0;
933;0;0;0;0;0;0;7,8;38,49;0;0;
937;0;0;0;0;0;0;8,1;38,84;0;0;
942;0;0;0;0;0;0;8,4;39,19;0;0;
947;0;0;0;0;0;0;8,7;39,54;0;0;
951;0;0;0;0;0;0;8,75;38,94;0;0;
954;0;0;0;0;0;0;8,8;38,34;0;0;
959;0;0;0;0;0;0;8,85;37,74;0;0;
964;0;0;0;0;0;0;8,9;37,14;0;0;
968;0;0;0;0;0;0;8,95;36,54;0;0;
972;0;0;0;0;0;0;8,8;35,49;0;0;
975;0;0;0;0;0;0;8,65;34,44;0;0;
980;0;0;0;0;0;0;8,5;33,39;0;0;
985;0;0;0;0;0;0;8,35;32,34;0;0;
990;0;0;0;0;0;0;8,2;31,29;0;0;
993;0;0;0;0;0;0;7,9;30,19;0;0;
997;0;0;0;0;0;0;7,6;29,09;0;0;
1001;0;0;0;0;0;0;7,3;27,99;0;0;
1006;0;0;0;0;0;0;7;26,89;0;0;
1010;0;0;0;0;0;0;6,7;25,79;0;0;
1015;0;0;0;0;0;0;6,45;25,14;0;0;
1018;0;0;0;0;0;0;6,25;24,84;0;0;
1022;0;0;0;0;0;0;6,05;24,54;0;0;
1027;0;0;0;0;0;0;5,85;24,24;0;0;
1031;0;0;0;0;0;0;5,65;23,94;0;0;
1036;0;0;0;0;0;0;5,6;24,24;0;0;
1040;0;0;0;0;0;0;5,6;24,89;0;0;
1043;0;0;0;0;0;0;5,6;25,54;0;0;
1047;0;0;0;0;0;0;5,6;26,19;0;0;
1052;0;0;0;0;0;0;5,6;26,84;0;0;
1057;0;0;0;0;0;0;5,65;27,64;0;0;
1061;0;0;0;0;0;0;5,75;28,79;0;0;
1064;0;0;0;0;0;0;5,85;29,94;0;0;
1069;0;0;0;0;0;0;5,95;31,09;0;0;
1074;0;0;0;0;0;0;6,05;32,24;0;0;
1080;0;0;0;0;0;0;6,2;33,29;0;0;
1083;0;0;0;0;0;0;6,45;34,29;0;0;
1086;0;0;0;0;0;0;6,7;35,29;0;0;
1091;0;0;0;0;0;0;6,95;36,29;0;0;
1096;0;0;0;0;0;0;7,2;37,29;0;0;
1101;0;0;0;0;0;0;7,4;37,84;0;0;
1104;0;0;0;0;0;0;7,55;38,04;0;0;
1109;0;0;0;0;0;0;7,7;38,24;0;0;
1114;0;0;0;0;0;0;7,85;38,44;0;0;
1119;0;0;0;0;0;0;8;38,64;0;0;
1123;0;0;0;0;0;0;8,05;38,24;0;0;
1126;0;0;0;0;0;0;8,05;37,49;0;0;
1129;0;0;0;0;0;0;8,05;36,74;0;0;
1135;0;0;0;0;0;0;8,05;35,99;0;0;
1139;0;0;0;0;0;0;8,05;35,24;0;0;
1143;0;0;0;0;0;0;7,95;34,39;0;0;
1146;0;0;0;0;0;0;7,8;33,19;0;0;
1150;0;0;0;0;0;0;7,65;31,99;0;0;
1155;0;0;0;0;0;0;7,5;30,79;0;0;
1160;0;0;0;0;0;0;7,35;29,59;0;0;
1164;0;0;0;0;0;0;7,2;28,59;0;0;
1167;0;0;0;0;0;0;6,95;27,64;0;0;
1171;0;0;0;0;0;0;6,7;26,69;0;0;
1176;0;0;0;0;0;0;6,45;25,74;0;0;
1181;0;0;0;0;0;0;6,2;24,79;0;0;
1185;0;0;0;0;0;0;6;24,64;0;0;
1188;0;0;0;0;0;0;5,8;24,49;0;0;
1192;0;0;0;0;0;0;5,6;24,34;0;0;
1201;0;0;0;0;0;0;5,4;24,19;0;0;
1206;0;0;0;0;0;0;5,2;24,04;0;0;
1209;0;0;0;0;0;0;5,2;24,89;0;0;
1212;0;0;0;0;0;0;5,2;25,74;0;0;
1216;0;0;0;0;0;0;5,2;26,59;0;0;
1220;0;0;0;0;0;0;5,2;27,44;0;0;
1225;0;0;0;0;0;0;5,2;28,29;0;0;
1229;0;0;0;0;0;0;5,45;29,54;0;0;
1232;0;0;0;0;0;0;5,7;30,79;0;0;
1237;0;0;0;0;0;0;5,95;32,04;0;0;
1242;0;0;0;0;0;0;6,2;33,29;0;0;
1246;0;0;0;0;0;0;6,45;34,54;0;0;
1249;0;0;0;0;0;0;6,75;35,44;0;0;
1252;0;0;0;0;0;0;7,05;36,34;0;0;
1256;0;0;0;0;0;0;7,35;37,24;0;0;
1262;0;0;0;0;0;0;7,65;38,14;0;0;
1265;0;0;0;0;0;0;7,95;39,04;0;0;
1270;0;0;0;0;0;0;8,2;39,04;0;0;
1273;0;0;0;0;0;0;8,45;39,04;0;0;
1277;0;0;0;0;0;0;8,7;39,04;0;0;
1282;0;0;0;0;0;0;8,95;39,04;0;0;
1287;0;0;0;0;0;0;9,2;39,04;0;0;
1291;0;0;0;0;0;0;9,2;38,14;0;0;
1294;0;0;0;0;0;0;9,2;37,24;0;0;
1298;0;0;0;0;0;0;9,2;36,34;0;0;
1303;0;0;0;0;0;0;9,2;35,44;0;0;
1308;0;0;0;0;0;0;9,2;34,54;0;0;
1313;0;0;0;0;0;0;8,95;33,29;0;0;
1316;0;0;0;0;0;0;8,7;32,04;0;0;
1321;0;0;0;0;0;0;8,45;30,79;0;0;
1325;0;0;0;0;0;0;8,2;29,54;0;0;
1330;0;0;0;0;0;0;7,95;28,29;0;0;
1334;0;0;0;0;0;0;7,65;27,44;0;0;
1337;0;0;0;0;0;0;7,35;26,59;0;0;
1342;0;0;0;0;0;0;7,05;25,74;0;0;
1347;0;0;0;0;0;0;6,75;24,89;0;0;
1352;0;0;0;0;0;0;6,45;24,04;0;0;
1356;0;0;0;0;0;0;6,2;24,14;0;0;
1359;0;0;0;0;0;0;5,95;24,24;0;0;
1363;0;0;0;0;0;0;5,7;24,34;0;0;
1369;0;0;0;0;0;0;5,45;24,44;0;0;
1372;0;0;0;0;0;0;5,2;24,54;0;0;
1377;0;0;0;0;0;0;5,2;25,44;0;0;
1381;0;0;0;0;0;0;5,2;26,34;0;0;
1384;0;0;0;0;0;0;5,2;27,24;0;0;
1389;0;0;0;0;0;0;5,2;28,14;0;0;
1394;0;0;0;0;0;0;5,2;29,04;0;0;
1398;0;0;0;0;0;0;5,45;30,24;0;0;
1401;0;0;0;0;0;0;5,7;31,44;0;0;
1406;0;0;0;0;0;0;5,95;32,64;0;0;
1411;0;0;0;0;0;0;6,2;33,84;0;0;
1417;0;0;0;0;0;0;6,45;35,04;0;0;
1420;0;0;0;0;0;0;6,75;35,69;0;0;
1423;0;0;0;0;0;0;7,05;36,34;0;0;
1428;0;0;0;0;0;0;7,35;36,99;0;0;
1433;0;0;0;0;0;0;7,65;37,64;0;0;
1437;0;0;0;0;0;0;7,95;38,29;0;0;
1441;0;0;0;0;0;0;8,2;37,94;0;0;
1444;0;0;0;0;0;0;8,45;37,59;0;0;
1448;0;0;0;0;0;0;8,7;37,24;0;0;
1453;0;0;0;0;0;0;8,95;36,89;0;0;
1458;0;0;0;0;0;0;9,2;36,54;0;0;
1463;0;0;0;0;0;0;9,15;35,59;0;0;
1466;0;0;0;0;0;0;9,1;34,64;0;0;
1470;0;0;0;0;0;0;9,05;33,69;0;0;
1474;0;0;0;0;0;0;9;32,74;0;0;
1480;0;0;0;0;0;0;8,95;31,79;0;0;
1483;0;0;0;0;0;0;8,65;30,64;0;0;
1487;0;0;0;0;0;0;8,35;29,49;0;0;
1490;0;0;0;0;0;0;8,05;28,34;0;0;
1495;0;0;0;0;0;0;7,75;27,19;0;0;
1501;0;0;0;0;0;0;7,45;26,04;0;0;
1504;0;0;0;0;0;0;7,2;25,64;0;0;
1507;0;0;0;0;0;0;6,95;25,24;0;0;
1512;0;0;0;0;0;0;6,7;24,84;0;0;
1517;0;0;0;0;0;0;6,45;24,44;0;0;
1523;0;0;0;0;0;0;6,2;24,04;0;0;
1526;0;0;0;0;0;0;6,1;24,64;0;0;
1529;0;0;0;0;0;0;6;25,24;0;0;
1533;0;0;0;0;0;0;5,9;25,84;0;0;
1539;0;0;0;0;0;0;5,8;26,44;0;0;
1543;0;0;0;0;0;0;5,7;27,04;0;0;
1547;0;0;0;0;0;0;5,9;28,34;0;0;
1550;0;0;0;0;0;0;6,1;29,64;0;0;
1554;0;0;0;0;0;0;6,3;30,94;0;0;
1559;0;0;0;0;0;0;6,5;32,24;0;0;
1564;0;0;0;0;0;0;6,7;33,54;0;0;
1568;0;0;0;0;0;0;7,15;34,84;0;0;
1571;0;0;0;0;0;0;7,6;36,14;0;0;
1576;0;0;0;0;0;0;8,05;37,44;0;0;
1581;0;0;0;0;0;0;8,5;38,74;0;0;
1587;0;0;0;0;0;0;8,95;40,04;0;0;
1590;0;0;0;0;0;0;9,3;40,49;0;0;
1593;0;0;0;0;0;0;9,65;40,94;0;0;
1597;0;0;0;0;0;0;10;41,39;0;0;
1602;0;0;0;0;0;0;10,35;41,84;0;0;
1607;0;0;0;0;0;0;10,7;42,29;0;0;
1611;0;0;0;0;0;0;10,9;41,84;0;0;
1614;0;0;0;0;0;0;11,1;41,39;0;0;
1620;0;0;0;0;0;0;11,3;40,94;0;0;
1624;0;0;0;0;0;0;11,5;40,49;0;0;
1629;0;0;0;0;0;0;11,7;40,04;0;0;
1633;0;0;0;0;0;0;11,65;38,99;0;0;
1636;0;0;0;0;0;0;11,6;37,94;0;0;
1641;0;0;0;0;0;0;11,55;36,89;0;0;
1647;0;0;0;0;0;0;11,5;35,84;0;0;
1652;0;0;0;0;0;0;11,45;34,79;0;0;
1656;0;0;0;0;0;0;11,2;33,84;0;0;
1659;0;0;0;0;0;0;10,95;32,89;0;0;
1663;0;0;0;0;0;0;10,7;31,94;0;0;
1670;0;0;0;0;0;0;10,45;30,99;0;0;
1674;0;0;0;0;0;0;10,2;30,04;0;0;
1678;0;0;0;0;0;0;10;29,84;0;0;
1681;0;0;0;0;0;0;9,8;29,64;0;0;
1686;0;0;0;0;0;0;9,6;29,44;0;0;
1691;0;0;0;0;0;0;9,4;29,24;0;0;
1696;0;0;0;0;0;0;9,2;29,04;0;0;
1700;0;0;0;0;0;0;9,15;29,74;0;0;
1704;0;0;0;0;0;0;9,1;30,44;0;0;
1707;0;0;0;0;0;0;9,05;31,14;0;0;
1713;0;0;0;0;0;0;9;31,84;0;0;
1717;0;0;0;0;0;0;9,05;32,84;0;0;
1721;0;0;0;0;0;0;9,25;34,04;0;0;
1728;0;0;0;0;0;0;9,45;35,24;0;0;
1733;0;0;0;0;0;0;9,65;36,44;0;0;
1738;0;0;0;0;0;0;9,85;37,64;0;0;
1741;0;0;0;0;0;0;10,05;38,69;0;0;
1745;0;0;0;0;0;0;10,3;39,59;0;0;
1750;0;0;0;0;0;0;10,55;40,49;0;0;
1755;0;0;0;0;0;0;10,8;41,39;0;0;
1760;0;0;0;0;0;0;11,05;42,29;0;0;
1763;0;0;0;0;0;0;11,3;42,74;0;0;
1767;0;0;0;0;0;0;11,5;42,84;0;0;
1771;0;0;0;0;0;0;11,7;42,94;0;0;
1775;0;0;0;0;0;0;11,9;43,04;0;0;
1780;0;0;0;0;0;0;12,1;43,14;0;0;
1783;0;0;0;0;0;0;12,2;42,74;0;0;
1787;0;0;0;0;0;0;12,2;41,94;0;0;
1792;0;0;0;0;0;0;12,2;41,14;0;0;
1797;0;0;0;0;0;0;12,2;40,34;0;0;
1801;0;0;0;0;0;0;12,2;39,54;0;0;
1805;0;0;0;0;0;0;12;38,34;0;0;
1809;0;0;0;0;0;0;11,8;37,14;0;0;
1814;0;0;0;0;0;0;11,6;35,94;0;0;
1819;0;0;0;0;0;0;11,4;34,74;0;0;
1824;0;0;0;0;0;0;11,2;33,54;0;0;
1827;0;0;0;0;0;0;10,95;32,79;0;0;
1830;0;0;0;0;0;0;10,7;32,04;0;0;
1836;0;0;0;0;0;0;10,45;31,29;0;0;
1842;0;0;0;0;0;0;10,2;30,54;0;0;
1846;0;0;0;0;0;0;10;30,09;0;0;
1849;0;0;0;0;0;0;9,8;30,09;0;0;
1854;0;0;0;0;0;0;9,6;30,09;0;0;
1858;0;0;0;0;0;0;9,4;30,09;0;0;
1865;0;0;0;0;0;0;9,2;30,09;0;0;
1868;0;0;0;0;0;0;9,05;30,39;0;0;
1871;0;0;0;0;0;0;9;31,19;0;0;
1877;0;0;0;0;0;0;8,95;31,99;0;0;
1881;0;0;0;0;0;0;8,9;32,79;0;0;
1887;0;0;0;0;0;0;8,85;33,59;0;0;
1890;0;0;0;0;0;0;8,95;34,64;0;0;
1894;0;0;0;0;0;0;9,15;35,79;0;0;
1899;0;0;0;0;0;0;9,35;36,94;0;0;
1904;0;0;0;0;0;0;9,55;38,09;0;0;
1909;0;0;0;0;0;0;9,75;39,24;0;0;
1912;0;0;0;0;0;0;10;40,04;0;0;
1916;0;0;0;0;0;0;10,3;40,54;0;0;
1921;0;0;0;0;0;0;10,6;41,04;0;0;
1926;0;0;0;0;0;0;10,9;41,54;0;0;
1930;0;0;0;0;0;0;11,15;41,49;0;0;
1934;0;0;0;0;0;0;11,35;41,14;0;0;
1939;0;0;0;0;0;0;11,55;40,79;0;0;
1944;0;0;0;0;0;0;11,75;40,44;0;0;
1949;0;0;0;0;0;0;11,95;40,09;0;0;
1952;0;0;0;0;0;0;12;39,34;0;0;
1956;0;0;0;0;0;0;12;38,29;0;0;
1961;0;0;0;0;0;0;12;37,24;0;0;
1966;0;0;0;0;0;0;12;36,19;0;0;
1971;0;0;0;0;0;0;12;35,14;0;0;
1974;0;0;0;0;0;0;11,95;34,14;0;0;
1978;0;0;0;0;0;0;11,75;32,89;0;0;
1983;0;0;0;0;0;0;11,55;31,64;0;0;
1988;0;0;0;0;0;0;11,35;30,39;0;0;
1993;0;0;0;0;0;0;11,15;29,14;0;0;
1996;0;0;0;0;0;0;11;28,14;0;0;
2000;0;0;0;0;0;0;10,8;27,49;0;0;
2005;0;0;0;0;0;0;10,6;26,84;0;0;
2010;0;0;0;0;0;0;10,4;26,19;0;0;
2015;0;0;0;0;0;0;10,2;25,54;0;0;
2018;0;0;0;0;0;0;10,1;25,84;0;0;
2021;0;0;0;0;0;0;10;26,14;0;0;
2030;0;0;0;0;0;0;9,9;26,44;0;0;
2036;0;0;0;0;0;0;9,8;26,74;0;0;
2039;0;0;0;0;0;0;9,7;27,39;0;0;
2043;0;0;0;0;0;0;9,75;28,44;0;0;
2047;0;0;0;0;0;0;9,8;29,49;0;0;
2052;0;0;0;0;0;0;9,85;30,54;0;0;
2057;0;0;0;0;0;0;9,9;31,59;0;0;
2060;0;0;0;0;0;0;10,05;32,74;0;0;
2064;0;0;0;0;0;0;10,25;33,84;0;0;
2067;0;0;0;0;0;0;10,45;34,94;0;0;
2071;0;0;0;0;0;0;10,65;36,04;0;0;
2076;0;0;0;0;0;0;10,85;37,14;0;0;
2080;0;0;0;0;0;0;11;37,84;0;0;
2083;0;0;0;0;0;0;11,1;38,29;0;0;
2086;0;0;0;0;0;0;11,2;38,74;0;0;
2091;0;0;0;0;0;0;11,3;39,19;0;0;
2096;0;0;0;0;0;0;11,4;39,64;0;0;
2100;0;0;0;0;0;0;11,35;39,39;0;0;
2103;0;0;0;0;0;0;11,25;38,74;0;0;
2107;0;0;0;0;0;0;11,15;38,09;0;0;
2112;0;0;0;0;0;0;11,05;37,44;0;0;
2117;0;0;0;0;0;0;10,95;36,79;0;0;
2122;0;0;0;0;0;0;10,7;35,44;0;0;
2125;0;0;0;0;0;0;10,45;34,09;0;0;
2130;0;0;0;0;0;0;10,2;32,74;0;0;
2133;0;0;0;0;0;0;9,95;31,39;0;0;
2138;0;0;0;0;0;0;9,7;30,04;0;0;
2143;0;0;0;0;0;0;9,25;28,64;0;0;
2146;0;0;0;0;0;0;8,8;27,24;0;0;
2150;0;0;0;0;0;0;8,35;25,84;0;0;
2155;0;0;0;0;0;0;7,9;24,44;0;0;
2160;0;0;0;0;0;0;7,45;23,04;0;0;
2164;0;0;0;0;0;0;7,1;22,34;0;0;
2167;0;0;0;0;0;0;6,75;21,64;0;0;
2171;0;0;0;0;0;0;6,4;20,94;0;0;
2175;0;0;0;0;0;0;6,05;20,24;0;0;
2180;0;0;0;0;0;0;5,7;19,54;0;0;
2186;0;0;0;0;0;0;5,5;19,84;0;0;
2189;0;0;0;0;0;0;5,3;20,14;0;0;
2193;0;0;0;0;0;0;5,1;20,44;0;0;
2198;0;0;0;0;0;0;4,9;20,74;0;0;
2203;0;0;0;0;0;0;4,7;21,04;0;0;
2207;0;0;0;0;0;0;4,75;21,99;0;0;
2210;0;0;0;0;0;0;4,8;22,94;0;0;
2214;0;0;0;0;0;0;4,85;23,89;0;0;
2219;0;0;0;0;0;0;4,9;24,84;0;0;
2225;0;0;0;0;0;0;4,95;25,79;0;0;
2228;0;0;0;0;0;0;5,2;26,64;0;0;
2231;0;0;0;0;0;0;5,45;27,49;0;0;
2235;0;0;0;0;0;0;5,7;28,34;0;0;
2240;0;0;0;0;0;0;5,95;29,19;0;0;
2245;0;0;0;0;0;0;6,2;30,04;0;0;
2249;0;0;0;0;0;0;6,4;30,09;0;0;
2253;0;0;0;0;0;0;6,6;30,14;0;0;
2257;0;0;0;0;0;0;6,8;30,19;0;0;
2261;0;0;0;0;0;0;7;30,24;0;0;
2266;0;0;0;0;0;0;7,2;30,29;0;0;
2271;0;0;0;0;0;0;7,4;30,04;0;0;
2274;0;0;0;0;0;0;7,5;29,29;0;0;
2277;0;0;0;0;0;0;7,6;28,54;0;0;
2281;0;0;0;0;0;0;7,7;27,79;0;0;
2287;0;0;0;0;0;0;7,8;27,04;0;0;
2291;0;0;0;0;0;0;7,8;25,99;0;0;
2294;0;0;0;0;0;0;7,7;24,79;0;0;
2297;0;0;0;0;0;0;7,6;23,59;0;0;
2302;0;0;0;0;0;0;7,5;22,39;0;0;
2307;0;0;0;0;0;0;7,4;21,19;0;0;
2311;0;0;0;0;0;0;7,2;20,04;0;0;
2313;0;0;0;0;0;0;6,9;18,99;0;0;
2317;0;0;0;0;0;0;6,6;17,94;0;0;
2321;0;0;0;0;0;0;6,3;16,89;0;0;
2326;0;0;0;0;0;0;6;15,84;0;0;
2331;0;0;0;0;0;0;5,7;15,29;0;0;
2335;0;0;0;0;0;0;5,4;15,04;0;0;
2338;0;0;0;0;0;0;5,1;14,79;0;0;
2342;0;0;0;0;0;0;4,8;14,54;0;0;
2347;0;0;0;0;0;0;4,5;14,29;0;0;
2352;0;0;0;0;0;0;4,2;14,04;0;0;
2356;0;0;0;0;0;0;4,1;14,74;0;0;
2359;0;0;0;0;0;0;4;15,44;0;0;
2363;0;0;0;0;0;0;3,9;16,14;0;0;
2368;0;0;0;0;0;0;3,8;16,84;0;0;
2373;0;0;0;0;0;0;3,7;17,54;0;0;
2377;0;0;0;0;0;0;3,85;18,69;0;0;
2380;0;0;0;0;0;0;4;19,84;0;0;
2384;0;0;0;0;0;0;4,15;20,99;0;0;
2389;0;0;0;0;0;0;4,3;22,14;0;0;
2394;0;0;0;0;0;0;4,45;23,29;0;0;
2398;0;0;0;0;0;0;4,75;24,14;0;0;
2401;0;0;0;0;0;0;5,05;24,99;0;0;
2405;0;0;0;0;0;0;5,35;25,84;0;0;
2411;0;0;0;0;0;0;5,65;26,69;0;0;
2415;0;0;0;0;0;0;5,95;27,54;0;0;
2420;0;0;0;0;0;0;6,2;27,59;0;0;
2423;0;0;0;0;0;0;6,45;27,64;0;0;
2428;0;0;0;0;0;0;6,7;27,69;0;0;
2433;0;0;0;0;0;0;6,95;27,74;0;0;
2438;0;0;0;0;0;0;7,2;27,79;0;0;
2442;0;0;0;0;0;0;7,2;26,89;0;0;
2445;0;0;0;0;0;0;7,2;25,99;0;0;
2449;0;0;0;0;0;0;7,2;25,09;0;0;
2453;0;0;0;0;0;0;7,2;24,19;0;0;
2458;0;0;0;0;0;0;7,2;23,29;0;0;
2462;0;0;0;0;0;0;6,95;22,09;0;0;
2466;0;0;0;0;0;0;6,7;20,89;0;0;
2470;0;0;0;0;0;0;6,45;19,69;0;0;
2475;0;0;0;0;0;0;6,2;18,49;0;0;
2480;0;0;0;0;0;0;5,95;17,29;0;0;
2484;0;0;0;0;0;0;5,6;16,54;0;0;
2487;0;0;0;0;0;0;5,25;15,79;0;0;
2492;0;0;0;0;0;0;4,9;15,04;0;0;
2497;0;0;0;0;0;0;4,55;14,29;0;0;
2502;0;0;0;0;0;0;4,2;13,54;0;0;
2506;0;0;0;0;0;0;3,95;13,64;0;0;
2509;0;0;0;0;0;0;3,7;13,74;0;0;
2512;0;0;0;0;0;0;3,45;13,84;0;0;
2517;0;0;0;0;0;0;3,2;13,94;0;0;
2523;0;0;0;0;0;0;2,95;14,04;0;0;
2526;0;0;0;0;0;0;2,95;14,94;0;0;
2530;0;0;0;0;0;0;2,95;15,84;0;0;
2534;0;0;0;0;0;0;2,95;16,74;0;0;
2538;0;0;0;0;0;0;2,95;17,64;0;0;
2543;0;0;0;0;0;0;2,95;18,54;0;0;
2547;0;0;0;0;0;0;3,1;19,64;0;0;
2551;0;0;0;0;0;0;3,25;20,74;0;0;
2554;0;0;0;0;0;0;3,4;21,84;0;0;
2559;0;0;0;0;0;0;3,55;22,94;0;0;
2564;0;0;0;0;0;0;3,7;24,04;0;0;
2569;0;0;0;0;0;0;3,9;24,89;0;0;
2573;0;0;0;0;0;0;4,2;25,39;0;0;
2576;0;0;0;0;0;0;4,5;25,89;0;0;
2580;0;0;0;0;0;0;4,8;26,39;0;0;
2585;0;0;0;0;0;0;5,1;26,89;0;0;
2590;0;0;0;0;0;0;5,35;27,04;0;0;
2593;0;0;0;0;0;0;5,55;26,64;0;0;
2596;0;0;0;0;0;0;5,75;26,24;0;0;
2601;0;0;0;0;0;0;5,95;25,84;0;0;
2606;0;0;0;0;0;0;6,15;25,44;0;0;
2610;0;0;0;0;0;0;6,25;24,74;0;0;
2613;0;0;0;0;0;0;6,2;23,69;0;0;
2616;0;0;0;0;0;0;6,15;22,64;0;0;
2621;0;0;0;0;0;0;6,1;21,59;0;0;
2626;0;0;0;0;0;0;6,05;20,54;0;0;
2631;0;0;0;0;0;0;5,95;19,29;0;0;
2634;0;0;0;0;0;0;5,8;18,04;0;0;
2637;0;0;0;0;0;0;5,65;16,79;0;0;
2642;0;0;0;0;0;0;5,5;15,54;0;0;
2647;0;0;0;0;0;0;5,35;14,29;0;0;
2652;0;0;0;0;0;0;5,2;13,04;0;0;
2656;0;0;0;0;0;0;4,95;12,39;0;0;
2659;0;0;0;0;0;0;4,7;11,74;0;0;
2663;0;0;0;0;0;0;4,45;11,09;0;0;
2668;0;0;0;0;0;0;4,2;10,44;0;0;
2673;0;0;0;0;0;0;3,95;9,79;0;0;
2677;0;0;0;0;0;0;3,8;10,14;0;0;
2680;0;0;0;0;0;0;3,65;10,49;0;0;
2684;0;0;0;0;0;0;3,5;10,84;0;0;
2689;0;0;0;0;0;0;3,35;11,19;0;0;
2694;0;0;0;0;0;0;3,2;11,54;0;0;
2697;0;0;0;0;0;0;3,3;12,64;0;0;
2701;0;0;0;0;0;0;3,4;13,74;0;0;
2705;0;0;0;0;0;0;3,5;14,84;0;0;
2710;0;0;0;0;0;0;3,6;15,94;0;0;
2715;0;0;0;0;0;0;3,7;17,04;0;0;
2718;0;0;0;0;0;0;3,95;18,19;0;0;
2721;0;0;0;0;0;0;4,2;19,34;0;0;
2725;0;0;0;0;0;0;4,45;20,49;0;0;
2730;0;0;0;0;0;0;4,7;21,64;0;0;
2735;0;0;0;0;0;0;4,95;22,79;0;0;
2739;0;0;0;0;0;0;5,15;23,24;0;0;
2742;0;0;0;0;0;0;5,35;23,69;0;0;
2746;0;0;0;0;0;0;5,55;24,14;0;0;
2751;0;0;0;0;0;0;5,75;24,59;0;0;
2755;0;0;0;0;0;0;5,95;25,04;0;0;
2760;0;0;0;0;0;0;6;24,44;0;0;
2763;0;0;0;0;0;0;6,05;23,84;0;0;
2767;0;0;0;0;0;0;6,1;23,24;0;0;
2772;0;0;0;0;0;0;6,15;22,64;0;0;
2777;0;0;0;0;0;0;6,2;22,04;0;0;
2782;0;0;0;0;0;0;5,95;20,74;0;0;
2785;0;0;0;0;0;0;5,7;19,44;0;0;
2789;0;0;0;0;0;0;5,45;18,14;0;0;
2794;0;0;0;0;0;0;5,2;16,84;0;0;
2799;0;0;0;0;0;0;4,95;15,54;0;0;
2803;0;0;0;0;0;0;4,58;14,34;0;0;
2806;0;0;0;0;0;0;4,21;13,14;0;0;
2810;0;0;0;0;0;0;3,84;11,94;0;0;
2814;0;0;0;0;0;0;3,47;10,74;0;0;
2820;0;0;0;0;0;0;3,1;9,54;0;0;
2824;0;0;0;0;0;0;2,78;9,24;0;0;
2827;0;0;0;0;0;0;2,46;8,94;0;0;
2836;0;0;0;0;0;0;2,14;8,64;0;0;
2842;0;0;0;0;0;0;1,82;8,34;0;0;
2845;0;0;0;0;0;0;1,62;8,49;0;0;
2848;0;0;0;0;0;0;1,52;9,24;0;0;
2852;0;0;0;0;0;0;1,42;9,99;0;0;
2857;0;0;0;0;0;0;1,32;10,74;0;0;
2862;0;0;0;0;0;0;1,22;11,49;0;0;
2867;0;0;0;0;0;0;1,27;12,49;0;0;
2870;0;0;0;0;0;0;1,52;13,79;0;0;
2875;0;0;0;0;0;0;1,77;15,09;0;0;
2880;0;0;0;0;0;0;2,02;16,39;0;0;
2885;0;0;0;0;0;0;2,27;17,69;0;0;
2888;0;0;0;0;0;0;2,62;18,94;0;0;
2891;0;0;0;0;0;0;2,99;20,04;0;0;
2896;0;0;0;0;0;0;3,36;21,14;0;0;
2901;0;0;0;0;0;0;3,73;22,24;0;0;
2906;0;0;0;0;0;0;4,1;23,34;0;0;
2910;0;0;0;0;0;0;4,37;23,84;0;0;
2913;0;0;0;0;0;0;4,64;23,89;0;0;
2917;0;0;0;0;0;0;4,91;23,94;0;0;
2922;0;0;0;0;0;0;5,18;23,99;0;0;
2927;0;0;0;0;0;0;5,45;24,04;0;0;
2931;0;0;0;0;0;0;5,5;23,14;0;0;
2934;0;0;0;0;0;0;5,55;22,24;0;0;
2939;0;0;0;0;0;0;5,6;21,34;0;0;
2944;0;0;0;0;0;0;5,65;20,44;0;0;
2949;0;0;0;0;0;0;5,7;19,54;0;0;
2952;0;0;0;0;0;0;5,5;18,34;0;0;
2955;0;0;0;0;0;0;5,3;17,14;0;0;
2960;0;0;0;0;0;0;5,1;15,94;0;0;
2965;0;0;0;0;0;0;4,9;14,74;0;0;
2970;0;0;0;0;0;0;4,7;13,54;0;0;
2973;0;0;0;0;0;0;4,45;12,64;0;0;
2977;0;0;0;0;0;0;4,2;11,74;0;0;
2981;0;0;0;0;0;0;3,95;10,84;0;0;
2986;0;0;0;0;0;0;3,7;9,94;0;0;
2989;0;0;0;0;0;0;3,45;9,04;0;0;
2993;0;0;0;0;0;0;3,3;8,74;0;0;
2996;0;0;0;0;0;0;3,2;8,84;0;0;
2999;0;0;0;0;0;0;3,1;8,94;0;0;
3004;0;0;0;0;0;0;3;9,04;0;0;
3009;0;0;0;0;0;0;2,9;9,14;0;0;
3014;0;0;0;0;0;0;2,9;9,74;0;0;
3017;0;0;0;0;0;0;3,05;10,79;0;0;
3021;0;0;0;0;0;0;3,2;11,84;0;0;
3025;0;0;0;0;0;0;3,35;12,89;0;0;
3030;0;0;0;0;0;0;3,5;13,94;0;0;
3035;0;0;0;0;0;0;3,75;15,04;0;0;
3038;0;0;0;0;0;0;4,1;16,39;0;0;
3042;0;0;0;0;0;0;4,45;17,74;0;0;
3046;0;0;0;0;0;0;4,8;19,09;0;0;
3051;0;0;0;0;0;0;5,15;20,44;0;0;
3057;0;0;0;0;0;0;5,45;21,54;0;0;
3060;0;0;0;0;0;0;5,75;22,34;0;0;
3063;0;0;0;0;0;0;6,05;23,14;0;0;
3067;0;0;0;0;0;0;6,35;23,94;0;0;
3072;0;0;0;0;0;0;6,65;24,74;0;0;
3077;0;0;0;0;0;0;6,95;25,54;0;0;
3080;0;0;0;0;0;0;7,15;25,34;0;0;
3083;0;0;0;0;0;0;7,35;25,14;0;0;
3088;0;0;0;0;0;0;7,55;24,94;0;0;
3093;0;0;0;0;0;0;7,75;24,74;0;0;
3098;0;0;0;0;0;0;7,95;24,54;0;0;
3102;0;0;0;0;0;0;7,85;23,44;0;0;
3105;0;0;0;0;0;0;7,75;22,34;0;0;
3109;0;0;0;0;0;0;7,65;21,24;0;0;
3114;0;0;0;0;0;0;7,55;20,14;0;0;
3120;0;0;0;0;0;0;7,45;19,04;0;0;
3124;0;0;0;0;0;0;7,1;17,74;0;0;
3127;0;0;0;0;0;0;6,75;16,44;0;0;
3131;0;0;0;0;0;0;6,4;15,14;0;0;
3137;0;0;0;0;0;0;6,05;13,84;0;0;
3143;0;0;0;0;0;0;5,7;12,54;0;0;
3147;0;0;0;0;0;0;5,28;11,84;0;0;
3150;0;0;0;0;0;0;4,86;11,14;0;0;
3154;0;0;0;0;0;0;4,44;10,44;0;0;
3160;0;0;0;0;0;0;4,02;9,74;0;0;
3164;0;0;0;0;0;0;3,6;9,04;0;0;
3167;0;0;0;0;0;0;3,3;9,34;0;0;
3171;0;0;0;0;0;0;3;9,64;0;0;
3175;0;0;0;0;0;0;2,7;9,94;0;0;
3180;0;0;0;0;0;0;2,4;10,24;0;0;
3186;0;0;0;0;0;0;2,1;10,54;0;0;
3189;0;0;0;0;0;0;2,1;11,59;0;0;
3192;0;0;0;0;0;0;2,1;12,64;0;0;
3196;0;0;0;0;0;0;2,1;13,69;0;0;
3201;0;0;0;0;0;0;2,1;14,74;0;0;
3207;0;0;0;0;0;0;2,1;15,79;0;0;
3210;0;0;0;0;0;0;2,3;16,89;0;0;
3213;0;0;0;0;0;0;2,5;17,99;0;0;
3217;0;0;0;0;0;0;2,7;19,09;0;0;
3222;0;0;0;0;0;0;2,9;20,19;0;0;
3227;0;0;0;0;0;0;3,1;21,29;0;0;
3231;0;0;0;0;0;0;3,42;21,69;0;0;
3234;0;0;0;0;0;0;3,74;22,09;0;0;
3237;0;0;0;0;0;0;4,06;22,49;0;0;
3241;0;0;0;0;0;0;4,38;22,89;0;0;
3246;0;0;0;0;0;0;4,7;23,29;0;0;
3250;0;0;0;0;0;0;4,85;22,69;0;0;
3253;0;0;0;0;0;0;5;22,09;0;0;
3257;0;0;0;0;0;0;5,15;21,49;0;0;
3262;0;0;0;0;0;0;5,3;20,89;0;0;
3267;0;0;0;0;0;0;5,45;20,29;0;0;
3271;0;0;0;0;0;0;5,35;19,19;0;0;
3274;0;0;0;0;0;0;5,25;18,09;0;0;
3280;0;0;0;0;0;0;5,15;16,99;0;0;
3285;0;0;0;0;0;0;5,05;15,89;0;0;
3290;0;0;0;0;0;0;4,95;14,79;0;0;
3293;0;0;0;0;0;0;4,8;13,74;0;0;
3297;0;0;0;0;0;0;4,65;12,69;0;0;
3302;0;0;0;0;0;0;4,5;11,64;0;0;
3306;0;0;0;0;0;0;4,35;10,59;0;0;
3312;0;0;0;0;0;0;4,2;9,54;0;0;
3315;0;0;0;0;0;0;3,95;9,24;0;0;
3319;0;0;0;0;0;0;3,7;8,94;0;0;
3324;0;0;0;0;0;0;3,45;8,64;0;0;
3328;0;0;0;0;0;0;3,2;8,34;0;0;
3333;0;0;0;0;0;0;2,95;8,04;0;0;
3337;0;0;0;0;0;0;2,95;8,69;0;0;
3340;0;0;0;0;0;0;2,95;9,34;0;0;
3344;0;0;0;0;0;0;2,95;9,99;0;0;
3349;0;0;0;0;0;0;2,95;10,64;0;0;
3353;0;0;0;0;0;0;2,95;11,29;0;0;
3357;0;0;0;0;0;0;3,15;12,54;0;0;
3360;0;0;0;0;0;0;3,35;13,79;0;0;
3363;0;0;0;0;0;0;3,55;15,04;0;0;
3368;0;0;0;0;0;0;3,75;16,29;0;0;
3372;0;0;0;0;0;0;3,95;17,54;0;0;
3377;0;0;0;0;0;0;4,15;18,64;0;0;
3381;0;0;0;0;0;0;4,45;19,59;0;0;
3384;0;0;0;0;0;0;4,75;20,54;0;0;
3388;0;0;0;0;0;0;5,05;21,49;0;0;
3393;0;0;0;0;0;0;5,35;22,44;0;0;
3399;0;0;0;0;0;0;5,7;23,04;0;0;
3402;0;0;0;0;0;0;6;23,19;0;0;
3405;0;0;0;0;0;0;6,3;23,34;0;0;
3410;0;0;0;0;0;0;6,6;23,49;0;0;
3415;0;0;0;0;0;0;6,9;23,64;0;0;
3419;0;0;0;0;0;0;7,05;23,44;0;0;
3423;0;0;0;0;0;0;7;22,64;0;0;
3426;0;0;0;0;0;0;6,95;21,84;0;0;
3429;0;0;0;0;0;0;6,9;21,04;0;0;
3434;0;0;0;0;0;0;6,85;20,24;0;0;
3439;0;0;0;0;0;0;6,7;19,04;0;0;
3443;0;0;0;0;0;0;6,45;17,69;0;0;
3447;0;0;0;0;0;0;6,2;16,34;0;0;
3451;0;0;0;0;0;0;5,95;14,99;0;0;
3456;0;0;0;0;0;0;5,7;13,64;0;0;
3460;0;0;0;0;0;0;5,45;12,29;0;0;
3464;0;0;0;0;0;0;5,03;11,24;0;0;
3467;0;0;0;0;0;0;4,61;10,19;0;0;
3470;0;0;0;0;0;0;4,19;9,14;0;0;
3475;0;0;0;0;0;0;3,77;8,09;0;0;
3480;0;0;0;0;0;0;3,35;7,04;0;0;
3484;0;0;0;0;0;0;3;6,89;0;0;
3487;0;0;0;0;0;0;2,65;6,74;0;0;
3491;0;0;0;0;0;0;2,3;6,59;0;0;
3496;0;0;0;0;0;0;1,95;6,44;0;0;
3502;0;0;0;0;0;0;1,6;6,29;0;0;
3506;0;0;0;0;0;0;1,55;7,09;0;0;
3509;0;0;0;0;0;0;1,5;7,89;0;0;
3513;0;0;0;0;0;0;1,45;8,69;0;0;
3518;0;0;0;0;0;0;1,4;9,49;0;0;
3523;0;0;0;0;0;0;1,35;10,29;0;0;
3527;0;0;0;0;0;0;1,5;11,54;0;0;
3530;0;0;0;0;0;0;1,65;12,79;0;0;
3534;0;0;0;0;0;0;1,8;14,04;0;0;
3539;0;0;0;0;0;0;1,95;15,29;0;0;
3544;0;0;0;0;0;0;2,1;16,54;0;0;
3548;0;0;0;0;0;0;2,37;17,44;0;0;
3551;0;0;0;0;0;0;2,64;18,34;0;0;
3555;0;0;0;0;0;0;2,91;19,24;0;0;
3560;0;0;0;0;0;0;3,18;20,14;0;0;
3565;0;0;0;0;0;0;3,45;21,04;0;0;
3569;0;0;0;0;0;0;3,6;20,99;0;0;
3572;0;0;0;0;0;0;3,75;20,94;0;0;
3576;0;0;0;0;0;0;3,9;20,89;0;0;
3581;0;0;0;0;0;0;4,05;20,84;0;0;
3585;0;0;0;0;0;0;4,2;20,79;0;0;
3590;0;0;0;0;0;0;4,15;19,84;0;0;
3593;0;0;0;0;0;0;4,1;18,89;0;0;
3596;0;0;0;0;0;0;4,05;17,94;0;0;
3602;0;0;0;0;0;0;4;16,99;0;0;
3606;0;0;0;0;0;0;3,95;16,04;0;0;
3611;0;0;0;0;0;0;3,8;14,79;0;0;
3614;0;0;0;0;0;0;3,58;13,49;0;0;
3618;0;0;0;0;0;0;3,36;12,19;0;0;
3622;0;0;0;0;0;0;3,14;10,89;0;0;
3627;0;0;0;0;0;0;2,92;9,59;0;0;
3632;0;0;0;0;0;0;2,65;8,49;0;0;
3635;0;0;0;0;0;0;2,38;7,64;0;0;
3639;0;0;0;0;0;0;2,11;6,79;0;0;
3648;0;0;0;0;0;0;1,84;5,94;0;0;
3653;0;0;0;0;0;0;1,57;5,09;0;0;
3656;0;0;0;0;0;0;1,42;5,09;0;0;
3659;0;0;0;0;0;0;1,27;5,09;0;0;
3664;0;0;0;0;0;0;1,12;5,09;0;0;
3667;0;0;0;0;0;0;0,97;5,09;0;0;
3671;0;0;0;0;0;0;0,82;5,09;0;0;
3676;0;0;0;0;0;0;0,92;6,09;0;0;
3679;0;0;0;0;0;0;1,02;7,09;0;0;
3683;0;0;0;0;0;0;1,12;8,09;0;0;
3688;0;0;0;0;0;0;1,22;9,09;0;0;
3693;0;0;0;0;0;0;1,32;10,09;0;0;
3697;0;0;0;0;0;0;1,52;11,34;0;0;
3701;0;0;0;0;0;0;1,79;12,64;0;0;
3705;0;0;0;0;0;0;2,06;13,94;0;0;
3710;0;0;0;0;0;0;2,33;15,24;0;0;
3715;0;0;0;0;0;0;2,6;16,54;0;0;
3719;0;0;0;0;0;0;2,87;17,54;0;0;
3722;0;0;0;0;0;0;3,14;18,29;0;0;
3726;0;0;0;0;0;0;3,41;19,04;0;0;
3731;0;0;0;0;0;0;3,68;19,79;0;0;
3736;0;0;0;0;0;0;3,95;20,54;0;0;
3740;0;0;0;0;0;0;4,1;20,34;0;0;
3743;0;0;0;0;0;0;4,25;20,14;0;0;
3747;0;0;0;0;0;0;4,4;19,94;0;0;
3752;0;0;0;0;0;0;4,55;19,74;0;0;
3756;0;0;0;0;0;0;4,7;19,54;0;0;
3761;0;0;0;0;0;0;4,55;18,49;0;0;
3764;0;0;0;0;0;0;4,4;17,44;0;0;
3768;0;0;0;0;0;0;4,25;16,39;0;0;
3773;0;0;0;0;0;0;4,1;15,34;0;0;
3777;0;0;0;0;0;0;3,95;14,29;0;0;
3782;0;0;0;0;0;0;3,68;13,04;0;0;
3785;0;0;0;0;0;0;3,41;11,79;0;0;
3789;0;0;0;0;0;0;3,14;10,54;0;0;
3794;0;0;0;0;0;0;2,87;9,29;0;0;
3799;0;0;0;0;0;0;2,6;8,04;0;0;
3803;0;0;0;0;0;0;2,33;7,34;0;0;
3806;0;0;0;0;0;0;2,06;6,64;0;0;
3810;0;0;0;0;0;0;1,79;5,94;0;0;
3815;0;0;0;0;0;0;1,52;5,24;0;0;
3820;0;0;0;0;0;0;1,25;4,54;0;0;
3825;0;0;0;0;0;0;1,15;4,89;0;0;
3828;0;0;0;0;0;0;1,05;5,24;0;0;
3833;0;0;0;0;0;0;0,95;5,59;0;0;
3839;0;0;0;0;0;0;0,85;5,94;0;0;
3843;0;0;0;0;0;0;0,75;6,29;0;0;
3846;0;0;0;0;0;0;0,95;7,39;0;0;
3849;0;0;0;0;0;0;1,15;8,49;0;0;
3854;0;0;0;0;0;0;1,35;9,59;0;0;
3859;0;0;0;0;0;0;1,55;10,69;0;0;
3864;0;0;0;0;0;0;1,75;11,79;0;0;
3868;0;0;0;0;0;0;2,02;12,89;0;0;
3871;0;0;0;0;0;0;2,29;13,99;0;0;
3875;0;0;0;0;0;0;2,56;15,09;0;0;
3880;0;0;0;0;0;0;2,83;16,19;0;0;
3885;0;0;0;0;0;0;3,1;17,29;0;0;
3889;0;0;0;0;0;0;3,37;17,74;0;0;
3892;0;0;0;0;0;0;3,64;18,19;0;0;
3895;0;0;0;0;0;0;3,91;18,64;0;0;
3900;0;0;0;0;0;0;4,18;19,09;0;0;
3906;0;0;0;0;0;0;4,45;19,54;0;0;
3910;0;0;0;0;0;0;4,6;18,94;0;0;
3913;0;0;0;0;0;0;4,75;18,34;0;0;
3918;0;0;0;0;0;0;4,9;17,74;0;0;
3923;0;0;0;0;0;0;5,05;17,14;0;0;
3928;0;0;0;0;0;0;5,2;16,54;0;0;
3933;0;0;0;0;0;0;5,05;15,46;0;0;
3936;0;0;0;0;0;0;4,9;14,38;0;0;
3940;0;0;0;0;0;0;4,75;13,3;0;0;
3945;0;0;0;0;0;0;4,6;12,22;0;0;
3950;0;0;0;0;0;0;4,45;11,14;0;0;
3953;0;0;0;0;0;0;4,2;10,09;0;0;
3957;0;0;0;0;0;0;3,95;9,04;0;0;
3961;0;0;0;0;0;0;3,7;7,99;0;0;
3965;0;0;0;0;0;0;3,45;6,94;0;0;
3970;0;0;0;0;0;0;3,2;5,89;0;0;
3974;0;0;0;0;0;0;2,95;5,24;0;0;
3977;0;0;0;0;0;0;2,75;4,89;0;0;
3981;0;0;0;0;0;0;2,55;4,54;0;0;
3985;0;0;0;0;0;0;2,35;4,19;0;0;
3990;0;0;0;0;0;0;2,15;3,84;0;0;
3995;0;0;0;0;0;0;2;4,09;0;0;
3998;0;0;0;0;0;0;1,9;4,69;0;0;
4001;0;0;0;0;0;0;1,8;5,29;0;0;
4004;0;0;0;0;0;0;1,7;5,89;0;0;
4009;0;0;0;0;0;0;1,6;6,49;0;0;
4013;0;0;0;0;0;0;1,65;7,22;0;0;
4016;0;0;0;0;0;0;1,85;8,35;0;0;
4019;0;0;0;0;0;0;2,05;9,48;0;0;
4023;0;0;0;0;0;0;2,25;10,61;0;0;
4028;0;0;0;0;0;0;2,45;11,74;0;0;
4033;0;0;0;0;0;0;2,7;12,79;0;0;
4037;0;0;0;0;0;0;3;13,74;0;0;
4040;0;0;0;0;0;0;3,3;14,69;0;0;
4045;0;0;0;0;0;0;3,6;15,64;0;0;
4050;0;0;0;0;0;0;3,9;16,59;0;0;
4055;0;0;0;0;0;0;4,2;17,54;0;0;
4059;0;0;0;0;0;0;4,3;17,59;0;0;
4063;0;0;0;0;0;0;4,4;17,64;0;0;
4067;0;0;0;0;0;0;4,5;17,69;0;0;
4071;0;0;0;0;0;0;4,6;17,74;0;0;
4076;0;0;0;0;0;0;4,7;17,79;0;0;
4080;0;0;0;0;0;0;4,6;17,06;0;0;
4084;0;0;0;0;0;0;4,5;16,33;0;0;
4087;0;0;0;0;0;0;4,4;15,6;0;0;
4092;0;0;0;0;0;0;4,3;14,87;0;0;
4097;0;0;0;0;0;0;4,2;14,14;0;0;
4101;0;0;0;0;0;0;3,98;13,06;0;0;
4104;0;0;0;0;0;0;3,76;11,99;0;0;
4107;0;0;0;0;0;0;3,54;10,91;0;0;
4112;0;0;0;0;0;0;3,32;9,83;0;0;
4117;0;0;0;0;0;0;3,1;8,75;0;0;
4123;0;0;0;0;0;0;2,83;7,77;0;0;
4126;0;0;0;0;0;0;2,56;6,77;0;0;
4129;0;0;0;0;0;0;2,29;5,77;0;0;
4133;0;0;0;0;0;0;2,02;4,77;0;0;
4140;0;0;0;0;0;0;1,75;3,77;0;0;
4144;0;0;0;0;0;0;1,63;3,37;0;0;
4148;0;0;0;0;0;0;1,48;3,42;0;0;
4151;0;0;0;0;0;0;1,33;3,47;0;0;
4155;0;0;0;0;0;0;1,18;3,52;0;0;
4159;0;0;0;0;0;0;1,03;3,57;0;0;
4164;0;0;0;0;0;0;1,03;4,05;0;0;
4168;0;0;0;0;0;0;1,18;4,88;0;0;
4171;0;0;0;0;0;0;1,33;5,71;0;0;
4174;0;0;0;0;0;0;1,48;6,54;0;0;
4179;0;0;0;0;0;0;1,63;7,36;0;0;
4184;0;0;0;0;0;0;1,75;8,14;0;0;
4188;0;0;0;0;0;0;1,92;9,17;0;0;
4191;0;0;0;0;0;0;2,09;10,2;0;0;
4195;0;0;0;0;0;0;2,26;11,23;0;0;
4200;0;0;0;0;0;0;2,43;12,26;0;0;
4205;0;0;0;0;0;0;2,6;13,29;0;0;
4208;0;0;0;0;0;0;2,87;14,04;0;0;
4212;0;0;0;0;0;0;3,14;14,79;0;0;
4216;0;0;0;0;0;0;3,41;15,54;0;0;
4220;0;0;0;0;0;0;3,68;16,29;0;0;
4225;0;0;0;0;0;0;3,95;17,04;0;0;
4229;0;0;0;0;0;0;4,15;16,79;0;0;
4232;0;0;0;0;0;0;4,35;16,54;0;0;
4236;0;0;0;0;0;0;4,55;16,29;0;0;
4241;0;0;0;0;0;0;4,75;16,04;0;0;
4247;0;0;0;0;0;0;4,95;15,79;0;0;
4250;0;0;0;0;0;0;4,9;14,96;0;0;
4254;0;0;0;0;0;0;4,85;14,13;0;0;
4258;0;0;0;0;0;0;4,8;13,3;0;0;
4263;0;0;0;0;0;0;4,75;12,47;0;0;
4268;0;0;0;0;0;0;4,7;11,64;0;0;
4272;0;0;0;0;0;0;4,55;10,56;0;0;
4275;0;0;0;0;0;0;4,4;9,49;0;0;
4280;0;0;0;0;0;0;4,25;8,41;0;0;
4284;0;0;0;0;0;0;4,1;7,33;0;0;
4288;0;0;0;0;0;0;3,95;6,25;0;0;
4293;0;0;0;0;0;0;3,7;5,47;0;0;
4297;0;0;0;0;0;0;3,45;4,87;0;0;
4301;0;0;0;0;0;0;3,2;4,27;0;0;
4306;0;0;0;0;0;0;2,95;3,67;0;0;
4310;0;0;0;0;0;0;2,7;3,07;0;0;
4314;0;0;0;0;0;0;2,55;3,42;0;0;
4318;0;0;0;0;0;0;2,4;3,77;0;0;
4322;0;0;0;0;0;0;2,25;4,12;0;0;
4327;0;0;0;0;0;0;2,1;4,47;0;0;
4332;0;0;0;0;0;0;1,95;4,82;0;0;
4336;0;0;0;0;0;0;1,9;5,4;0;0;
4340;0;0;0;0;0;0;2;6,33;0;0;
4343;0;0;0;0;0;0;2,1;7,26;0;0;
4347;0;0;0;0;0;0;2,2;8,19;0;0;
4352;0;0;0;0;0;0;2,3;9,11;0;0;
4356;0;0;0;0;0;0;2,45;10,04;0;0;
4360;0;0;0;0;0;0;2,7;11,12;0;0;
4363;0;0;0;0;0;0;2,95;12,2;0;0;
4367;0;0;0;0;0;0;3,2;13,28;0;0;
4372;0;0;0;0;0;0;3,45;14,36;0;0;
4376;0;0;0;0;0;0;3,7;15,44;0;0;
4379;0;0;0;0;0;0;3,95;15,94;0;0;
4383;0;0;0;0;0;0;4,2;16,44;0;0;
4387;0;0;0;0;0;0;4,45;16,94;0;0;
4391;0;0;0;0;0;0;4,7;17,44;0;0;
4396;0;0;0;0;0;0;4,95;17,54;0;0;
4400;0;0;0;0;0;0;5,1;17,04;0;0;
4403;0;0;0;0;0;0;5,25;16,54;0;0;
4407;0;0;0;0;0;0;5,4;16,04;0;0;
4411;0;0;0;0;0;0;5,55;15,54;0;0;
4416;0;0;0;0;0;0;5,7;15,04;0;0;
4421;0;0;0;0;0;0;5,7;14,19;0;0;
4424;0;0;0;0;0;0;5,5;13,31;0;0;
4427;0;0;0;0;0;0;5,3;12,43;0;0;
4431;0;0;0;0;0;0;5,1;11,55;0;0;
4436;0;0;0;0;0;0;4,9;10,67;0;0;
4441;0;0;0;0;0;0;4,6;9,64;0;0;
4445;0;0;0;0;0;0;4,3;8,54;0;0;
4452;0;0;0;0;0;0;4;7,44;0;0;
4455;0;0;0;0;0;0;3,7;6,34;0;0;
4460;0;0;0;0;0;0;3,4;5,24;0;0;
4464;0;0;0;0;0;0;3,08;4,84;0;0;
4467;0;0;0;0;0;0;2,76;4,44;0;0;
4472;0;0;0;0;0;0;2,44;4,04;0;0;
4477;0;0;0;0;0;0;2,12;3,64;0;0;
4483;0;0;0;0;0;0;1,8;3,24;0;0;
4486;0;0;0;0;0;0;1,7;3,89;0;0;
4489;0;0;0;0;0;0;1,6;4,54;0;0;
4494;0;0;0;0;0;0;1,5;5,19;0;0;
4499;0;0;0;0;0;0;1,4;5,84;0;0;
4504;0;0;0;0;0;0;1,3;6,49;0;0;
4508;0;0;0;0;0;0;1,3;7,49;0;0;
4511;0;0;0;0;0;0;1,5;8,52;0;0;
4516;0;0;0;0;0;0;1,7;9,55;0;0;
4521;0;0;0;0;0;0;1,9;10,58;0;0;
4527;0;0;0;0;0;0;2,1;11,61;0;0;
4530;0;0;0;0;0;0;2,4;12,64;0;0;
4533;0;0;0;0;0;0;2,7;13,74;0;0;
4537;0;0;0;0;0;0;3;14,84;0;0;
4541;0;0;0;0;0;0;3,3;15,94;0;0;
4546;0;0;0;0;0;0;3,6;17,04;0;0;
4549;0;0;0;0;0;0;3,97;17,34;0;0;
4553;0;0;0;0;0;0;4,34;17,64;0;0;
4556;0;0;0;0;0;0;4,71;17,94;0;0;
4561;0;0;0;0;0;0;5,08;18,24;0;0;
4565;0;0;0;0;0;0;5,45;18,54;0;0;
4570;0;0;0;0;0;0;5,55;17,84;0;0;
4573;0;0;0;0;0;0;5,65;17,14;0;0;
4578;0;0;0;0;0;0;5,75;16,44;0;0;
4583;0;0;0;0;0;0;5,85;15,74;0;0;
4587;0;0;0;0;0;0;5,95;15,04;0;0;
4591;0;0;0;0;0;0;5,9;13,96;0;0;
4594;0;0;0;0;0;0;5,85;12,88;0;0;
4598;0;0;0;0;0;0;5,8;11,8;0;0;
4603;0;0;0;0;0;0;5,75;10,72;0;0;
4607;0;0;0;0;0;0;5,7;9,64;0;0;
4612;0;0;0;0;0;0;5,55;8,64;0;0;
4615;0;0;0;0;0;0;5,4;7,64;0;0;
4618;0;0;0;0;0;0;5,25;6,64;0;0;
4623;0;0;0;0;0;0;5,1;5,64;0;0;
4628;0;0;0;0;0;0;4,95;4,64;0;0;
4633;0;0;0;0;0;0;4,75;4,14;0;0;
4636;0;0;0;0;0;0;4,5;3,94;0;0;
4639;0;0;0;0;0;0;4,25;3,74;0;0;
4644;0;0;0;0;0;0;4;3,54;0;0;
4650;0;0;0;0;0;0;3,75;3,34;0;0;
4654;0;0;0;0;0;0;3,65;3,69;0;0;
4657;0;0;0;0;0;0;3,65;4,49;0;0;
4661;0;0;0;0;0;0;3,65;5,29;0;0;
4665;0;0;0;0;0;0;3,65;6,09;0;0;
4669;0;0;0;0;0;0;3,65;6,89;0;0;
4674;0;0;0;0;0;0;3,7;7,72;0;0;
4677;0;0;0;0;0;0;3,85;8,95;0;0;
4681;0;0;0;0;0;0;4;10,18;0;0;
4684;0;0;0;0;0;0;4,15;11,41;0;0;
4688;0;0;0;0;0;0;4,3;12,64;0;0;
4693;0;0;0;0;0;0;4,45;13,79;0;0;
4697;0;0;0;0;0;0;4,7;14,74;0;0;
4700;0;0;0;0;0;0;4,95;15,69;0;0;
4705;0;0;0;0;0;0;5,2;16,64;0;0;
4710;0;0;0;0;0;0;5,45;17,59;0;0;
4715;0;0;0;0;0;0;5,7;18,54;0;0;
4719;0;0;0;0;0;0;5,8;18,54;0;0;
4722;0;0;0;0;0;0;5,9;18,54;0;0;
4726;0;0;0;0;0;0;6;18,54;0;0;
4731;0;0;0;0;0;0;6,1;18,54;0;0;
4736;0;0;0;0;0;0;6,2;18,54;0;0;
4740;0;0;0;0;0;0;6,05;17,71;0;0;
4744;0;0;0;0;0;0;5,9;16,88;0;0;
4748;0;0;0;0;0;0;5,75;16,05;0;0;
4753;0;0;0;0;0;0;5,6;15,22;0;0;
4758;0;0;0;0;0;0;5,45;14,39;0;0;
4762;0;0;0;0;0;0;5,13;13,16;0;0;
4765;0;0;0;0;0;0;4,81;11,94;0;0;
4769;0;0;0;0;0;0;4,49;10,71;0;0;
4774;0;0;0;0;0;0;4,17;9,48;0;0;
4779;0;0;0;0;0;0;3,85;8,25;0;0;
4783;0;0;0;0;0;0;3,45;7,4;0;0;
4787;0;0;0;0;0;0;3,05;6,55;0;0;
4790;0;0;0;0;0;0;2,65;5,7;0;0;
4795;0;0;0;0;0;0;2,25;4,85;0;0;
4800;0;0;0;0;0;0;1,85;4;0;0;
4805;0;0;0;0;0;0;1,7;4,2;0;0;
4808;0;0;0;0;0;0;1,55;4,4;0;0;
4812;0;0;0;0;0;0;1,4;4,6;0;0;
4817;0;0;0;0;0;0;1,25;4,8;0;0;
4821;0;0;0;0;0;0;1,1;5;0;0;
4826;0;0;0;0;0;0;1,2;5,98;0;0;
4829;0;0;0;0;0;0;1,3;6,96;0;0;
4833;0;0;0;0;0;0;1,4;7,94;0;0;
4838;0;0;0;0;0;0;1,5;8,91;0;0;
4843;0;0;0;0;0;0;1,6;9,89;0;0;
4846;0;0;0;0;0;0;1,92;11,12;0;0;
4850;0;0;0;0;0;0;2,24;12,35;0;0;
4853;0;0;0;0;0;0;2,56;13,58;0;0;
4858;0;0;0;0;0;0;2,88;14,81;0;0;
4863;0;0;0;0;0;0;3,2;16,04;0;0;
4868;0;0;0;0;0;0;3,5;17,09;0;0;
4871;0;0;0;0;0;0;3,8;17,79;0;0;
4874;0;0;0;0;0;0;4,1;18,49;0;0;
4878;0;0;0;0;0;0;4,4;19,19;0;0;
4884;0;0;0;0;0;0;4,7;19,89;0;0;
4888;0;0;0;0;0;0;4,95;20,19;0;0;
4892;0;0;0;0;0;0;5,1;19,79;0;0;
4895;0;0;0;0;0;0;5,25;19,39;0;0;
4899;0;0;0;0;0;0;5,4;18,99;0;0;
4903;0;0;0;0;0;0;5,55;18,59;0;0;
4908;0;0;0;0;0;0;5,6;17,79;0;0;
4911;0;0;0;0;0;0;5,55;16,81;0;0;
4914;0;0;0;0;0;0;5,5;15,83;0;0;
4919;0;0;0;0;0;0;5,45;14,85;0;0;
4923;0;0;0;0;0;0;5,4;13,87;0;0;
4928;0;0;0;0;0;0;5,2;12,64;0;0;
4932;0;0;0;0;0;0;5;11,44;0;0;
4935;0;0;0;0;0;0;4,8;10,24;0;0;
4940;0;0;0;0;0;0;4,6;9,04;0;0;
4944;0;0;0;0;0;0;4,4;7,84;0;0;
4949;0;0;0;0;0;0;4,2;6,64;0;0;
4953;0;0;0;0;0;0;4;5,79;0;0;
4956;0;0;0;0;0;0;3,75;5,14;0;0;
4960;0;0;0;0;0;0;3,5;4,49;0;0;
4964;0;0;0;0;0;0;3,25;3,84;0;0;
4969;0;0;0;0;0;0;3;3,19;0;0;
4974;0;0;0;0;0;0;2,85;3,24;0;0;
4977;0;0;0;0;0;0;2,85;3,74;0;0;
4980;0;0;0;0;0;0;2,85;4,24;0;0;
4985;0;0;0;0;0;0;2,85;4,74;0;0;
4990;0;0;0;0;0;0;2,85;5,24;0;0;
4995;0;0;0;0;0;0;3;6,27;0;0;
4998;0;0;0;0;0;0;3,15;7,3;0;0;
5003;0;0;0;0;0;0;3,3;8,33;0;0;
5008;0;0;0;0;0;0;3,45;9,36;0;0;
5013;0;0;0;0;0;0;3,6;10,39;0;0;
5017;0;0;0;0;0;0;3,85;11,44;0;0;
5021;0;0;0;0;0;0;4,1;12,49;0;0;
5025;0;0;0;0;0;0;4,35;13,54;0;0;
5030;0;0;0;0;0;0;4,6;14,59;0;0;
5035;0;0;0;0;0;0;4,85;15,64;0;0;
5038;0;0;0;0;0;0;5;16,29;0;0;
5042;0;0;0;0;0;0;5,2;16,74;0;0;
5046;0;0;0;0;0;0;5,4;17,19;0;0;
5051;0;0;0;0;0;0;5,6;17,64;0;0;
5055;0;0;0;0;0;0;5,8;18,09;0;0;
5059;0;0;0;0;0;0;5,9;17,89;0;0;
5063;0;0;0;0;0;0;5,85;17,24;0;0;
5066;0;0;0;0;0;0;5,8;16,59;0;0;
5070;0;0;0;0;0;0;5,75;15,94;0;0;
5075;0;0;0;0;0;0;5,7;15,29;0;0;
5080;0;0;0;0;0;0;5,6;14,29;0;0;
5083;0;0;0;0;0;0;5,4;13,21;0;0;
5086;0;0;0;0;0;0;5,2;12,13;0;0;
5090;0;0;0;0;0;0;5;11,05;0;0;
5095;0;0;0;0;0;0;4,8;9,97;0;0;
5101;0;0;0;0;0;0;4,5;8,84;0;0;
5104;0;0;0;0;0;0;4,15;7,79;0;0;
5107;0;0;0;0;0;0;3,8;6,74;0;0;
5111;0;0;0;0;0;0;3,45;5,69;0;0;
5115;0;0;0;0;0;0;3,1;4,64;0;0;
5120;0;0;0;0;0;0;2,85;3,99;0;0;
5124;0;0;0;0;0;0;2,6;3,69;0;0;
5127;0;0;0;0;0;0;2,35;3,39;0;0;
5132;0;0;0;0;0;0;2,1;3,09;0;0;
5136;0;0;0;0;0;0;1,85;2,79;0;0;
5140;0;0;0;0;0;0;1,7;3,14;0;0;
5144;0;0;0;0;0;0;1,7;3,89;0;0;
5147;0;0;0;0;0;0;1,7;4,64;0;0;
5152;0;0;0;0;0;0;1,7;5,39;0;0;
5157;0;0;0;0;0;0;1,7;6,14;0;0;
5162;0;0;0;0;0;0;1,7;6,89;0;0;
5166;0;0;0;0;0;0;1,95;8,07;0;0;
5170;0;0;0;0;0;0;2,2;9,25;0;0;
5174;0;0;0;0;0;0;2,45;10,43;0;0;
5179;0;0;0;0;0;0;2,7;11,61;0;0;
5184;0;0;0;0;0;0;2,95;12,79;0;0;
5188;0;0;0;0;0;0;3,3;13,79;0;0;
5191;0;0;0;0;0;0;3,65;14,79;0;0;
5194;0;0;0;0;0;0;4;15,79;0;0;
5199;0;0;0;0;0;0;4,35;16,79;0;0;
5204;0;0;0;0;0;0;4,7;17,79;0;0;
5208;0;0;0;0;0;0;5,05;17,94;0;0;
5211;0;0;0;0;0;0;5,4;18,09;0;0;
5216;0;0;0;0;0;0;5,75;18,24;0;0;
5221;0;0;0;0;0;0;6,1;18,39;0;0;
5226;0;0;0;0;0;0;6,45;18,54;0;0;
5230;0;0;0;0;0;0;6,5;17,79;0;0;
5233;0;0;0;0;0;0;6,55;17,04;0;0;
5237;0;0;0;0;0;0;6,6;16,29;0;0;
5242;0;0;0;0;0;0;6,65;15,54;0;0;
5247;0;0;0;0;0;0;6,7;14,79;0;0;
5251;0;0;0;0;0;0;6,6;13,69;0;0;
5259;0;0;0;0;0;0;6,4;12,56;0;0;
5262;0;0;0;0;0;0;6,2;11,43;0;0;
5266;0;0;0;0;0;0;6;10,3;0;0;
5271;0;0;0;0;0;0;5,8;9,17;0;0;
5274;0;0;0;0;0;0;5,5;8,17;0;0;
5277;0;0;0;0;0;0;5,2;7,17;0;0;
5281;0;0;0;0;0;0;4,9;6,17;0;0;
5286;0;0;0;0;0;0;4,6;5,17;0;0;
5290;0;0;0;0;0;0;4,3;4,17;0;0;
5293;0;0;0;0;0;0;4;4,07;0;0;
5296;0;0;0;0;0;0;3,7;3,97;0;0;
5300;0;0;0;0;0;0;3,4;3,87;0;0;
5306;0;0;0;0;0;0;3,1;3,77;0;0;
5310;0;0;0;0;0;0;2,8;3,67;0;0;
5315;0;0;0;0;0;0;2,75;4,47;0;0;
5319;0;0;0;0;0;0;2,7;5,27;0;0;
5325;0;0;0;0;0;0;2,65;6,07;0;0;
5331;0;0;0;0;0;0;2,6;6,87;0;0;
5336;0;0;0;0;0;0;2,55;7,67;0;0;
5339;0;0;0;0;0;0;2,55;8,82;0;0;
5342;0;0;0;0;0;0;2,65;10;0;0;
5346;0;0;0;0;0;0;2,75;11,18;0;0;
5351;0;0;0;0;0;0;2,85;12,36;0;0;
5355;0;0;0;0;0;0;2,95;13,54;0;0;
5359;0;0;0;0;0;0;3,2;14,44;0;0;
5363;0;0;0;0;0;0;3,45;15,34;0;0;
5366;0;0;0;0;0;0;3,7;16,24;0;0;
5371;0;0;0;0;0;0;3,95;17,14;0;0;
5376;0;0;0;0;0;0;4,2;18,04;0;0;
5380;0;0;0;0;0;0;4,45;18,04;0;0;
5382;0;0;0;0;0;0;4,7;18,04;0;0;
5387;0;0;0;0;0;0;4,95;18,04;0;0;
5392;0;0;0;0;0;0;5,2;18,04;0;0;
5397;0;0;0;0;0;0;5,45;18,04;0;0;
5400;0;0;0;0;0;0;5,45;17,16;0;0;
5404;0;0;0;0;0;0;5,45;16,28;0;0;
5408;0;0;0;0;0;0;5,45;15,4;0;0;
5412;0;0;0;0;0;0;5,45;14,52;0;0;
5416;0;0;0;0;0;0;5,45;13,64;0;0;
5421;0;0;0;0;0;0;5,3;12,41;0;0;
5425;0;0;0;0;0;0;5,15;11,19;0;0;
5429;0;0;0;0;0;0;5;9,96;0;0;
5434;0;0;0;0;0;0;4,85;8,73;0;0;
5438;0;0;0;0;0;0;4,7;7,5;0;0;
5442;0;0;0;0;0;0;4,4;6,8;0;0;
5445;0;0;0;0;0;0;4,1;6,1;0;0;
5450;0;0;0;0;0;0;3,8;5,4;0;0;
5455;0;0;0;0;0;0;3,5;4,7;0;0;
5459;0;0;0;0;0;0;3,2;4;0;0;
5464;0;0;0;0;0;0;3;4,2;0;0;
5468;0;0;0;0;0;0;2,8;4,4;0;0;
5472;0;0;0;0;0;0;2,6;4,6;0;0;
5476;0;0;0;0;0;0;2,4;4,8;0;0;
5480;0;0;0;0;0;0;2,2;5;0;0;
5485;0;0;0;0;0;0;2,3;6,08;0;0;
5489;0;0;0;0;0;0;2,4;7,16;0;0;
5493;0;0;0;0;0;0;2,5;8,24;0;0;
5498;0;0;0;0;0;0;2,6;9,31;0;0;
5503;0;0;0;0;0;0;2,7;10,39;0;0;
5507;0;0;0;0;0;0;3;11,62;0;0;
5510;0;0;0;0;0;0;3,3;12,85;0;0;
5514;0;0;0;0;0;0;3,6;14,08;0;0;
5519;0;0;0;0;0;0;3,9;15,31;0;0;
5523;0;0;0;0;0;0;4,2;16,54;0;0;
5528;0;0;0;0;0;0;4,55;17,09;0;0;
5532;0;0;0;0;0;0;4,9;17,64;0;0;
5535;0;0;0;0;0;0;5,25;18,19;0;0;
5540;0;0;0;0;0;0;5,6;18,74;0;0;
5544;0;0;0;0;0;0;5,95;19,29;0;0;
5549;0;0;0;0;0;0;6,05;18,84;0;0;
5553;0;0;0;0;0;0;6,15;18,39;0;0;
5557;0;0;0;0;0;0;6,25;17,94;0;0;
5560;0;0;0;0;0;0;6,35;17,49;0;0;
5566;0;0;0;0;0;0;6,45;17,04;0;0;
5571;0;0;0;0;0;0;6,25;16,06;0;0;
5573;0;0;0;0;0;0;6,05;15,08;0;0;
5577;0;0;0;0;0;0;5,85;14,1;0;0;
5582;0;0;0;0;0;0;5,65;13,12;0;0;
5589;0;0;0;0;0;0;5,45;12,14;0;0;
5591;0;0;0;0;0;0;5,15;10,94;0;0;
5594;0;0;0;0;0;0;4,85;9,74;0;0;
5598;0;0;0;0;0;0;4,55;8,54;0;0;
5603;0;0;0;0;0;0;4,25;7,34;0;0;
5608;0;0;0;0;0;0;3,95;6,14;0;0;
5613;0;0;0;0;0;0;3,65;5,69;0;0;
5616;0;0;0;0;0;0;3,35;5,24;0;0;
5620;0;0;0;0;0;0;3,05;4,79;0;0;
5625;0;0;0;0;0;0;2,75;4,34;0;0;
5630;0;0;0;0;0;0;2,45;3,89;0;0;
5634;0;0;0;0;0;0;2,3;4,39;0;0;
5637;0;0;0;0;0;0;2,15;4,89;0;0;
5641;0;0;0;0;0;0;2;5,39;0;0;
5646;0;0;0;0;0;0;1,85;5,89;0;0;
5650;0;0;0;0;0;0;1,7;6,39;0;0;
5655;0;0;0;0;0;0;1,85;7,37;0;0;
5658;0;0;0;0;0;0;2;8,35;0;0;
5662;0;0;0;0;0;0;2,15;9,33;0;0;
5667;0;0;0;0;0;0;2,3;10,31;0;0;
5672;0;0;0;0;0;0;2,45;11,29;0;0;
5677;0;0;0;0;0;0;2,65;12,29;0;0;
5680;0;0;0;0;0;0;2,85;13,29;0;0;
5685;0;0;0;0;0;0;3,05;14,29;0;0;
5690;0;0;0;0;0;0;3,25;15,29;0;0;
5694;0;0;0;0;0;0;3,45;16,29;0;0;
5698;0;0;0;0;0;0;3,6;16,49;0;0;
5701;0;0;0;0;0;0;3,75;16,69;0;0;
5704;0;0;0;0;0;0;3,9;16,89;0;0;
5709;0;0;0;0;0;0;4,05;17,09;0;0;
5714;0;0;0;0;0;0;4,2;17,29;0;0;
5719;0;0;0;0;0;0;4,25;16,56;0;0;
5722;0;0;0;0;0;0;4,3;15,83;0;0;
5727;0;0;0;0;0;0;4,35;15,1;0;0;
5731;0;0;0;0;0;0;4,4;14,37;0;0;
5736;0;0;0;0;0;0;4,45;13,64;0;0;
5740;0;0;0;0;0;0;4,25;12,66;0;0;
5743;0;0;0;0;0;0;4,05;11,69;0;0;
5748;0;0;0;0;0;0;3,85;10,71;0;0;
5753;0;0;0;0;0;0;3,65;9,73;0;0;
5757;0;0;0;0;0;0;3,45;8,75;0;0;
5762;0;0;0;0;0;0;3,2;7,82;0;0;
5766;0;0;0;0;0;0;2,93;6,87;0;0;
5769;0;0;0;0;0;0;2,66;5,92;0;0;
5772;0;0;0;0;0;0;2,39;4,97;0;0;
5776;0;0;0;0;0;0;2,12;4,02;0;0;
5780;0;0;0;0;0;0;1,9;3,52;0;0;
5784;0;0;0;0;0;0;1,75;3,47;0;0;
5787;0;0;0;0;0;0;1,6;3,42;0;0;
5791;0;0;0;0;0;0;1,45;3,37;0;0;
5796;0;0;0;0;0;0;1,3;3,32;0;0;
5801;0;0;0;0;0;0;1,25;3,85;0;0;
5805;0;0;0;0;0;0;1,3;4,73;0;0;
5808;0;0;0;0;0;0;1,35;5,61;0;0;
5812;0;0;0;0;0;0;1,4;6,49;0;0;
5818;0;0;0;0;0;0;1,45;7,36;0;0;
5822;0;0;0;0;0;0;1,6;8,14;0;0;
5826;0;0;0;0;0;0;1,9;9,17;0;0;
5829;0;0;0;0;0;0;2,2;10,2;0;0;
5834;0;0;0;0;0;0;2,5;11,23;0;0;
5839;0;0;0;0;0;0;2,8;12,26;0;0;
5844;0;0;0;0;0;0;3,1;13,29;0;0;
5848;0;0;0;0;0;0;3,47;14,24;0;0;
5851;0;0;0;0;0;0;3,84;15,19;0;0;
5854;0;0;0;0;0;0;4,21;16,14;0;0;
5859;0;0;0;0;0;0;4,58;17,09;0;0;
5864;0;0;0;0;0;0;4,95;18,04;0;0;
5868;0;0;0;0;0;0;5,25;17,99;0;0;
5871;0;0;0;0;0;0;5,55;17,94;0;0;
5876;0;0;0;0;0;0;5,85;17,89;0;0;
5880;0;0;0;0;0;0;6,15;17,84;0;0;
5885;0;0;0;0;0;0;6,45;17,79;0;0;
5889;0;0;0;0;0;0;6,5;16,91;0;0;
5892;0;0;0;0;0;0;6,55;16,03;0;0;
5896;0;0;0;0;0;0;6,6;15,15;0;0;
5901;0;0;0;0;0;0;6,65;14,27;0;0;
5905;0;0;0;0;0;0;6,7;13,39;0;0;
5910;0;0;0;0;0;0;6,6;12,26;0;0;
5914;0;0;0;0;0;0;6,45;11,19;0;0;
5917;0;0;0;0;0;0;6,3;10,11;0;0;
5921;0;0;0;0;0;0;6,15;9,03;0;0;
5927;0;0;0;0;0;0;6;7,95;0;0;
5931;0;0;0;0;0;0;5,8;6,97;0;0;
5934;0;0;0;0;0;0;5,6;6,12;0;0;
5937;0;0;0;0;0;0;5,4;5,27;0;0;
5942;0;0;0;0;0;0;5,2;4,42;0;0;
5947;0;0;0;0;0;0;5;3,57;0;0;
5952;0;0;0;0;0;0;4,8;3,27;0;0;
5956;0;0;0;0;0;0;4,6;3,32;0;0;
5959;0;0;0;0;0;0;4,4;3,37;0;0;
5963;0;0;0;0;0;0;4,2;3,42;0;0;
5968;0;0;0;0;0;0;4;3,47;0;0;
5972;0;0;0;0;0;0;3,95;4;0;0;
5975;0;0;0;0;0;0;4,05;4,93;0;0;
5979;0;0;0;0;0;0;4,15;5,86;0;0;
5982;0;0;0;0;0;0;4,25;6,79;0;0;
5988;0;0;0;0;0;0;4,35;7,71;0;0;
5992;0;0;0;0;0;0;4,45;8,64;0;0;
5996;0;0;0;0;0;0;4,7;9,77;0;0;
6000;0;0;0;0;0;0;4,95;10,9;0;0;
6003;0;0;0;0;0;0;5,2;12,03;0;0;
6008;0;0;0;0;0;0;5,45;13,16;0;0;
6013;0;0;0;0;0;0;5,7;14,29;0;0;
6017;0;0;0;0;0;0;6;14,94;0;0;
6021;0;0;0;0;0;0;6,3;15,59;0;0;
6025;0;0;0;0;0;0;6,6;16,24;0;0;
6030;0;0;0;0;0;0;6,9;16,89;0;0;
6035;0;0;0;0;0;0;7,2;17,54;0;0;
6038;0;0;0;0;0;0;7,25;17,29;0;0;
6042;0;0;0;0;0;0;7,3;17,04;0;0;
6047;0;0;0;0;0;0;7,35;16,79;0;0;
6051;0;0;0;0;0;0;7,4;16,54;0;0;
6056;0;0;0;0;0;0;7,45;16,29;0;0;
6061;0;0;0;0;0;0;7,35;15,64;0;0;
6064;0;0;0;0;0;0;7,2;14,76;0;0;
6071;0;0;0;0;0;0;7,05;13,88;0;0;
6076;0;0;0;0;0;0;6,9;13;0;0;
6081;0;0;0;0;0;0;6,75;12,12;0;0;
6084;0;0;0;0;0;0;6,45;10,94;0;0;
6087;0;0;0;0;0;0;6,15;9,76;0;0;
6092;0;0;0;0;0;0;5,85;8,59;0;0;
6096;0;0;0;0;0;0;5,55;7,41;0;0;
6100;0;0;0;0;0;0;5,25;6,23;0;0;
6104;0;0;0;0;0;0;4,85;5,63;0;0;
6107;0;0;0;0;0;0;4,45;5,03;0;0;
6111;0;0;0;0;0;0;4,05;4,43;0;0;
6116;0;0;0;0;0;0;3,65;3,83;0;0;
6122;0;0;0;0;0;0;3,25;3,23;0;0;
6125;0;0;0;0;0;0;3,15;3,53;0;0;
6128;0;0;0;0;0;0;3,05;3,83;0;0;
6132;0;0;0;0;0;0;2,95;4,13;0;0;
6138;0;0;0;0;0;0;2,85;4,43;0;0;
6143;0;0;0;0;0;0;2,75;4,73;0;0;
6147;0;0;0;0;0;0;2,8;5,38;0;0;
6150;0;0;0;0;0;0;2,9;6,26;0;0;
6155;0;0;0;0;0;0;3;7,14;0;0;
6159;0;0;0;0;0;0;3,1;8,01;1;0;
6163;0;0;0;0;0;0;3,2;8,89;1;0;
6167;0;0;0;0;0;0;3,45;9,97;1;0;
6170;0;0;0;0;0;0;3,7;11,05;1;0;
6175;0;0;0;0;0;0;3,95;12,13;1;0;
6180;0;0;0;0;0;0;4,2;13,21;1;0;
6185;0;0;0;0;0;0;4,45;14,29;1;0;
6188;0;0;0;0;0;0;4,8;14,74;1;0;
6191;0;0;0;0;0;0;5,15;15,19;1;0;
6196;0;0;0;0;0;0;5,5;15,64;1;0;
6200;0;0;0;0;0;0;5,85;16,09;1;0;
6206;0;0;0;0;0;0;6,2;16,54;1;0;
6209;0;0;0;0;0;0;6,4;16,09;1;0;
6212;0;0;0;0;0;0;6,6;15,64;1;0;
6216;0;0;0;0;0;0;6,8;15,19;1;0;
6220;0;0;0;0;0;0;7;14,74;1;0;
6225;0;0;0;0;0;0;7,2;14,29;1;0;
6230;0;0;0;0;0;0;7;13,46;1;0;
6233;0;0;0;0;0;0;6,8;12,63;1;0;
6238;0;0;0;0;0;0;6,6;11,8;1;0;
6243;0;0;0;0;0;0;6,4;10,97;1;0;
6248;0;0;0;0;0;0;6,2;10,14;1;0;
6251;0;0;0;0;0;0;5,95;9,09;1;0;
6254;0;0;0;0;0;0;5,7;8,04;1;0;
6259;0;0;0;0;0;0;5,45;6,99;1;0;
6264;0;0;0;0;0;0;5,2;5,94;1;0;
6269;0;0;0;0;0;0;4,95;4,89;1;0;
6273;0;0;0;0;0;0;4,65;4,59;1;0;
6277;0;0;0;0;0;0;4,35;4,29;1;0;
6281;0;0;0;0;0;0;4,05;3,99;1;0;
6286;0;0;0;0;0;0;3,75;3,69;1;0;
6291;0;0;0;0;0;0;3,45;3,39;1;0;
6294;0;0;0;0;0;0;3,25;4,04;1;0;
6297;0;0;0;0;0;0;3,05;4,69;1;0;
6302;0;0;0;0;0;0;2,85;5,34;1;0;
6307;0;0;0;0;0;0;2,65;5,99;1;0;
6312;0;0;0;0;0;0;2,45;6,64;1;0;
6315;0;0;0;0;0;0;2,48;7,07;1;0;
6319;0;0;0;0;0;0;2,51;7,5;1;0;
6323;0;0;0;0;0;0;2,54;7,93;1;0;
6329;0;0;0;0;0;0;2,57;8,36;1;0;
6333;0;0;0;0;0;0;2,6;8,79;1;0;
6336;0;0;0;0;0;0;2,7;9,39;1;0;
6340;0;0;0;0;0;0;2,8;9,99;1;0;
6345;0;0;0;0;0;0;2,9;10,59;1;0;
6350;0;0;0;0;0;0;3;11,19;1;0;
6354;0;0;0;0;0;0;3,1;11,79;1;0;
6359;0;0;0;0;0;0;3,25;11,69;1;0;
6362;0;0;0;0;0;0;3,4;11,59;1;0;
6366;0;0;0;0;0;0;3,55;11,49;1;0;
6372;0;0;0;0;0;0;3,7;11,39;1;0;
6377;0;0;0;0;0;0;3,85;11,29;1;0;
6380;0;0;0;0;0;0;3,95;10,71;1;0;
6384;0;0;0;0;0;0;4,05;10,13;1;0;
6389;0;0;0;0;0;0;4,15;9,55;1;0;
6393;0;0;0;0;0;0;4,25;8,97;1;0;
6398;0;0;0;0;0;0;4,35;8,39;1;0;
6402;0;0;0;0;0;0;4,42;8,01;1;0;
6405;0;0;0;0;0;0;4,49;7,64;1;0;
6409;0;0;0;0;0;0;4,56;7,26;1;0;
6414;0;0;0;0;0;0;4,63;6,88;1;0;
6419;0;0;0;0;0;0;4,7;6,5;1;0;
6423;0;0;0;0;0;0;4,55;5,95;1;0;
6426;0;0;0;0;0;0;4,4;5,4;1;0;
6430;0;0;0;0;0;0;4,25;4,85;1;0;
6434;0;0;0;0;0;0;4,1;4,3;1;0;
6437;0;0;0;0;0;0;3,95;3,75;1;0;
6442;0;0;0;0;0;0;3,75;3,55;1;0;
6446;0;0;0;0;0;0;3,6;3,75;1;0;
6449;0;0;0;0;0;0;3,45;3,95;1;0;
6452;0;0;0;0;0;0;3,3;4,15;1;0;
6456;0;0;0;0;0;0;3,15;4,35;1;0;
6461;0;0;0;0;0;0;3,05;4,63;1;0;
6465;0;0;0;0;0;0;3,1;5,31;1;0;
6468;0;0;0;0;0;0;3,15;5,99;1;0;
6472;0;0;0;0;0;0;3,2;6,66;1;0;
6477;0;0;0;0;0;0;3,25;7,34;1;0;
6482;0;0;0;0;0;0;3,35;8,07;1;0;
6486;0;0;0;0;0;0;3,6;9,1;1;0;
6489;0;0;0;0;0;0;3,85;10,13;1;0;
6493;0;0;0;0;0;0;4,1;11,16;1;0;
6498;0;0;0;0;0;0;4,35;12,19;1;0;
6504;0;0;0;0;0;0;4,7;13,29;1;0;
6507;0;0;0;0;0;0;5,05;14,09;1;0;
6510;0;0;0;0;0;0;5,4;14,89;1;0;
6515;0;0;0;0;0;0;5,75;15,69;1;0;
6521;0;0;0;0;0;0;6,1;16,49;0;0;
6526;0;0;0;0;0;0;6,45;17,29;0;0;
6529;0;0;0;0;0;0;6,65;17,19;0;0;
6532;0;0;0;0;0;0;6,85;17,09;0;0;
6536;0;0;0;0;0;0;7,05;16,99;0;0;
6541;0;0;0;0;0;0;7,25;16,89;0;0;
6546;0;0;0;0;0;0;7,45;16,79;0;0;
6550;0;0;0;0;0;0;7,3;15,91;0;0;
6553;0;0;0;0;0;0;7,15;15,03;0;0;
6557;0;0;0;0;0;0;7;14,15;0;0;
6564;0;0;0;0;0;0;6,85;13,27;0;0;
6568;0;0;0;0;0;0;6,7;12,39;0;0;
6572;0;0;0;0;0;0;6,35;11,21;0;0;
6575;0;0;0;0;0;0;6;10,04;0;0;
6580;0;0;0;0;0;0;5,65;8,86;0;0;
6584;0;0;0;0;0;0;5,3;7,68;0;0;
6588;0;0;0;0;0;0;4,95;6,5;0;0;
6592;0;0;0;0;0;0;4,65;5,9;0;0;
6595;0;0;0;0;0;0;4,35;5,3;0;0;
6600;0;0;0;0;0;0;4,05;4,7;0;0;
6606;0;0;0;0;0;0;3,75;4,1;0;0;
6610;0;0;0;0;0;0;3,45;3,5;0;0;
6613;0;0;0;0;0;0;3,3;3,75;0;0;
6616;0;0;0;0;0;0;3,15;4;0;0;
6621;0;0;0;0;0;0;3;4,25;0;0;
6626;0;0;0;0;0;0;2,85;4,5;0;0;
6631;0;0;0;0;0;0;2,7;4,75;0;0;
6634;0;0;0;0;0;0;2,85;5,78;0;0;
6637;0;0;0;0;0;0;3;6,81;0;0;
6641;0;0;0;0;0;0;3,15;7,84;0;0;
6646;0;0;0;0;0;0;3,3;8,86;0;0;
6651;0;0;0;0;0;0;3,45;9,89;0;0;
6656;0;0;0;0;0;0;3,8;11,12;0;0;
6660;0;0;0;0;0;0;4,15;12,35;0;0;
6663;0;0;0;0;0;0;4,5;13,58;0;0;
6668;0;0;0;0;0;0;4,85;14,81;0;0;
6672;0;0;0;0;0;0;5,2;16,04;0;0;
6677;0;0;0;0;0;0;5,5;16,59;0;0;
6680;0;0;0;0;0;0;5,8;17,14;0;0;
6686;0;0;0;0;0;0;6,1;17,69;0;0;
6689;0;0;0;0;0;0;6,4;18,24;0;0;
6694;0;0;0;0;0;0;6,7;18,79;0;0;
6699;0;0;0;0;0;0;6,8;18,44;0;0;
6702;0;0;0;0;0;0;6,9;18,09;0;0;
6705;0;0;0;0;0;0;7;17,74;0;0;
6710;0;0;0;0;0;0;7,1;17,39;0;0;
6715;0;0;0;0;0;0;7,2;17,04;0;0;
6721;0;0;0;0;0;0;7,2;16,29;0;0;
6724;0;0;0;0;0;0;7;15,36;0;0;
6727;0;0;0;0;0;0;6,8;14,43;0;0;
6731;0;0;0;0;0;0;6,6;13,5;0;0;
6736;0;0;0;0;0;0;6,4;12,57;0;0;
6740;0;0;0;0;0;0;6,05;11,44;0;0;
6744;0;0;0;0;0;0;5,7;10,21;0;0;
6747;0;0;0;0;0;0;5,35;8,99;0;0;
6751;0;0;0;0;0;0;5;7,76;0;0;
6756;0;0;0;0;0;0;4,65;6,53;0;0;
6760;0;0;0;0;0;0;4,3;5,7;0;0;
6764;0;0;0;0;0;0;3,9;5,15;0;0;
6767;0;0;0;0;0;0;3,5;4,6;0;0;
6771;0;0;0;0;0;0;3,1;4,05;0;0;
6776;0;0;0;0;0;0;2,7;3,5;0;0;
6781;0;0;0;0;0;0;2,45;3,5;0;0;
6785;0;0;0;0;0;0;2,35;3,9;0;0;
6788;0;0;0;0;0;0;2,25;4,3;0;0;
6793;0;0;0;0;0;0;2,15;4,7;0;0;
6798;0;0;0;0;0;0;2,05;5,1;0;0;
6803;0;0;0;0;0;0;1,95;5,5;0;0;
6807;0;0;0;0;0;0;2,15;6,48;0;0;
6810;0;0;0;0;0;0;2,35;7,46;0;0;
6814;0;0;0;0;0;0;2,55;8,44;0;0;
6819;0;0;0;0;0;0;2,75;9,41;0;0;
6823;0;0;0;0;0;0;2,95;10,39;0;0;
6826;0;0;0;0;0;0;3,25;11,52;0;0;
6830;0;0;0;0;0;0;3,55;12,65;0;0;
6834;0;0;0;0;0;0;3,85;13,78;0;0;
6839;0;0;0;0;0;0;4,15;14,91;0;0;
6844;0;0;0;0;0;0;4,45;16,04;0;0;
6847;0;0;0;0;0;0;4,75;16,44;0;0;
6850;0;0;0;0;0;0;5,05;16,84;0;0;
6855;0;0;0;0;0;0;5,35;17,24;0;0;
6860;0;0;0;0;0;0;5,65;17,64;0;0;
6865;0;0;0;0;0;0;5,95;18,04;0;0;
6869;0;0;0;0;0;0;6;17,44;0;0;
6872;0;0;0;0;0;0;6,05;16,84;0;0;
6882;0;0;0;0;0;0;6,1;16,24;0;0;
6887;0;0;0;0;0;0;6,15;15,64;0;0;
6890;0;0;0;0;0;0;6,15;15,11;0;0;
6893;0;0;0;0;0;0;6,05;14,18;0;0;
6898;0;0;0;0;0;0;5,95;13,25;0;0;
6903;0;0;0;0;0;0;5,85;12,32;0;0;
6907;0;0;0;0;0;0;5,75;11,39;0;0;
6911;0;0;0;0;0;0;5,65;10,39;0;0;
6915;0;0;0;0;0;0;5,45;9,34;0;0;
6920;0;0;0;0;0;0;5,25;8,29;0;0;
6925;0;0;0;0;0;0;5,05;7,24;0;0;
6930;0;0;0;0;0;0;4,85;6,19;0;0;
6933;0;0;0;0;0;0;4,55;5,39;0;0;
6936;0;0;0;0;0;0;4,3;5,04;0;0;
6940;0;0;0;0;0;0;4,05;4,69;0;0;
6945;0;0;0;0;0;0;3,8;4,34;0;0;
6950;0;0;0;0;0;0;3,55;3,99;0;0;
6953;0;0;0;0;0;0;3,3;3,64;0;0;
6956;0;0;0;0;0;0;3,2;4,29;0;0;
6960;0;0;0;0;0;0;3,1;4,94;0;0;
6963;0;0;0;0;0;0;3;5,59;0;0;
6968;0;0;0;0;0;0;2,9;6,24;0;0;
6973;0;0;0;0;0;0;2,85;6,82;0;0;
6976;0;0;0;0;0;0;2,95;7,85;0;0;
6980;0;0;0;0;0;0;3,05;8,88;0;0;
6984;0;0;0;0;0;0;3,15;9,91;0;0;
6989;0;0;0;0;0;0;3,25;10,94;0;0;
6994;0;0;0;0;0;0;3,35;12,04;0;0;
6997;0;0;0;0;0;0;3,45;12,94;0;0;
7001;0;0;0;0;0;0;3,55;13,84;0;0;
7005;0;0;0;0;0;0;3,65;14,74;0;0;
7008;0;0;0;0;0;0;3,75;15,64;0;0;
7014;0;0;0;0;0;0;3,95;16,29;0;0;
7018;0;0;0;0;0;0;4,15;16,94;0;0;
7021;0;0;0;0;0;0;4,35;17,09;0;0;
7025;0;0;0;0;0;0;4,55;17,24;0;0;
7028;0;0;0;0;0;0;4,75;17,39;0;0;
7032;0;0;0;0;0;0;4,95;17,54;0;0;
7037;0;0;0;0;0;0;5,1;17,29;0;0;
7041;0;0;0;0;0;0;5,15;16,56;0;0;
7044;0;0;0;0;0;0;5,2;15,83;0;0;
7047;0;0;0;0;0;0;5,25;15,1;0;0;
7052;0;0;0;0;0;0;5,3;14,37;0;0;
7057;0;0;0;0;0;0;5,2;13,19;0;0;
7060;0;0;0;0;0;0;5;12,06;0;0;
7064;0;0;0;0;0;0;4,8;10,94;0;0;
7067;0;0;0;0;0;0;4,6;9,81;0;0;
7072;0;0;0;0;0;0;4,4;8,68;0;0;
7077;0;0;0;0;0;0;4,2;7,75;0;0;
7081;0;0;0;0;0;0;4;7;0;0;
7084;0;0;0;0;0;0;3,8;6,25;0;0;
7089;0;0;0;0;0;0;3,6;5,5;0;0;
7093;0;0;0;0;0;0;3,4;4,75;0;0;
7097;0;0;0;0;0;0;3,2;4;0;0;
7101;0;0;0;0;0;0;3;3,75;0;0;
7105;0;0;0;0;0;0;2,85;3,9;0;0;
7108;0;0;0;0;0;0;2,7;4,05;0;0;
7111;0;0;0;0;0;0;2,55;4,2;0;0;
7116;0;0;0;0;0;0;2,4;4,35;0;0;
7121;0;0;0;0;0;0;2,35;4,98;0;0;
7125;0;0;0;0;0;0;2,45;5,96;0;0;
7128;0;0;0;0;0;0;2,55;6,94;0;0;
7131;0;0;0;0;0;0;2,65;7,91;0;0;
7136;0;0;0;0;0;0;2,75;8,89;0;0;
7140;0;0;0;0;0;0;2,95;9,82;0;0;
7144;0;0;0;0;0;0;3,15;10,75;0;0;
7147;0;0;0;0;0;0;3,45;11,93;0;0;
7151;0;0;0;0;0;0;3,75;13,11;0;0;
7154;0;0;0;0;0;0;4,05;14,29;0;0;
7159;0;0;0;0;0;0;4,35;15,29;0;0;
7163;0;0;0;0;0;0;4,65;16,29;0;0;
7167;0;0;0;0;0;0;5,05;17,04;0;0;
7170;0;0;0;0;0;0;5,45;17,79;0;0;
7175;0;0;0;0;0;0;5,85;18,54;0;0;
7180;0;0;0;0;0;0;6,25;19,29;0;0;
7186;0;0;0;0;0;0;6,6;19,64;0;0;
7189;0;0;0;0;0;0;6,75;19,44;0;0;
7192;0;0;0;0;0;0;6,9;19,24;0;0;
7197;0;0;0;0;0;0;7,05;19,04;0;0;
7201;0;0;0;0;0;0;7,2;18,84;0;0;
7205;0;0;0;0;0;0;7,2;18,29;0;0;
7209;0;0;0;0;0;0;7,2;17,74;0;0;
7212;0;0;0;0;0;0;7,1;16,89;0;0;
7215;0;0;0;0;0;0;7;16,04;0;0;
7219;0;0;0;0;0;0;6,9;15,19;0;0;
7223;0;0;0;0;0;0;6,8;14,34;0;0;
7227;0;0;0;0;0;0;6,6;13,24;0;0;
7231;0;0;0;0;0;0;6,35;12,14;0;0;
7235;0;0;0;0;0;0;6,1;11,04;0;0;
7240;0;0;0;0;0;0;5,85;9,94;0;0;
7244;0;0;0;0;0;0;5,6;8,84;0;0;
7247;0;0;0;0;0;0;5,25;7,99;0;0;
7250;0;0;0;0;0;0;4,9;7,14;0;0;
7254;0;0;0;0;0;0;4,6;6,59;0;0;
7257;0;0;0;0;0;0;4,3;6,04;0;0;
7260;0;0;0;0;0;0;4;5,49;0;0;
7265;0;0;0;0;0;0;3,9;5,49;0;0;
7268;0;0;0;0;0;0;3,8;5,49;0;0;
7273;0;0;0;0;0;0;3,8;5,89;0;0;
7276;0;0;0;0;0;0;3,8;6,29;0;0;
7280;0;0;0;0;0;0;3,8;6,69;0;0;
7284;0;0;0;0;0;0;3,8;7,09;0;0;
7289;0;0;0;0;0;0;3,9;7,79;0;0;
7294;0;0;0;0;0;0;4,1;8,84;0;0;
7297;0;0;0;0;0;0;4,3;9,89;0;0;
7300;0;0;0;0;0;0;4,5;10,94;0;0;
7304;0;0;0;0;0;0;4,7;11,99;0;0;
7309;0;0;0;0;0;0;4,95;13,04;0;0;
7314;0;0;0;0;0;0;5,2;14,09;0;0;
7317;0;0;0;0;0;0;5,5;15,29;0;0;
7321;0;0;0;0;0;0;5,8;16,49;0;0;
7326;0;0;0;0;0;0;6,1;17,69;0;0;
7329;0;0;0;0;0;0;6,4;18,89;0;0;
7334;0;0;0;0;0;0;6,65;19,79;0;0;
7337;0;0;0;0;0;0;6,9;20,24;0;0;
7341;0;0;0;0;0;0;7,15;20,69;0;0;
7344;0;0;0;0;0;0;7,4;21,14;0;0;
7349;0;0;0;0;0;0;7,65;21,59;0;0;
7354;0;0;0;0;0;0;7,8;21,64;0;0;
7358;0;0;0;0;0;0;7,8;21,19;0;0;
7361;0;0;0;0;0;0;7,8;20,74;0;0;
7365;0;0;0;0;0;0;7,8;20,29;0;0;
7370;0;0;0;0;0;0;7,8;19,84;0;0;
7375;0;0;0;0;0;0;7,7;19,04;0;0;
7380;0;0;0;0;0;0;7,45;17,94;0;0;
7383;0;0;0;0;0;0;7,2;16,84;0;0;
7389;0;0;0;0;0;0;6,95;15,74;0;0;
7393;0;0;0;0;0;0;6,7;14,64;0;0;
7398;0;0;0;0;0;0;6,45;13,54;0;0;
7401;0;0;0;0;0;0;6,15;12,44;0;0;
7405;0;0;0;0;0;0;5,85;11,34;0;0;
7409;0;0;0;0;0;0;5,55;10,24;0;0;
7414;0;0;0;0;0;0;5,25;9,14;0;0;
7420;0;0;0;0;0;0;4,95;8,04;0;0;
7423;0;0;0;0;0;0;4,65;7,79;0;0;
7426;0;0;0;0;0;0;4,35;7,54;0;0;
7430;0;0;0;0;0;0;4,05;7,29;0;0;
7435;0;0;0;0;0;0;3,75;7,04;0;0;
7441;0;0;0;0;0;0;3,45;6,79;0;0;
7444;0;0;0;0;0;0;3,4;7,44;0;0;
7447;0;0;0;0;0;0;3,35;8,09;0;0;
7452;0;0;0;0;0;0;3,3;8,74;0;0;
7457;0;0;0;0;0;0;3,25;9,39;0;0;
7463;0;0;0;0;0;0;3,2;10,04;0;0;
7466;0;0;0;0;0;0;3,4;11,29;0;0;
7469;0;0;0;0;0;0;3,6;12,54;0;0;
7473;0;0;0;0;0;0;3,8;13,79;0;0;
7478;0;0;0;0;0;0;4;15,04;0;0;
7484;0;0;0;0;0;0;4,2;16,29;0;0;
7489;0;0;0;0;0;0;4,5;17,34;0;0;
7492;0;0;0;0;0;0;4,8;18,39;0;0;
7497;0;0;0;0;0;0;5,1;19,44;0;0;
7502;0;0;0;0;0;0;5,4;20,49;0;0;
7508;0;0;0;0;0;0;5,7;21,54;0;0;
7511;0;0;0;0;0;0;5,95;21,74;0;0;
7514;0;0;0;0;0;0;6,2;21,94;0;0;
7517;0;0;0;0;0;0;6,45;22,14;0;0;
7522;0;0;0;0;0;0;6,7;22,34;0;0;
7527;0;0;0;0;0;0;6,95;22,54;0;0;
7531;0;0;0;0;0;0;7;21,79;0;0;
7534;0;0;0;0;0;0;7,05;21,04;0;0;
7538;0;0;0;0;0;0;7,1;20,29;0;0;
7543;0;0;0;0;0;0;7,15;19,54;0;0;
7547;0;0;0;0;0;0;7,2;18,79;0;0;
7551;0;0;0;0;0;0;7,05;17,64;0;0;
7554;0;0;0;0;0;0;6,9;16,49;0;0;
7557;0;0;0;0;0;0;6,75;15,34;0;0;
7561;0;0;0;0;0;0;6,6;14,19;0;0;
7565;0;0;0;0;0;0;6,45;13,04;0;0;
7570;0;0;0;0;0;0;6,2;11,94;0;0;
7574;0;0;0;0;0;0;5,95;11,04;0;0;
7577;0;0;0;0;0;0;5,7;10,14;0;0;
7580;0;0;0;0;0;0;5,45;9,24;0;0;
7585;0;0;0;0;0;0;5,2;8,34;0;0;
7589;0;0;0;0;0;0;5;7,89;0;0;
7592;0;0;0;0;0;0;4,75;7,74;0;0;
7595;0;0;0;0;0;0;4,5;7,59;0;0;
7600;0;0;0;0;0;0;4,25;7,44;0;0;
7605;0;0;0;0;0;0;4;7,29;0;0;
7609;0;0;0;0;0;0;3,85;7,69;0;0;
7614;0;0;0;0;0;0;3,7;8,09;0;0;
7617;0;0;0;0;0;0;3,65;8,94;0;0;
7621;0;0;0;0;0;0;3,6;9,79;0;0;
7624;0;0;0;0;0;0;3,55;10,64;0;0;
7629;0;0;0;0;0;0;3,6;11,59;0;0;
7634;0;0;0;0;0;0;3,65;12,54;0;0;
7637;0;0;0;0;0;0;3,8;13,74;0;0;
7641;0;0;0;0;0;0;3,95;14,94;0;0;
7644;0;0;0;0;0;0;4,1;16,14;0;0;
7649;0;0;0;0;0;0;4,25;17,34;0;0;
7654;0;0;0;0;0;0;4,4;18,34;0;0;
7658;0;0;0;0;0;0;4,5;19,09;0;0;
7665;0;0;0;0;0;0;4,6;19,84;0;0;
7670;0;0;0;0;0;0;4,7;20,59;0;0;
7673;0;0;0;0;0;0;4,8;21,34;0;0;
7677;0;0;0;0;0;0;4,95;21,79;0;0;
7681;0;0;0;0;0;0;5;21,69;0;0;
7684;0;0;0;0;0;0;5,05;21,59;0;0;
7687;0;0;0;0;0;0;5,1;21,49;0;0;
7692;0;0;0;0;0;0;5,15;21,39;0;0;
7697;0;0;0;0;0;0;5,2;21,29;0;0;
7700;0;0;0;0;0;0;5,05;20,34;0;0;
7704;0;0;0;0;0;0;4,9;19,39;0;0;
7708;0;0;0;0;0;0;4,75;18,44;0;0;
7713;0;0;0;0;0;0;4,6;17,49;0;0;
7718;0;0;0;0;0;0;4,45;16,54;0;0;
7721;0;0;0;0;0;0;4,13;15,29;0;0;
7725;0;0;0;0;0;0;3,81;14,04;0;0;
7728;0;0;0;0;0;0;3,49;12,79;0;0;
7734;0;0;0;0;0;0;3,17;11,54;0;0;
7739;0;0;0;0;0;0;2,85;10,29;0;0;
7742;0;0;0;0;0;0;2,58;9,59;0;0;
7745;0;0;0;0;0;0;2,31;8,89;0;0;
7749;0;0;0;0;0;0;2,04;8,19;0;0;
7754;0;0;0;0;0;0;1,77;7,49;0;0;
7759;0;0;0;0;0;0;1,5;6,79;0;0;
7763;0;0;0;0;0;0;1,33;6,94;0;0;
7766;0;0;0;0;0;0;1,16;7,09;0;0;
7771;0;0;0;0;0;0;0,99;7,24;0;0;
7776;0;0;0;0;0;0;0,82;7,39;0;0;
7781;0;0;0;0;0;0;0,65;7,54;0;0;
7785;0;0;0;0;0;0;0,75;8,54;0;0;
7788;0;0;0;0;0;0;0,85;9,54;0;0;
7791;0;0;0;0;0;0;0,95;10,54;0;0;
7796;0;0;0;0;0;0;1,05;11,54;0;0;
7801;0;0;0;0;0;0;1,15;12,54;0;0;
7805;0;0;0;0;0;0;1,47;13,79;0;0;
7808;0;0;0;0;0;0;1,79;15,04;0;0;
7813;0;0;0;0;0;0;2,11;16,29;0;0;
7817;0;0;0;0;0;0;2,43;17,54;0;0;
7821;0;0;0;0;0;0;2,75;18,79;0;0;
7826;0;0;0;0;0;0;3,07;19,74;0;0;
7829;0;0;0;0;0;0;3,39;20,29;0;0;
7833;0;0;0;0;0;0;3,71;20,84;0;0;
7837;0;0;0;0;0;0;4,03;21,39;0;0;
7841;0;0;0;0;0;0;4,35;21,94;0;0;
7846;0;0;0;0;0;0;4,67;22,19;0;0;
7849;0;0;0;0;0;0;4,84;21,84;0;0;
7852;0;0;0;0;0;0;5,01;21,49;0;0;
7858;0;0;0;0;0;0;5,18;21,14;0;0;
7861;0;0;0;0;0;0;5,35;20,79;0;0;
7865;0;0;0;0;0;0;5,35;19,99;0;0;
7869;0;0;0;0;0;0;5,25;18,89;0;0;
7873;0;0;0;0;0;0;5,15;17,79;0;0;
7877;0;0;0;0;0;0;5,05;16,69;0;0;
7882;0;0;0;0;0;0;4,95;15,59;0;0;
7887;0;0;0;0;0;0;4,7;14,29;0;0;
7890;0;0;0;0;0;0;4,38;12,99;0;0;
7893;0;0;0;0;0;0;4,06;11,69;0;0;
7897;0;0;0;0;0;0;3,74;10,39;0;0;
7903;0;0;0;0;0;0;3,42;9,09;0;0;
7906;0;0;0;0;0;0;3,1;7,79;0;0;
7910;0;0;0;0;0;0;2,78;6,89;0;0;
7913;0;0;0;0;0;0;2,48;6,39;0;0;
7916;0;0;0;0;0;0;2,18;5,89;0;0;
7921;0;0;0;0;0;0;1,88;5,39;0;0;
7925;0;0;0;0;0;0;1,58;4,89;0;0;
7929;0;0;0;0;0;0;1,43;4,99;0;0;
7933;0;0;0;0;0;0;1,28;5,39;0;0;
7936;0;0;0;0;0;0;1,13;5,79;0;0;
7940;0;0;0;0;0;0;0,98;6,19;0;0;
7944;0;0;0;0;0;0;0,83;6,59;0;0;
7949;0;0;0;0;0;0;0,78;7,29;0;0;
7954;0;0;0;0;0;0;0,73;7,99;0;0;
7957;0;0;0;0;0;0;0,78;9,09;0;0;
7961;0;0;0;0;0;0;0,83;10,19;0;0;
7964;0;0;0;0;0;0;0,88;11,29;0;0;
7969;0;0;0;0;0;0;1;12,39;0;0;
7974;0;0;0;0;0;0;1,12;13,49;0;0;
7978;0;0;0;0;0;0;1,34;14,64;0;0;
7981;0;0;0;0;0;0;1,56;15,79;0;0;
7984;0;0;0;0;0;0;1,78;16,94;0;0;
7989;0;0;0;0;0;0;2;18,09;0;0;
7994;0;0;0;0;0;0;2,2;18,84;0;0;
7997;0;0;0;0;0;0;2,4;19,14;0;0;
8001;0;0;0;0;0;0;2,6;19,44;0;0;
8004;0;0;0;0;0;0;2,8;19,74;0;0;
8008;0;0;0;0;0;0;3;20,04;0;0;
8013;0;0;0;0;0;0;3,2;20,04;0;0;
8017;0;0;0;0;0;0;3,4;20,04;0;0;
8021;0;0;0;0;0;0;3,45;19,44;0;0;
8024;0;0;0;0;0;0;3,5;18,84;0;0;
8029;0;0;0;0;0;0;3,55;18,24;0;0;
8034;0;0;0;0;0;0;3,6;17,64;0;0;
8040;0;0;0;0;0;0;3,55;16,64;0;0;
8043;0;0;0;0;0;0;3,48;15,51;0;0;
8046;0;0;0;0;0;0;3,41;14,38;0;0;
8051;0;0;0;0;0;0;3,34;13,25;0;0;
8056;0;0;0;0;0;0;3,27;12,12;0;0;
8061;0;0;0;0;0;0;3,1;10,94;0;0;
8065;0;0;0;0;0;0;2,98;9,79;0;0;
8068;0;0;0;0;0;0;2,86;8,64;0;0;
8071;0;0;0;0;0;0;2,74;7,49;0;0;
8075;0;0;0;0;0;0;2,62;6,34;0;0;
8079;0;0;0;0;0;0;2,5;5,64;0;0;
8083;0;0;0;0;0;0;2,33;5,34;0;0;
8086;0;0;0;0;0;0;2,16;5,04;0;0;
8090;0;0;0;0;0;0;1,99;4,74;0;0;
8095;0;0;0;0;0;0;1,82;4,44;0;0;
8100;0;0;0;0;0;0;1,65;4,14;0;0;
8104;0;0;0;0;0;0;1,65;4,89;0;0;
8107;0;0;0;0;0;0;1,65;5,64;0;0;
8110;0;0;0;0;0;0;1,65;6,39;0;0;
8115;0;0;0;0;0;0;1,65;7,14;0;0;
8120;0;0;0;0;0;0;1,65;7,89;0;0;
8125;0;0;0;0;0;0;1,67;8,77;0;0;
8129;0;0;0;0;0;0;1,69;9,85;0;0;
8132;0;0;0;0;0;0;1,71;10,93;0;0;
8135;0;0;0;0;0;0;1,73;12,01;0;0;
8140;0;0;0;0;0;0;1,75;13,09;0;0;
8144;0;0;0;0;0;0;1,72;14,14;0;0;
8147;0;0;0;0;0;0;1,69;15,14;0;0;
8150;0;0;0;0;0;0;1,66;16,14;0;0;
8154;0;0;0;0;0;0;1,63;17,14;0;0;
8158;0;0;0;0;0;0;1,6;18,14;0;0;
8163;0;0;0;0;0;0;1,62;18,74;0;0;
8167;0;0;0;0;0;0;1,64;18,84;0;0;
8170;0;0;0;0;0;0;1,66;18,94;0;0;
8176;0;0;0;0;0;0;1,68;19,04;0;0;
8180;0;0;0;0;0;0;1,7;19,14;0;0;
8185;0;0;0;0;0;0;1,7;18,79;0;0;
8188;0;0;0;0;0;0;1,63;17,94;0;0;
8191;0;0;0;0;0;0;1,56;17,09;0;0;
8195;0;0;0;0;0;0;1,49;16,24;0;0;
8200;0;0;0;0;0;0;1,42;15,39;0;0;
8204;0;0;0;0;0;0;1,35;14,54;0;0;
8209;0;0;0;0;0;0;1,28;13,49;0;0;
8212;0;0;0;0;0;0;1,21;12,44;0;0;
8216;0;0;0;0;0;0;1,14;11,39;0;0;
8219;0;0;0;0;0;0;1,07;10,34;0;0;
8223;0;0;0;0;0;0;1;9,29;0;0;
8227;0;0;0;0;0;0;0,93;8,29;0;0;
8231;0;0;0;0;0;0;0,91;7,49;0;0;
8234;0;0;0;0;0;0;0,89;6,69;0;0;
8238;0;0;0;0;0;0;0,87;5,89;0;0;
8243;0;0;0;0;0;0;0,85;5,09;0;0;
8247;0;0;0;0;0;0;0,83;4,79;0;0;
8252;0;0;0;0;0;0;0,76;4,84;0;0;
8255;0;0;0;0;0;0;0,69;4,89;0;0;
8259;0;0;0;0;0;0;0,62;4,94;0;0;
8264;0;0;0;0;0;0;0,55;4,99;0;0;
8269;0;0;0;0;0;0;0,55;5,54;0;0;
8273;0;0;0;0;0;0;0,55;6,09;0;0;
8276;0;0;0;0;0;0;0,57;7,04;0;0;
8280;0;0;0;0;0;0;0,59;7,99;0;0;
8283;0;0;0;0;0;0;0,61;8,94;0;0;
8287;0;0;0;0;0;0;0,63;9,89;0;0;
8291;0;0;0;0;0;0;0,65;10,84;0;0;
8295;0;0;0;0;0;0;0,82;12,09;0;0;
8298;0;0;0;0;0;0;0,99;13,34;0;0;
8303;0;0;0;0;0;0;1,16;14,59;0;0;
8309;0;0;0;0;0;0;1,33;15,84;0;0;
8312;0;0;0;0;0;0;1,45;16,89;0;0;
8316;0;0;0;0;0;0;1,62;17,64;0;0;
8319;0;0;0;0;0;0;1,79;18,39;0;0;
8324;0;0;0;0;0;0;1,96;19,14;0;0;
8327;0;0;0;0;0;0;2,13;19,89;0;0;
8332;0;0;0;0;0;0;2,35;20,29;0;0;
8337;0;0;0;0;0;0;2,47;20,14;0;0;
8340;0;0;0;0;0;0;2,59;19,99;0;0;
8344;0;0;0;0;0;0;2,71;19,84;0;0;
8349;0;0;0;0;0;0;2,83;19,69;0;0;
8355;0;0;0;0;0;0;2,95;19,54;0;0;
8359;0;0;0;0;0;0;2,98;18,51;0;0;
8362;0;0;0;0;0;0;3,01;17,48;0;0;
8367;0;0;0;0;0;0;3,04;16,45;0;0;
8371;0;0;0;0;0;0;3,07;15,42;0;0;
8376;0;0;0;0;0;0;3,1;14,39;0;0;
8380;0;0;0;0;0;0;3,08;13,09;0;0;
8383;0;0;0;0;0;0;3,06;11,79;0;0;
8387;0;0;0;0;0;0;3,04;10,49;0;0;
8391;0;0;0;0;0;0;3,02;9,19;0;0;
8396;0;0;0;0;0;0;3;7,89;0;0;
8401;0;0;0;0;0;0;2,88;7,24;0;0;
8405;0;0;0;0;0;0;2,76;6,59;0;0;
8410;0;0;0;0;0;0;2,64;5,94;0;0;
8413;0;0;0;0;0;0;2,52;5,29;0;0;
8417;0;0;0;0;0;0;2,4;4,64;0;0;
8423;0;0;0;0;0;0;2,38;4,54;0;0;
8426;0;0;0;0;0;0;2,26;4,84;0;0;
8429;0;0;0;0;0;0;2,14;5,14;0;0;
8433;0;0;0;0;0;0;2,02;5,44;0;0;
8437;0;0;0;0;0;0;1,9;5,74;0;0;
8441;0;0;0;0;0;0;1,85;6,52;0;0;
8445;0;0;0;0;0;0;1,87;7,7;0;0;
8452;0;0;0;0;0;0;1,89;8,88;0;0;
8455;0;0;0;0;0;0;1,91;10,06;0;0;
8461;0;0;0;0;0;0;1,93;11,24;0;0;
8465;0;0;0;0;0;0;1,9;12,44;0;0;
8468;0;0;0;0;0;0;1,87;13,64;0;0;
8473;0;0;0;0;0;0;1,84;14,84;0;0;
8477;0;0;0;0;0;0;1,81;16,04;0;0;
8483;0;0;0;0;0;0;1,78;17,24;0;0;
8486;0;0;0;0;0;0;1,8;17,69;0;0;
8489;0;0;0;0;0;0;1,82;18,14;0;0;
8493;0;0;0;0;0;0;1,84;18,59;0;0;
8498;0;0;0;0;0;0;1,86;19,04;0;0;
8503;0;0;0;0;0;0;1,88;19,49;0;0;
8508;0;0;0;0;0;0;1,9;19,94;0;0;
8511;0;0;0;0;0;0;1,9;19,44;0;0;
8514;0;0;0;0;0;0;1,9;18,94;0;0;
8517;0;0;0;0;0;0;1,9;18,44;0;0;
8523;0;0;0;0;0;0;1,9;17,94;0;0;
8526;0;0;0;0;0;0;1,9;17,44;0;0;
8530;0;0;0;0;0;0;1,93;16,26;0;0;
8533;0;0;0;0;0;0;1,96;15,08;0;0;
8537;0;0;0;0;0;0;1,99;13,9;0;0;
8542;0;0;0;0;0;0;2,02;12,72;0;0;
8546;0;0;0;0;0;0;2;11,49;0;0;
8550;0;0;0;0;0;0;1,98;10,39;0;0;
8553;0;0;0;0;0;0;1,96;9,29;0;0;
8557;0;0;0;0;0;0;1,94;8,19;0;0;
8561;0;0;0;0;0;0;1,92;7,09;0;0;
8565;0;0;0;0;0;0;1,9;6,39;0;0;
8570;0;0;0;0;0;0;1,88;5,69;0;0;
8573;0;0;0;0;0;0;1,86;5,29;0;0;
8576;0;0;0;0;0;0;1,84;4,89;0;0;
8581;0;0;0;0;0;0;1,82;4,49;0;0;
8586;0;0;0;0;0;0;1,8;4,09;0;0;
8590;0;0;0;0;0;0;1,9;4,24;0;0;
8593;0;0;0;0;0;0;1,9;4,79;0;0;
8596;0;0;0;0;0;0;1,9;5,34;0;0;
8601;0;0;0;0;0;0;1,9;5,89;0;0;
8607;0;0;0;0;0;0;1,9;6,44;0;0;
8610;0;0;0;0;0;0;1,8;7,27;0;0;
8614;0;0;0;0;0;0;1,77;8,35;0;0;
8618;0;0;0;0;0;0;1,74;9,43;0;0;
8622;0;0;0;0;0;0;1,71;10,51;0;0;
8626;0;0;0;0;0;0;1,68;11,59;0;0;
8631;0;0;0;0;0;0;1,65;12,54;0;0;
8635;0;0;0;0;0;0;1,72;13,54;0;0;
8638;0;0;0;0;0;0;1,79;14,54;0;0;
8642;0;0;0;0;0;0;1,86;15,54;0;0;
8647;0;0;0;0;0;0;1,93;16,54;0;0;
8652;0;0;0;0;0;0;2;17,54;0;0;
8657;0;0;0;0;0;0;2,07;18,24;0;0;
8661;0;0;0;0;0;0;2,09;18,49;0;0;
8664;0;0;0;0;0;0;2,11;18,74;0;0;
8667;0;0;0;0;0;0;2,13;18,99;0;0;
8672;0;0;0;0;0;0;2,15;19,24;0;0;
8677;0;0;0;0;0;0;2,27;19,09;0;0;
8680;0;0;0;0;0;0;2,27;18,34;0;0;
8684;0;0;0;0;0;0;2,27;17,59;0;0;
8687;0;0;0;0;0;0;2,27;16,84;0;0;
8692;0;0;0;0;0;0;2,27;16,09;0;0;
8697;0;0;0;0;0;0;2,2;15,09;0;0;
8700;0;0;0;0;0;0;2,23;14,06;0;0;
8704;0;0;0;0;0;0;2,26;13,03;0;0;
8707;0;0;0;0;0;0;2,29;12;0;0;
8712;0;0;0;0;0;0;2,32;10,97;0;0;
8716;0;0;0;0;0;0;2,25;9,89;0;0;
8722;0;0;0;0;0;0;2,18;8,81;0;0;
8725;0;0;0;0;0;0;2,16;7,81;0;0;
8728;0;0;0;0;0;0;2,14;6,81;0;0;
8732;0;0;0;0;0;0;2,12;5,81;0;0;
8737;0;0;0;0;0;0;2,1;4,81;0;0;
8742;0;0;0;0;0;0;2,13;4,26;0;0;
8745;0;0;0;0;0;0;2,11;4,11;0;0;
8748;0;0;0;0;0;0;2,09;3,96;0;0;
8752;0;0;0;0;0;0;2,07;3,81;0;0;
8756;0;0;0;0;0;0;2,05;3,66;0;0;
8761;0;0;0;0;0;0;2,15;4,11;0;0;
8765;0;0;0;0;0;0;2,17;4,96;0;0;
8768;0;0;0;0;0;0;2,19;5,81;0;0;
8771;0;0;0;0;0;0;2,21;6,66;0;0;
8776;0;0;0;0;0;0;2,23;7,51;0;0;
8781;0;0;0;0;0;0;2,15;8,39;0;0;
8785;0;0;0;0;0;0;2,12;9,62;0;0;
8788;0;0;0;0;0;0;2,09;10,85;0;0;
8791;0;0;0;0;0;0;2,06;12,08;0;0;
8796;0;0;0;0;0;0;2,03;13,31;0;0;
8801;0;0;0;0;0;0;2;14,54;0;0;
8806;0;0;0;0;0;0;2,02;15,54;0;0;
8809;0;0;0;0;0;0;2,04;16,54;0;0;
8814;0;0;0;0;0;0;2,06;17,54;0;0;
8819;0;0;0;0;0;0;2,08;18,54;0;0;
8824;0;0;0;0;0;0;2,1;19,54;0;0;
8827;0;0;0;0;0;0;2,07;19,59;0;0;
8830;0;0;0;0;0;0;2,04;19,64;0;0;
8834;0;0;0;0;0;0;2,01;19,69;0;0;
8840;0;0;0;0;0;0;1,98;19,74;0;0;
8843;0;0;0;0;0;0;1,95;19,79;0;0;
8847;0;0;0;0;0;0;2;19,44;0;0;
8850;0;0;0;0;0;0;2,03;18,59;0;0;
8853;0;0;0;0;0;0;2,06;17,74;0;0;
8861;0;0;0;0;0;0;2,09;16,89;0;0;
8865;0;0;0;0;0;0;2,12;16,04;0;0;
8870;0;0;0;0;0;0;2,15;14,79;0;0;
8873;0;0;0;0;0;0;2,18;13,54;0;0;
8877;0;0;0;0;0;0;2,21;12,29;0;0;
8882;0;0;0;0;0;0;2,24;11,04;0;1;
8887;0;0;0;0;0;0;2,27;9,79;0;1;
8891;0;0;0;0;0;0;2,2;8,94;0;1;
8894;0;0;0;0;0;0;2,13;8,09;0;1;
8898;0;0;0;0;0;0;2,06;7,24;0;1;
8903;0;0;0;0;0;0;1,99;6,39;0;1;
8908;0;0;0;0;0;0;1,92;5,54;0;1;
8912;0;0;0;0;0;0;1,85;5,59;0;1;
8915;0;0;0;0;0;0;1,78;5,64;0;1;
8919;0;0;0;0;0;0;1,71;5,69;0;1;
8923;0;0;0;0;0;0;1,64;5,74;0;1;
8927;0;0;0;0;0;0;1,57;5,79;0;1;
8932;0;0;0;0;0;0;1,5;5,84;0;1;
8936;0;0;0;0;0;0;1,52;6,84;0;1;
8940;0;0;0;0;0;0;1,54;7,84;0;1;
8945;0;0;0;0;0;0;1,56;8,84;0;1;
8949;0;0;0;0;0;0;1,58;9,84;0;1;
8954;0;0;0;0;0;0;1,55;10,89;0;1;
8958;0;0;0;0;0;0;1,57;11,64;0;1;
8961;0;0;0;0;0;0;1,59;12,39;0;1;
8964;0;0;0;0;0;0;1,61;13,14;0;1;
8969;0;0;0;0;0;0;1,63;13,89;0;1;
8974;0;0;0;0;0;0;1,65;14,39;0;1;
8977;0;0;0;0;0;0;4,55;14,56;0;1;
8980;0;0;0;0;0;0;7,45;14,73;0;1;
8985;0;0;0;0;0;0;10,35;14,9;0;1;
8989;0;0;0;0;0;0;13,25;15,07;0;1;
8994;0;0;0;0;0;0;16,25;14,89;0;1;
8997;0;0;0;0;0;0;23,15;15,34;0;1;
9001;0;0;0;0;0;0;30,05;15,79;0;1;
9004;0;0;0;0;0;0;36,95;16,24;0;1;
9009;0;0;0;0;0;0;43,85;16,69;0;1;
9014;0;0;0;0;0;0;50,75;17,14;0;1;
9019;0;0;0;0;0;0;57,43;16,74;0;1;
9022;0;0;0;0;0;0;64,11;16,34;0;1;
9027;0;0;0;0;0;0;70,79;15,94;0;1;
9032;0;0;0;0;0;0;77,47;15,54;0;1;
9037;0;0;0;0;0;0;84,15;15,14;0;1;
9040;0;0;0;0;0;0;92,08;14,61;0;1;
9044;0;0;0;0;0;0;100,01;14,09;0;1;
9049;0;0;0;0;0;0;107,94;13,56;0;1;
9054;0;0;0;0;0;0;115,87;13,03;0;1;
9057;0;0;0;0;0;0;123,8;12,5;0;1;
9061;0;0;0;0;0;0;128,1;14,03;0;1;
9064;0;0;0;0;0;0;132,4;15,56;0;1;
9069;0;0;0;0;0;0;136,7;17,09;0;1;
9073;0;0;0;0;0;0;141;18,61;0;1;
9078;0;0;0;0;0;0;145,3;20,14;0;1;
9082;0;0;0;0;0;0;145,05;20,99;0;1;
9085;0;0;0;0;0;0;144,8;21,84;0;1;
9088;0;0;0;0;0;0;144,55;22,69;0;1;
9093;0;0;0;0;0;0;144,3;23,54;0;1;
9098;0;0;0;0;0;0;144,05;24,39;0;1;
9103;0;0;0;0;0;0;143,95;25,64;0;1;
9106;0;0;0;0;0;0;142,8;27,19;0;1;
9110;0;0;0;0;0;0;141,65;28,74;0;1;
9113;0;0;0;0;0;0;140,5;30,29;0;1;
9117;0;0;0;0;0;0;139,35;31,84;0;1;
9121;0;0;0;0;0;0;136,9;33,82;0;1;
9125;0;0;0;0;0;0;133,25;35,55;0;1;
9129;0;0;0;0;0;0;129,6;37,28;0;1;
9135;0;0;0;0;0;0;125,95;39,01;0;1;
9140;0;0;0;0;0;0;122,3;40,74;0;1;
9144;0;0;0;0;0;0;119,4;40,74;0;1;
9148;0;0;0;0;0;0;116,45;40,54;0;1;
9151;0;0;0;0;0;0;113,5;40,34;0;1;
9154;0;0;0;0;0;0;110,55;40,14;0;1;
9157;0;0;0;0;0;0;107,6;39,94;0;1;
9161;0;0;0;0;0;0;105,3;39,79;0;1;
9165;0;0;0;0;0;0;103;39,64;0;1;
9169;0;0;0;0;0;0;100,9;38,44;0;1;
9172;0;0;0;0;0;0;98,8;37,24;0;1;
9176;0;0;0;0;0;0;96,7;36,04;0;1;
9180;0;0;0;0;0;0;94,6;34,84;0;1;
9185;0;0;0;0;0;0;93,55;33,34;0;1;
9189;0;0;0;0;0;0;91,3;31,79;0;1;
9192;0;0;0;0;0;0;89,05;30,24;0;1;
9197;0;0;0;0;0;0;86,8;28,69;0;1;
9202;0;0;0;0;0;0;84,55;27,14;0;1;
9206;0;0;0;0;0;0;83,5;25,84;0;1;
9210;0;0;0;0;0;0;82,45;24,54;0;1;
9213;0;0;0;0;0;0;81;23,84;0;1;
9216;0;0;0;0;0;0;79,55;23,14;0;1;
9221;0;0;0;0;0;0;78,1;22,44;0;1;
9226;0;0;0;0;0;0;76,7;21,94;0;1;
9231;0;0;0;0;0;0;75,3;21,44;0;1;
9239;0;0;0;0;0;0;73,4;20,34;0;1;
9242;0;0;0;0;0;0;71,5;19,24;0;0;
9247;0;0;0;0;0;0;69,6;18,14;0;0;
9250;0;0;0;0;0;0;67,7;17,04;0;0;
9254;0;0;0;0;0;0;65,7;17,34;0;0;
9257;0;0;0;0;0;0;63,7;17,64;0;0;
9260;0;0;0;0;0;0;61,7;17,94;0;0;
9265;0;0;0;0;0;0;59,7;18,24;0;0;
9269;0;0;0;0;0;0;57,7;18,54;0;0;
9275;0;0;0;0;0;0;56,9;18,89;0;0;
9278;0;0;0;0;0;0;55,85;19,64;0;0;
9281;0;0;0;0;0;0;54,8;20,39;0;0;
9285;0;0;0;0;0;0;53,75;21,14;0;0;
9289;0;0;0;0;0;0;52,7;21,89;0;0;
9294;0;0;0;0;0;0;51,65;22,64;0;0;
9297;0;0;0;0;0;0;50,15;22,79;0;0;
9301;0;0;0;0;0;0;48,65;22,94;0;0;
9305;0;0;0;0;0;0;47,15;23,09;0;0;
9309;0;0;0;0;0;0;45,65;23,24;0;0;
9314;0;0;0;0;0;0;44,15;23,39;0;0;
9317;0;0;0;0;0;0;42,8;23,69;0;0;
9321;0;0;0;0;0;0;41,45;23,99;0;0;
9325;0;0;0;0;0;0;40,1;24,29;0;0;
9330;0;0;0;0;0;0;38,75;24,59;0;0;
9334;0;0;0;0;0;0;37,3;24,54;0;0;
9338;0;0;0;0;0;0;35,7;23,84;0;0;
9341;0;0;0;0;0;0;34,1;23,14;0;0;
9345;0;0;0;0;0;0;32,5;22,44;0;0;
9350;0;0;0;0;0;0;30,9;21,74;0;0;
9355;0;0;0;0;0;0;29,3;21,04;0;0;
9359;0;0;0;0;0;0;27,85;19,84;0;0;
9362;0;0;0;0;0;0;26,4;18,64;0;0;
9367;0;0;0;0;0;0;24,95;17,44;0;0;
9371;0;0;0;0;0;0;23,5;16,24;0;0;
9376;0;0;0;0;0;0;22,05;15,04;0;0;
9380;0;0;0;0;0;0;21,8;14,24;0;0;
9383;0;0;0;0;0;0;21,55;13,44;0;0;
9387;0;0;0;0;0;0;21,3;12,64;0;0;
9392;0;0;0;0;0;0;21,05;11,84;0;0;
9397;0;0;0;0;0;0;20,8;11,04;0;0;
9402;0;0;0;0;0;0;20,6;11,24;0;0;
9405;0;0;0;0;0;0;20,4;11,44;0;0;
9410;0;0;0;0;0;0;20,2;11,64;0;0;
9415;0;0;0;0;0;0;20;11,84;0;0;
9421;0;0;0;0;0;0;19,8;12,04;0;0;
9425;0;0;0;0;0;0;19,65;13,39;0;0;
9428;0;0;0;0;0;0;19,5;14,74;0;0;
9433;0;0;0;0;0;0;19,35;16,09;0;0;
9439;0;0;0;0;0;0;19,2;17,44;0;0;
9443;0;0;0;0;0;0;19,05;18,79;0;0;
9447;0;0;0;0;0;0;18,75;20,69;0;0;
9450;0;0;0;0;0;0;18,45;22,59;0;0;
9454;0;0;0;0;0;0;18,15;24,49;0;0;
9459;0;0;0;0;0;0;17,85;26,39;0;0;
9465;0;0;0;0;0;0;17,55;28,29;0;0;
9468;0;0;0;0;0;0;16,6;29,54;0;0;
9471;0;0;0;0;0;0;15,65;30,79;0;0;
9475;0;0;0;0;0;0;14,7;32,04;0;0;
9480;0;0;0;0;0;0;13,75;33,29;0;0;
9485;0;0;0;0;0;0;12,8;34,54;0;0;
9489;0;0;0;0;0;0;12,05;34,64;0;0;
9492;0;0;0;0;0;0;11,3;34,74;0;0;
9495;0;0;0;0;0;0;10,55;34,84;0;0;
9500;0;0;0;0;0;0;9,8;34,94;0;0;
9506;0;0;0;0;0;0;9,05;35,04;0;0;
9509;0;0;0;0;0;0;8,5;34,09;0;0;
9512;0;0;0;0;0;0;7,95;33,14;0;0;
9515;0;0;0;0;0;0;7,4;32,19;0;0;
9520;0;0;0;0;0;0;6,85;31,24;0;0;
9526;0;0;0;0;0;0;6,3;30,29;0;0;
9529;0;0;0;0;0;0;6;28,59;0;0;
9532;0;0;0;0;0;0;5,7;26,89;0;0;
9537;0;0;0;0;0;0;5,4;25,19;0;0;
9542;0;0;0;0;0;0;5,1;23,49;0;0;
9547;0;0;0;0;0;0;4,8;21,79;0;0;
9551;0;0;0;0;0;0;4,8;20,44;0;0;
9554;0;0;0;0;0;0;4,8;19,09;0;0;
9558;0;0;0;0;0;0;4,8;17,74;0;0;
9562;0;0;0;0;0;0;4,8;16,39;0;0;
9567;0;0;0;0;0;0;4,8;15,04;0;0;
9572;0;0;0;0;0;0;4,75;14,54;0;0;
9576;0;0;0;0;0;0;4,7;14,04;0;0;
9579;0;0;0;0;0;0;4,65;13,54;0;0;
9584;0;0;0;0;0;0;4,6;13,04;0;0;
9589;0;0;0;0;0;0;4,55;12,54;0;0;
9593;0;0;0;0;0;0;4,3;12,84;0;0;
9596;0;0;0;0;0;0;4,05;13,14;0;0;
9601;0;0;0;0;0;0;3,8;13,44;0;0;
9606;0;0;0;0;0;0;3,55;13,74;0;0;
9610;0;0;0;0;0;0;3,3;14,04;0;0;
9615;0;0;0;0;0;0;3,05;14,64;0;0;
9618;0;0;0;0;0;0;2,87;15,29;0;0;
9622;0;0;0;0;0;0;2,69;15,94;0;0;
9625;0;0;0;0;0;0;2,51;16,59;0;0;
9629;0;0;0;0;0;0;2,33;17,24;0;0;
9634;0;0;0;0;0;0;2,15;17,79;0;0;
9637;0;0;0;0;0;0;1,92;17,89;0;0;
9641;0;0;0;0;0;0;1,69;17,99;0;0;
9645;0;0;0;0;0;0;1,46;18,09;0;0;
9650;0;0;0;0;0;0;1,23;18,19;0;0;
9654;0;0;0;0;0;0;1,15;18,04;0;0;
9657;0;0;0;0;0;0;1,1;17,31;0;0;
9661;0;0;0;0;0;0;1,05;16,58;0;0;
9665;0;0;0;0;0;0;1;15,85;0;0;
9670;0;0;0;0;0;0;0,95;15,12;0;0;
9675;0;0;0;0;0;0;1;14,14;0;0;
9679;0;0;0;0;0;0;1,15;13,51;0;0;
9682;0;0;0;0;0;0;1,3;12,89;0;0;
9686;0;0;0;0;0;0;1,45;12,26;0;0;
9690;0;0;0;0;0;0;1,6;11,63;0;0;
9695;0;0;0;0;0;0;1,75;11;0;0;
9699;0;0;0;0;0;0;1,83;10,32;0;0;
9703;0;0;0;0;0;0;1,91;9,44;0;0;
9706;0;0;0;0;0;0;1,99;8,56;0;0;
9710;0;0;0;0;0;0;2,07;7,69;0;0;
9715;0;0;0;0;0;0;2,15;6,81;0;0;
9720;0;0;0;0;0;0;2,28;6,38;0;0;
9724;0;0;0;0;0;0;2,36;5,83;0;0;
9727;0;0;0;0;0;0;2,44;5,28;0;0;
9731;0;0;0;0;0;0;2,52;4,73;0;0;
9736;0;0;0;0;0;0;2,6;4,18;0;0;
9739;0;0;0;0;0;0;2,65;4,21;0;0;
9743;0;0;0;0;0;0;2,65;4,69;0;0;
9747;0;0;0;0;0;0;2,65;5,16;0;0;
9750;0;0;0;0;0;0;2,65;5,64;0;0;
9755;0;0;0;0;0;0;2,65;6,12;0;0;
9761;0;0;0;0;0;0;2,55;6,25;0;0;
9764;0;0;0;0;0;0;2,52;6,73;0;0;
9767;0;0;0;0;0;0;2,49;7,21;0;0;
9772;0;0;0;0;0;0;2,46;7,69;0;0;
9776;0;0;0;0;0;0;2,43;8,16;0;0;
9781;0;0;0;0;0;0;2,4;8,64;0;0;
9785;0;0;0;0;0;0;2,42;9,32;0;0;
9788;0;0;0;0;0;0;2,44;10;0;0;
9793;0;0;0;0;0;0;2,46;10,68;0;0;
9798;0;0;0;0;0;0;2,48;11,36;0;0;
9803;0;0;0;0;0;0;2,5;12,04;0;0;
9807;0;0;0;0;0;0;2,47;12,39;0;0;
9810;0;0;0;0;0;0;2,44;12,74;0;0;
9814;0;0;0;0;0;0;2,41;13,09;0;0;
9819;0;0;0;0;0;0;2,38;13,44;0;0;
9825;0;0;0;0;0;0;2,35;13,79;0;0;
9828;0;0;0;0;0;0;2,32;13,41;0;0;
9831;0;0;0;0;0;0;2,29;13,03;0;0;
9835;0;0;0;0;0;0;2,26;12,65;0;0;
9841;0;0;0;0;0;0;2,23;12,27;0;0;
9846;0;0;0;0;0;0;2,2;11,89;0;0;
9849;0;0;0;0;0;0;2,13;11,26;0;0;
9852;0;0;0;0;0;0;2,06;10,64;0;0;
9857;0;0;0;0;0;0;1,99;10,01;0;0;
9862;0;0;0;0;0;0;1,92;9,38;0;0;
9866;0;0;0;0;0;0;1,85;8,75;0;0;
9871;0;0;0;0;0;0;1,78;7,92;0;0;
9874;0;0;0;0;0;0;1,71;7,09;0;0;
9877;0;0;0;0;0;0;1,64;6,26;0;0;
9882;0;0;0;0;0;0;1,57;5,44;0;0;
9888;0;0;0;0;0;0;1,5;4,61;0;0;
9891;0;0;0;0;0;0;1,53;4,23;0;0;
9895;0;0;0;0;0;0;1,51;4,13;0;0;
9898;0;0;0;0;0;0;1,49;4,03;0;0;
9902;0;0;0;0;0;0;1,47;3,93;0;0;
9907;0;0;0;0;0;0;1,45;3,83;0;0;
9911;0;0;0;0;0;0;1,48;4,01;0;0;
9914;0;0;0;0;0;0;1,58;4,69;0;0;
9918;0;0;0;0;0;0;1,68;5,36;0;0;
9921;0;0;0;0;0;0;1,78;6,04;0;0;
9926;0;0;0;0;0;0;1,88;6,72;0;0;
9932;0;0;0;0;0;0;1,95;7,3;0;0;
9935;0;0;0;0;0;0;2,07;8,23;0;0;
9939;0;0;0;0;0;0;2,19;9,16;0;0;
9943;0;0;0;0;0;0;2,31;10,09;0;0;
9948;0;0;0;0;0;0;2,43;11,01;0;0;
9953;0;0;0;0;0;0;2,5;12,14;0;0;
9956;0;0;0;0;0;0;2,57;13,07;0;0;
9960;0;0;0;0;0;0;2,64;14;0;0;
9964;0;0;0;0;0;0;2,71;14,93;0;0;
9968;0;0;0;0;0;0;2,78;15,86;0;0;
9973;0;0;0;0;0;0;2,85;16,79;0;0;
9977;0;0;0;0;0;0;2,82;16,94;0;0;
9980;0;0;0;0;0;0;2,79;17,09;0;0;
9985;0;0;0;0;0;0;2,76;17,24;0;0;
9990;0;0;0;0;0;0;2,73;17,39;0;0;
9994;0;0;0;0;0;0;2,7;17,54;0;0;
9997;0;0;0;0;0;0;2,6;17,19;0;0;
10001;0;0;0;0;0;0;2,53;16,41;0;0;
10004;0;0;0;0;0;0;2,46;15,63;0;0;
10007;0;0;0;0;0;0;2,39;14,85;0;0;
10012;0;0;0;0;0;0;2,32;14,07;0;0;
10017;0;0;0;0;0;0;2,2;12,94;0;0;
10020;0;0;0;0;0;0;2,13;11,81;0;0;
10024;0;0;0;0;0;0;2,06;10,69;0;0;
10028;0;0;0;0;0;0;1,99;9,56;0;0;
10033;0;0;0;0;0;0;1,92;8,43;0;0;
10041;0;0;0;0;0;0;1,85;7,68;0;0;
10044;0;0;0;0;0;0;1,78;6,93;0;0;
10048;0;0;0;0;0;0;1,71;6,18;0;0;
10053;0;0;0;0;0;0;1,64;5,43;0;0;
10059;0;0;0;0;0;0;1,57;4,68;0;0;
10062;0;0;0;0;0;0;1,65;4,83;0;0;
10065;0;0;0;0;0;0;1,73;4,98;0;0;
10070;0;0;0;0;0;0;1,81;5,13;0;0;
10074;0;0;0;0;0;0;1,89;5,28;0;0;
10079;0;0;0;0;0;0;1,97;5,43;0;0;
10083;0;0;0;0;0;0;1,97;5,93;0;0;
10086;0;0;0;0;0;0;1,94;6,86;0;0;
10090;0;0;0;0;0;0;1,91;7,79;0;0;
10094;0;0;0;0;0;0;1,88;8,71;0;0;
10098;0;0;0;0;0;0;1,85;9,64;0;0;
10104;0;0;0;0;0;0;1,82;10,57;0;0;
10107;0;0;0;0;0;0;1,79;11,75;0;0;
10110;0;0;0;0;0;0;1,76;12,93;0;0;
10114;0;0;0;0;0;0;1,73;14,11;0;0;
10119;0;0;0;0;0;0;1,7;15,29;0;0;
10125;0;0;0;0;0;0;1,67;16,29;0;0;
10128;0;0;0;0;0;0;1,74;16,99;0;0;
10131;0;0;0;0;0;0;1,81;17,69;0;0;
10135;0;0;0;0;0;0;1,88;18,39;0;0;
10138;0;0;0;0;0;0;1,95;19,09;0;0;
10142;0;0;0;0;0;0;2,02;19,39;0;0;
10147;0;0;0;0;0;0;2,09;19,69;0;0;
10150;0;0;0;0;0;0;2,06;19,44;0;0;
10154;0;0;0;0;0;0;2,03;19,19;0;0;
10157;0;0;0;0;0;0;2;18,94;0;0;
10163;0;0;0;0;0;0;2,05;18,34;0;0;
10168;0;0;0;0;0;0;2,1;17,74;0;0;
10171;0;0;0;0;0;0;2,13;16,81;0;0;
10174;0;0;0;0;0;0;2,16;15,88;0;0;
10178;0;0;0;0;0;0;2,19;14,95;0;0;
10183;0;0;0;0;0;0;2,22;14,02;0;0;
10189;0;0;0;0;0;0;2,2;12,84;0;0;
10192;0;0;0;0;0;0;2,28;11,61;0;0;
10195;0;0;0;0;0;0;2,36;10,39;0;0;
10198;0;0;0;0;0;0;2,44;9,16;0;0;
10201;0;0;0;0;0;0;2,52;7,93;0;0;
10206;0;0;0;0;0;0;2,5;7;0;0;
10211;0;0;0;0;0;0;2,38;6,35;0;0;
10215;0;0;0;0;0;0;2,26;5,7;0;0;
10219;0;0;0;0;0;0;2,14;5,05;0;0;
10224;0;0;0;0;0;0;2,02;4,4;0;0;
10230;0;0;0;0;0;0;1,9;3,75;0;0;
10233;0;0;0;0;0;0;1,85;4,05;0;0;
10236;0;0;0;0;0;0;1,8;4,35;0;0;
10240;0;0;0;0;0;0;1,75;4,65;0;0;
10244;0;0;0;0;0;0;1,7;4,95;0;0;
10249;0;0;0;0;0;0;1,65;5,25;0;0;
10253;0;0;0;0;0;0;1,72;6,23;0;0;
10256;0;0;0;0;0;0;1,79;7,21;0;0;
10261;0;0;0;0;0;0;1,86;8,19;0;0;
10266;0;0;0;0;0;0;1,93;9,16;0;0;
10270;0;0;0;0;0;0;2;10,14;0;0;
10275;0;0;0;0;0;0;1,97;11,27;0;0;
10278;0;0;0;0;0;0;1,94;12,4;0;0;
10282;0;0;0;0;0;0;1,91;13,53;0;0;
10287;0;0;0;0;0;0;1,88;14,66;0;0;
10292;0;0;0;0;0;0;1,85;15,79;0;0;
10296;0;0;0;0;0;0;1,97;16,34;0;0;
10299;0;0;0;0;0;0;2,09;16,89;0;0;
10304;0;0;0;0;0;0;2,21;17,44;0;0;
10308;0;0;0;0;0;0;2,33;17,99;0;0;
10313;0;0;0;0;0;0;2,45;18,54;0;0;
10317;0;0;0;0;0;0;2,5;18,14;0;0;
10320;0;0;0;0;0;0;2,55;17,74;0;0;
10325;0;0;0;0;0;0;2,6;17,34;0;0;
10330;0;0;0;0;0;0;2,65;16,94;0;0;
10335;0;0;0;0;0;0;2,7;16,54;0;0;
10338;0;0;0;0;0;0;2,63;15,56;0;0;
10342;0;0;0;0;0;0;2,56;14,58;0;0;
10345;0;0;0;0;0;0;2,49;13,6;0;0;
10350;0;0;0;0;0;0;2,42;12,62;0;0;
10355;0;0;0;0;0;0;2,35;11,64;0;0;
10360;0;0;0;0;0;0;2,43;10,59;0;0;
10363;0;0;0;0;0;0;2,51;9,54;0;0;
10367;0;0;0;0;0;0;2,59;8,49;0;0;
10371;0;0;0;0;0;0;2,67;7,44;0;0;
10375;0;0;0;0;0;0;2,75;6,39;0;0;
10380;0;0;0;0;0;0;2,78;5,64;0;0;
10383;0;0;0;0;0;0;2,71;5,24;0;0;
10386;0;0;0;0;0;0;2,64;4,84;0;0;
10390;0;0;0;0;0;0;2,57;4,44;0;0;
10395;0;0;0;0;0;0;2,5;4,04;0;0;
10400;0;0;0;0;0;0;2,53;4,19;0;0;
10404;0;0;0;0;0;0;2,48;4,74;0;0;
10407;0;0;0;0;0;0;2,43;5,29;0;0;
10412;0;0;0;0;0;0;2,38;5,84;0;0;
10417;0;0;0;0;0;0;2,33;6,39;0;0;
10422;0;0;0;0;0;0;2,3;7,17;0;0;
10426;0;0;0;0;0;0;2,42;8,35;0;0;
10429;0;0;0;0;0;0;2,54;9,53;0;0;
10433;0;0;0;0;0;0;2,66;10,71;0;0;
10439;0;0;0;0;0;0;2,78;11,89;0;0;
10445;0;0;0;0;0;0;2,75;13,04;0;0;
10448;0;0;0;0;0;0;2,87;14,14;0;0;
10451;0;0;0;0;0;0;2,99;15,24;0;0;
10455;0;0;0;0;0;0;3,11;16,34;0;0;
10460;0;0;0;0;0;0;3,23;17,44;0;0;
10466;0;0;0;0;0;0;3,35;18,54;0;0;
10473;0;0;0;0;0;0;3,42;18,69;0;0;
10476;0;0;0;0;0;0;3,49;18,84;0;0;
10480;0;0;0;0;0;0;3,56;18,99;0;0;
10485;0;0;0;0;0;0;3,63;19,14;0;0;
10488;0;0;0;0;0;0;3,65;18,74;0;0;
10492;0;0;0;0;0;0;3,75;17,94;0;0;
10496;0;0;0;0;0;0;3,85;17,14;0;0;
10500;0;0;0;0;0;0;3,95;16,34;0;0;
10506;0;0;0;0;0;0;4,05;15,54;0;0;
10509;0;0;0;0;0;0;4,1;14,76;0;0;
10512;0;0;0;0;0;0;4;13,58;0;0;
10517;0;0;0;0;0;0;3,9;12,4;0;0;
10522;0;0;0;0;0;0;3,8;11,22;0;0;
10527;0;0;0;0;0;0;3,7;10,04;0;0;
10530;0;0;0;0;0;0;3,55;8,94;0;0;
10534;0;0;0;0;0;0;3,25;7,89;0;0;
10538;0;0;0;0;0;0;2,95;6,84;0;0;
10543;0;0;0;0;0;0;2,65;5,79;0;0;
10548;0;0;0;0;0;0;2,35;4,74;0;0;
10551;0;0;0;0;0;0;2,05;4,04;0;0;
10555;0;0;0;0;0;0;1,9;3,94;0;0;
10558;0;0;0;0;0;0;1,75;3,84;0;0;
10563;0;0;0;0;0;0;1,6;3,74;0;0;
10567;0;0;0;0;0;0;1,45;3,64;0;0;
10571;0;0;0;0;0;0;1,35;4,09;0;0;
10575;0;0;0;0;0;0;1,35;4,94;0;0;
10578;0;0;0;0;0;0;1,35;5,79;0;0;
10581;0;0;0;0;0;0;1,35;6,64;0;0;
10586;0;0;0;0;0;0;1,35;7,49;0;0;
10591;0;0;0;0;0;0;1,4;8,32;0;0;
10594;0;0;0;0;0;0;1,6;9,5;0;0;
10597;0;0;0;0;0;0;1,8;10,68;0;0;
10601;0;0;0;0;0;0;2;11,86;0;0;
10605;0;0;0;0;0;0;2,2;13,04;0;0;
10610;0;0;0;0;0;0;2,45;14,14;0;0;
10615;0;0;0;0;0;0;2,7;15,24;0;0;
10618;0;0;0;0;0;0;3;16,09;0;0;
10622;0;0;0;0;0;0;3,3;16,94;0;0;
10626;0;0;0;0;0;0;3,6;17,79;0;0;
10630;0;0;0;0;0;0;3,9;18,29;0;0;
10635;0;0;0;0;0;0;4,2;18,79;0;0;
10638;0;0;0;0;0;0;4,4;18,74;0;0;
10642;0;0;0;0;0;0;4,6;18,69;0;0;
10646;0;0;0;0;0;0;4,8;18,64;0;0;
10651;0;0;0;0;0;0;5;18,59;0;0;
10656;0;0;0;0;0;0;5,1;18,14;0;0;
10660;0;0;0;0;0;0;5;17,31;0;0;
10663;0;0;0;0;0;0;4,9;16,48;0;0;
10667;0;0;0;0;0;0;4,8;15,65;0;0;
10672;0;0;0;0;0;0;4,7;14,82;0;0;
10677;0;0;0;0;0;0;4,45;13,64;0;0;
10681;0;0;0;0;0;0;4,38;12,46;0;0;
10684;0;0;0;0;0;0;4,31;11,29;0;0;
10688;0;0;0;0;0;0;4,24;10,11;0;0;
10693;0;0;0;0;0;0;4,17;8,93;0;0;
10698;0;0;0;0;0;0;4,1;7,75;0;0;
10702;0;0;0;0;0;0;4,03;6,95;0;1;
10704;0;0;0;0;0;0;3,96;6,15;0;1;
10707;0;0;0;0;0;0;3,89;5,35;0;1;
10712;0;0;0;0;0;0;3,82;4,55;0;1;
10717;0;0;0;0;0;0;3,75;3,75;0;1;
10722;0;0;0;0;0;0;5,43;3,42;0;1;
10725;0;0;0;0;0;0;7,11;3,09;0;1;
10730;0;0;0;0;0;0;8,79;2,76;0;1;
10735;0;0;0;0;0;0;10,47;2,44;0;1;
10741;0;0;0;0;0;0;12,15;2,11;0;1;
10744;0;0;0;0;0;0;16,03;4,61;0;1;
10747;0;0;0;0;0;0;19,91;7,11;0;1;
10752;0;0;0;0;0;0;23,79;9,61;0;1;
10758;0;0;0;0;0;0;27,67;12,11;0;1;
10761;0;0;0;0;0;0;31,55;14,61;0;1;
10765;0;0;0;0;0;0;34,85;15,51;0;1;
10768;0;0;0;0;0;0;38,15;16,41;0;1;
10773;0;0;0;0;0;0;41,45;17,31;0;1;
10777;0;0;0;0;0;0;44,75;18,21;0;1;
10782;0;0;0;0;0;0;48,05;19,11;0;1;
10786;0;0;0;0;0;0;50,85;19,73;0;1;
10789;0;0;0;0;0;0;53,65;20,35;0;1;
10793;0;0;0;0;0;0;56,45;20,97;0;1;
10797;0;0;0;0;0;0;59,25;21,59;0;1;
10802;0;0;0;0;0;0;62,05;22,21;0;1;
10808;0;0;0;0;0;0;63,2;22,91;0;1;
10811;0;0;0;0;0;0;64,35;23,91;0;1;
10814;0;0;0;0;0;0;65,5;24,91;0;1;
10818;0;0;0;0;0;0;66,65;25,91;0;1;
10823;0;0;0;0;0;0;67,8;26,91;0;1;
10828;0;0;0;0;0;0;66,95;25,46;0;1;
10832;0;0;0;0;0;0;65,45;23,81;0;1;
10835;0;0;0;0;0;0;63,95;22,16;0;1;
10843;0;0;0;0;0;0;62,45;20,51;0;1;
10848;0;0;0;0;0;0;60,95;18,86;0;1;
10852;0;0;0;0;0;0;59,35;18,41;0;1;
10855;0;0;0;0;0;0;57,75;17,96;0;1;
10860;0;0;0;0;0;0;56,15;17,51;0;1;
10865;0;0;0;0;0;0;54,55;17,06;0;1;
10870;0;0;0;0;0;0;52,95;16,61;0;1;
10873;0;0;0;0;0;0;51,2;16,01;0;1;
10876;0;0;0;0;0;0;49,45;15,41;0;1;
10882;0;0;0;0;0;0;47,7;14,81;0;1;
10886;0;0;0;0;0;0;45,95;14,21;0;1;
10891;0;0;0;0;0;0;44,2;13,61;0;1;
10894;0;0;0;0;0;0;42,05;13,24;0;1;
10897;0;0;0;0;0;0;39,9;12,57;0;1;
10901;0;0;0;0;0;0;37,75;11,9;0;1;
10906;0;0;0;0;0;0;35,6;11,23;0;1;
10911;0;0;0;0;0;0;33,45;10,56;0;1;
10914;0;0;0;0;0;0;31,05;10,34;0;1;
10917;0;0;0;0;0;0;29,3;10,31;0;1;
10922;0;0;0;0;0;0;27,55;10,29;0;1;
10926;0;0;0;0;0;0;25,8;10,27;0;1;
10929;0;0;0;0;0;0;24,05;10,25;0;1;
10934;0;0;0;0;0;0;22,6;10,88;0;1;
10937;0;0;0;0;0;0;21,15;11,51;0;1;
10941;0;0;0;0;0;0;19,7;12,14;0;1;
10946;0;0;0;0;0;0;18,25;12,76;0;1;
10950;0;0;0;0;0;0;16,8;13,39;0;1;
10955;0;0;0;0;0;0;15,95;14,32;0;1;
10959;0;0;0;0;0;0;14,75;14,85;0;1;
10962;0;0;0;0;0;0;13,55;15,38;0;1;
10966;0;0;0;0;0;0;12,35;15,91;0;1;
10971;0;0;0;0;0;0;11,15;16,44;0;1;
10975;0;0;0;0;0;0;10,35;16,74;0;1;
10978;0;0;0;0;0;0;9,5;16,46;0;1;
10981;0;0;0;0;0;0;8,65;16,18;0;1;
10985;0;0;0;0;0;0;7,8;15,9;0;1;
10991;0;0;0;0;0;0;6,95;15,62;0;1;
10995;0;0;0;0;0;0;6,35;14,89;0;1;
10998;0;0;0;0;0;0;6,15;14,26;0;1;
11002;0;0;0;0;0;0;5,95;13,64;0;1;
11005;0;0;0;0;0;0;5,75;13,01;0;1;
11010;0;0;0;0;0;0;5,55;12,38;0;1;
11015;0;0;0;0;0;0;5,55;11,5;0;1;
11020;0;0;0;0;0;0;5,55;10,62;0;1;
11024;0;0;0;0;0;0;5,9;9,54;0;1;
11027;0;0;0;0;0;0;6,25;8,46;0;1;
11031;0;0;0;0;0;0;6,6;7,39;0;1;
11036;0;0;0;0;0;0;6,95;6,31;0;1;
11041;0;0;0;0;0;0;7,65;5,63;0;1;
11045;0;0;0;0;0;0;8,15;5,13;0;1;
11048;0;0;0;0;0;0;8,65;4,63;0;1;
11052;0;0;0;0;0;0;9,15;4,13;0;1;
11056;0;0;0;0;0;0;9,65;3,63;0;1;
11061;0;0;0;0;0;0;10,2;3,71;0;0;
11065;0;0;0;0;0;0;10,55;4,24;0;0;
11068;0;0;0;0;0;0;10,9;4,76;0;0;
11072;0;0;0;0;0;0;11,25;5,29;0;0;
11076;0;0;0;0;0;0;11,6;5,82;0;0;
11082;0;0;0;0;0;0;11,55;6,25;0;0;
11085;0;0;0;0;0;0;11,3;7,23;0;0;
11087;0;0;0;0;0;0;11,05;8,21;0;0;
11091;0;0;0;0;0;0;10,8;9,19;0;0;
11095;0;0;0;0;0;0;10,55;10,16;0;0;
11100;0;0;0;0;0;0;10,3;11,14;0;0;
11105;0;0;0;0;0;0;9,7;12,32;0;0;
11109;0;0;0;0;0;0;9;13,35;0;0;
11111;0;0;0;0;0;0;8,3;14,38;0;0;
11115;0;0;0;0;0;0;7,6;15,41;0;0;
11121;0;0;0;0;0;0;6,9;16,44;0;0;
11126;0;0;0;0;0;0;6,4;17,29;0;0;
11129;0;0;0;0;0;0;5,9;17,59;0;0;
11132;0;0;0;0;0;0;5,4;17,89;0;0;
11135;0;0;0;0;0;0;4,9;18,19;0;0;
11141;0;0;0;0;0;0;4,4;18,49;0;0;
11146;0;0;0;0;0;0;4,1;18,34;0;0;
11149;0;0;0;0;0;0;3,85;17,81;0;0;
11152;0;0;0;0;0;0;3,6;17,28;0;0;
11155;0;0;0;0;0;0;3,35;16,75;0;0;
11161;0;0;0;0;0;0;3,1;16,22;0;0;
11165;0;0;0;0;0;0;3,05;15,14;0;0;
11169;0;0;0;0;0;0;3;14,21;0;0;
11172;0;0;0;0;0;0;2,95;13,29;0;0;
11177;0;0;0;0;0;0;2,9;12,36;0;0;
11181;0;0;0;0;0;0;2,85;11,43;0;0;
11186;0;0;0;0;0;0;2,8;10,5;0;0;
11191;0;0;0;0;0;0;2,85;9,42;0;0;
11194;0;0;0;0;0;0;2,9;8,34;0;0;
11197;0;0;0;0;0;0;2,95;7,26;0;0;
11201;0;0;0;0;0;0;3;6,19;0;0;
11207;0;0;0;0;0;0;3,05;5,11;0;0;
11211;0;0;0;0;0;0;3,1;4,58;0;0;
11215;0;0;0;0;0;0;3,1;4,48;0;0;
11217;0;0;0;0;0;0;3,1;4,38;0;0;
11222;0;0;0;0;0;0;3,1;4,28;0;0;
11228;0;0;0;0;0;0;3,1;4,18;0;0;
11232;0;0;0;0;0;0;3,05;4,46;0;0;
11235;0;0;0;0;0;0;2,97;5,19;0;0;
11238;0;0;0;0;0;0;2,89;5,91;0;0;
11243;0;0;0;0;0;0;2,81;6,64;0;0;
11247;0;0;0;0;0;0;2,73;7,37;0;0;
11252;0;0;0;0;0;0;2,65;7,95;0;0;
11255;0;0;0;0;0;0;2,62;8,78;0;0;
11259;0;0;0;0;0;0;2,59;9,61;0;0;
11263;0;0;0;0;0;0;2,56;10,44;0;0;
11268;0;0;0;0;0;0;2,53;11,26;0;0;
11273;0;0;0;0;0;0;2,5;12,39;0;0;
11276;0;0;0;0;0;0;2,57;13,27;0;0;
11280;0;0;0;0;0;0;2,64;14,15;0;0;
11284;0;0;0;0;0;0;2,71;15,03;0;0;
11288;0;0;0;0;0;0;2,78;15,91;0;0;
11293;0;0;0;0;0;0;2,85;16,79;0;0;
11296;0;0;0;0;0;0;2,92;16,64;0;0;
11299;0;0;0;0;0;0;2,99;16,49;0;0;
11305;0;0;0;0;0;0;3,06;16,34;0;0;
11309;0;0;0;0;0;0;3,13;16,19;0;0;
11314;0;0;0;0;0;0;3,2;16,04;0;0;
11318;0;0;0;0;0;0;3,15;15,31;0;0;
11321;0;0;0;0;0;0;3,1;14,58;0;0;
11325;0;0;0;0;0;0;3,05;13,85;0;0;
11330;0;0;0;0;0;0;3;13,12;0;0;
11334;0;0;0;0;0;0;2,95;12,39;0;0;
11339;0;0;0;0;0;0;2,88;11,46;0;0;
11342;0;0;0;0;0;0;2,81;10,54;0;0;
11346;0;0;0;0;0;0;2,74;9,61;0;0;
11350;0;0;0;0;0;0;2,67;8,68;0;0;
11354;0;0;0;0;0;0;2,6;7,75;0;0;
11359;0;0;0;0;0;0;2,43;7,07;0;0;
11363;0;0;0;0;0;0;2,21;6,27;0;0;
11366;0;0;0;0;0;0;1,99;5,47;0;0;
11370;0;0;0;0;0;0;1,77;4,67;0;0;
11374;0;0;0;0;0;0;1,55;3,87;0;0;
11380;0;0;0;0;0;0;1,38;3,67;0;0;
11383;0;0;0;0;0;0;1,28;3,92;0;0;
11386;0;0;0;0;0;0;1,18;4,17;0;0;
11389;0;0;0;0;0;0;1,08;4,42;0;0;
11394;0;0;0;0;0;0;0,98;4,67;0;0;
11399;0;0;0;0;0;0;1,03;5,05;0;0;
11403;0;0;0;0;0;0;1,18;5,83;0;0;
11406;0;0;0;0;0;0;1,33;6,61;0;0;
11410;0;0;0;0;0;0;1,48;7,39;0;0;
11415;0;0;0;0;0;0;1,63;8,16;0;0;
11420;0;0;0;0;0;0;1,75;8,89;0;0;
11424;0;0;0;0;0;0;1,97;9,77;0;0;
11427;0;0;0;0;0;0;2,19;10,65;0;0;
11431;0;0;0;0;0;0;2,41;11,53;0;0;
11436;0;0;0;0;0;0;2,63;12,41;0;0;
11440;0;0;0;0;0;0;2,85;13,29;0;0;
11446;0;0;0;0;0;0;3,12;13,94;0;0;
11449;0;0;0;0;0;0;3,39;14,59;0;0;
11455;0;0;0;0;0;0;3,66;15,24;0;0;
11460;0;0;0;0;0;0;3,93;15,89;0;0;
11464;0;0;0;0;0;0;4,2;16,54;0;0;
11467;0;0;0;0;0;0;4,35;16,19;0;0;
11470;0;0;0;0;0;0;4,5;15,84;0;0;
11475;0;0;0;0;0;0;4,65;15,49;0;0;
11479;0;0;0;0;0;0;4,8;15,14;0;0;
11483;0;0;0;0;0;0;4,95;14,79;0;0;
11488;0;0;0;0;0;0;5;14,04;0;0;
11491;0;0;0;0;0;0;4,9;13,21;0;0;
11494;0;0;0;0;0;0;4,8;12,38;0;0;
11498;0;0;0;0;0;0;4,7;11,55;0;0;
11503;0;0;0;0;0;0;4,6;10,72;0;0;
11508;0;0;0;0;0;0;4,4;9,74;0;0;
11511;0;0;0;0;0;0;4,13;8,66;0;0;
11514;0;0;0;0;0;0;3,86;7,59;0;0;
11518;0;0;0;0;0;0;3,59;6,51;0;0;
11522;0;0;0;0;0;0;3,32;5,43;0;0;
11526;0;0;0;0;0;0;3,05;4,7;0;0;
11530;0;0;0;0;0;0;2,78;3,97;0;0;
11533;0;0;0;0;0;0;2,53;3,97;0;0;
11536;0;0;0;0;0;0;2,28;3,97;0;0;
11541;0;0;0;0;0;0;2,03;3,97;0;0;
11544;0;0;0;0;0;0;1,83;4,52;0;0;
11549;0;0;0;0;0;0;1,63;5,07;0;0;
11553;0;0;0;0;0;0;5,46;4,94;0;0;
11556;0;0;0;0;0;0;9,29;4,81;0;0;
11559;0;0;0;0;0;0;13,12;4,69;0;0;
11562;0;0;0;0;0;0;16,95;4,56;0;0;
11567;0;0;0;0;0;0;20,93;4,51;0;0;
11572;0;0;0;0;0;0;24,91;4,46;0;0;
11580;0;0;0;0;0;0;29,79;6,81;0;0;
11583;0;0;0;0;0;0;34,67;9,16;0;0;
11586;0;0;0;0;0;0;39,55;11,51;0;0;
11591;0;0;0;0;0;0;44,5;13,96;0;0;
11595;0;0;0;0;0;0;52,15;19,41;0;0;
11599;0;0;0;0;0;0;59,8;24,86;0;0;
11602;0;0;0;0;0;0;67,45;30,31;0;0;
11608;0;0;0;0;0;0;75,1;35,76;0;0;
11611;0;0;0;0;0;0;82,75;41,21;0;0;
11616;0;0;0;0;0;0;90,38;45,93;0;0;
11620;0;0;0;0;0;0;97,16;50,35;0;1;
11625;0;0;0;0;0;0;103,94;54,77;0;0;
11630;0;0;0;0;0;0;110,72;59,19;0;0;
11638;0;0;0;0;0;0;117,5;63,61;0;0;
11641;0;0;0;0;0;0;121,6;68,21;0;0;
11644;0;0;0;0;0;0;125,7;72,81;0;0;
11648;0;0;0;0;0;0;129,8;77,41;0;0;
11652;0;0;0;0;0;0;133,9;82,01;0;0;
11656;0;0;0;0;0;0;138;86,61;0;0;
11660;0;0;0;0;0;0;141,7;89,66;0;0;
11663;0;0;0;0;0;0;144,5;90,31;0;0;
11667;0;0;0;0;0;0;147,3;90,96;0;0;
11671;0;0;0;0;0;0;150,1;91,61;0;0;
11675;0;0;0;0;0;0;152,9;92,26;0;0;
11680;0;0;0;0;0;0;153;89,91;0;0;
11683;0;0;0;0;0;0;152,85;86,76;0;0;
11686;0;0;0;0;0;0;152,7;83,61;0;0;
11690;0;0;0;0;0;0;152,55;80,46;0;0;
11694;0;0;0;0;0;0;152,4;77,31;0;0;
11698;0;0;0;0;0;0;152,25;74,16;0;0;
11702;0;0;0;0;0;0;151,4;70,31;0;0;
11706;0;0;0;0;0;0;150,55;66,46;0;0;
11709;0;0;0;0;0;0;149,7;62,61;0;0;
11714;0;0;0;0;0;0;148,85;58,76;0;0;
11719;0;0;0;0;0;0;146,65;55,41;0;0;
11723;0;0;0;0;0;0;143,9;50,94;0;0;
11726;0;0;0;0;0;0;141,15;46,47;0;0;
11730;0;0;0;0;0;0;138,4;42;0;0;
11735;0;0;0;0;0;0;135,65;37,53;0;0;
11741;0;0;0;0;0;0;133,3;34,61;0;0;
11744;0;0;0;0;0;0;130,1;32,69;0;0;
11747;0;0;0;0;0;0;126,9;30,76;0;0;
11751;0;0;0;0;0;0;123,7;28,84;0;0;
11757;0;0;0;0;0;0;120,5;26,92;0;0;
11761;0;0;0;0;0;0;117,3;25;0;0;
11765;0;0;0;0;0;0;113,35;24,13;0;0;
11768;0;0;0;0;0;0;109,4;23,26;0;0;
11772;0;0;0;0;0;0;105,45;22,39;0;0;
11776;0;0;0;0;0;0;101,5;21,51;0;0;
11780;0;0;0;0;0;0;97,55;20,64;0;0;
11785;0;0;0;0;0;0;95,15;20,77;0;0;
11789;0;0;0;0;0;0;92,05;21,05;0;0;
11792;0;0;0;0;0;0;88,95;21,33;0;0;
11796;0;0;0;0;0;0;85,85;21,61;0;0;
11801;0;0;0;0;0;0;82,75;21,89;0;0;
11805;0;0;0;0;0;0;80,2;23,29;0;0;
11808;0;0;0;0;0;0;78,25;23,74;0;0;
11811;0;0;0;0;0;0;76,3;24,19;0;0;
11815;0;0;0;0;0;0;74,35;24,64;0;0;
11819;0;0;0;0;0;0;72,4;25,09;0;0;
11823;0;0;0;0;0;0;71,3;24,54;0;0;
11828;0;0;0;0;0;0;70,2;23,99;0;0;
11832;0;0;0;0;0;0;68,6;23,69;0;0;
11835;0;0;0;0;0;0;67;23,39;0;0;
11839;0;0;0;0;0;0;65,4;23,09;0;0;
11845;0;0;0;0;0;0;64,8;22,54;0;0;
11849;0;0;0;0;0;0;64,2;21,99;0;0;
11852;0;0;0;0;0;0;63,3;21,39;0;0;
11855;0;0;0;0;0;0;62,4;20,79;0;0;
11861;0;0;0;0;0;0;61,5;20,19;0;0;
11866;0;0;0;0;0;0;60,6;19,59;0;0;
11870;0;0;0;0;0;0;60,4;18,84;0;0;
11874;0;0;0;0;0;0;60,1;18,09;0;0;
11877;0;0;0;0;0;0;59,8;17,34;0;0;
11882;0;0;0;0;0;0;59,5;16,59;0;0;
11886;0;0;0;0;0;0;59,2;15,84;0;0;
11891;0;0;0;0;0;0;58,3;16,04;0;0;
11894;0;0;0;0;0;0;56,65;16,59;0;0;
11897;0;0;0;0;0;0;55;17,14;0;0;
11901;0;0;0;0;0;0;53,35;17,69;0;0;
11905;0;0;0;0;0;0;51,7;18,24;0;0;
11911;0;0;0;0;0;0;50,05;18,79;0;0;
11915;0;0;0;0;0;0;48,25;19,34;0;0;
11918;0;0;0;0;0;0;46,45;19,89;0;0;
11921;0;0;0;0;0;0;44,65;20,44;0;0;
11928;0;0;0;0;0;0;42,85;20,99;0;0;
11931;0;0;0;0;0;0;41,05;21,54;0;0;
11935;0;0;0;0;0;0;39,3;22,04;0;0;
11938;0;0;0;0;0;0;37,55;22,54;0;0;
11943;0;0;0;0;0;0;35,8;23,04;0;0;
11948;0;0;0;0;0;0;34,05;23,54;0;0;
11952;0;0;0;0;0;0;32,3;24,04;0;0;
11956;0;0;0;0;0;0;30,35;23,89;0;0;
11959;0;0;0;0;0;0;28,4;23,74;0;0;
11964;0;0;0;0;0;0;26,45;23,59;0;0;
11969;0;0;0;0;0;0;24,5;23,44;0;0;
11973;0;0;0;0;0;0;22,55;23,29;0;0;
11977;0;0;0;0;0;0;22,15;22,14;0;0;
11980;0;0;0;0;0;0;21,75;20,99;0;0;
11984;0;0;0;0;0;0;21,35;19,84;0;0;
11989;0;0;0;0;0;0;20,95;18,69;0;0;
11995;0;0;0;0;0;0;20,55;17,54;0;0;
11999;0;0;0;0;0;0;20,9;16,24;0;0;
12003;0;0;0;0;0;0;21,25;14,94;0;0;
12007;0;0;0;0;0;0;21,6;13,64;0;0;
12011;0;0;0;0;0;0;21,95;12,34;0;0;
12015;0;0;0;0;0;0;22,3;11,04;0;0;
12020;0;0;0;0;0;0;22,5;9,99;0;0;
12024;0;0;0;0;0;0;22,7;8,94;0;0;
12028;0;0;0;0;0;0;22,9;7,89;0;0;
12033;0;0;0;0;0;0;23,1;6,84;0;0;
12037;0;0;0;0;0;0;23,3;5,79;0;0;
12041;0;0;0;0;0;0;23,65;6,04;0;0;
12045;0;0;0;0;0;0;24;6,29;0;0;
12049;0;0;0;0;0;0;24,35;6,54;0;0;
12053;0;0;0;0;0;0;24,7;6,79;0;0;
12058;0;0;0;0;0;0;25,05;7,04;0;0;
12063;0;0;0;0;0;0;24,3;8,39;0;0;
12066;0;0;0;0;0;0;23,55;9,74;0;0;
12071;0;0;0;0;0;0;22,8;11,09;0;0;
12076;0;0;0;0;0;0;22,05;12,44;0;0;
12082;0;0;0;0;0;0;21,3;13,79;0;0;
12086;0;0;0;0;0;0;20,15;15,34;0;0;
12088;0;0;0;0;0;0;19;16,89;0;0;
12092;0;0;0;0;0;0;17,85;18,44;0;0;
12098;0;0;0;0;0;0;16,7;19,99;0;0;
12101;0;0;0;0;0;0;15,55;21,54;0;0;
12106;0;0;0;0;0;0;14,8;22,94;0;0;
12109;0;0;0;0;0;0;13,9;23,94;0;0;
12112;0;0;0;0;0;0;13;24,94;0;0;
12116;0;0;0;0;0;0;12,1;25,94;0;0;
12120;0;0;0;0;0;0;11,2;26,94;0;0;
12125;0;0;0;0;0;0;10,45;27,29;0;0;
12129;0;0;0;0;0;0;9,9;26,89;0;0;
12132;0;0;0;0;0;0;9,35;26,49;0;0;
12136;0;0;0;0;0;0;8,8;26,09;0;0;
12141;0;0;0;0;0;0;8,25;25,69;0;0;
12147;0;0;0;0;0;0;8;24,84;0;0;
12150;0;0;0;0;0;0;7,75;23,54;0;0;
12153;0;0;0;0;0;0;7,5;22,24;0;0;
12157;0;0;0;0;0;0;7,25;20,94;0;0;
12161;0;0;0;0;0;0;7;19,64;0;0;
12166;0;0;0;0;0;0;7,05;18,04;0;0;
12169;0;0;0;0;0;0;6,95;16,36;0;0;
12172;0;0;0;0;0;0;6,85;14,68;0;0;
12176;0;0;0;0;0;0;6,75;13;0;0;
12181;0;0;0;0;0;0;6,65;11,32;0;0;
12186;0;0;0;0;0;0;6,55;9,64;0;0;
12190;0;0;0;0;0;0;6,65;8,64;0;0;
12194;0;0;0;0;0;0;6,75;7,64;0;0;
12198;0;0;0;0;0;0;6,85;6,64;0;0;
12203;0;0;0;0;0;0;6,95;5,64;0;0;
12208;0;0;0;0;0;0;7,05;4,64;0;0;
12212;0;0;0;0;0;0;6,9;4,69;0;0;
12215;0;0;0;0;0;0;6,75;4,74;0;0;
12219;0;0;0;0;0;0;6,6;4,79;0;0;
12225;0;0;0;0;0;0;6,45;4,84;0;0;
12228;0;0;0;0;0;0;6,3;4,89;0;0;
12233;0;0;0;0;0;0;5,95;5,69;0;0;
12236;0;0;0;0;0;0;5,6;6,49;0;0;
12241;0;0;0;0;0;0;5,25;7,29;0;0;
12245;0;0;0;0;0;0;4,9;8,09;0;0;
12249;0;0;0;0;0;0;4,55;8,89;0;0;
12254;0;0;0;0;0;0;4,35;9,77;0;0;
12257;0;0;0;0;0;0;4,17;10,7;0;0;
12261;0;0;0;0;0;0;3,99;11,63;0;0;
12265;0;0;0;0;0;0;3,81;12,56;0;0;
12270;0;0;0;0;0;0;3,63;13,49;0;0;
12275;0;0;0;0;0;0;3,4;14,14;0;0;
12278;0;0;0;0;0;0;3,17;14,19;0;0;
12282;0;0;0;0;0;0;2,94;14,24;0;0;
12286;0;0;0;0;0;0;2,71;14,29;0;0;
12291;0;0;0;0;0;0;2,48;14,34;0;0;
12296;0;0;0;0;0;0;2,3;14,09;0;0;
12300;0;0;0;0;0;0;2,05;13,56;0;0;
12303;0;0;0;0;0;0;1,8;13,03;0;0;
12307;0;0;0;0;0;0;1,55;12,5;0;0;
12311;0;0;0;0;0;0;1,3;11,97;0;0;
12316;0;0;0;0;0;0;1,25;11,14;0;0;
12320;0;0;0;0;0;0;1,3;10,41;0;0;
12324;0;0;0;0;0;0;1,35;9,69;0;0;
12327;0;0;0;0;0;0;1,4;8,96;0;0;
12331;0;0;0;0;0;0;1,45;8,23;0;0;
12336;0;0;0;0;0;0;1,5;7,5;0;0;
12340;0;0;0;0;0;0;1,43;6,75;0;0;
12343;0;0;0;0;0;0;1,36;6;0;0;
12347;0;0;0;0;0;0;1,29;5,25;0;0;
12351;0;0;0;0;0;0;1,22;4,5;0;0;
12356;0;0;0;0;0;0;1,15;3,75;0;0;
12361;0;0;0;0;0;0;1,08;4,05;0;0;
12365;0;0;0;0;0;0;1,01;4,35;0;0;
12369;0;0;0;0;0;0;0,94;4,65;0;0;
12374;0;0;0;0;0;0;0,87;4,95;0;0;
12380;0;0;0;0;0;0;0,8;5,25;0;0;
12383;0;0;0;0;0;0;0,85;6,18;0;0;
12386;0;0;0;0;0;0;0,9;7,11;0;0;
12390;0;0;0;0;0;0;0,95;8,04;0;0;
12395;0;0;0;0;0;0;1;8,96;0;0;
12400;0;0;0;0;0;0;1,05;9,89;0;0;
12404;0;0;0;0;0;0;0,95;11,07;0;0;
12407;0;0;0;0;0;0;0,85;12,25;0;0;
12411;0;0;0;0;0;0;0,75;13,43;0;0;
12416;0;0;0;0;0;0;0,65;14,61;0;0;
12420;0;0;0;0;0;0;0,55;15,79;0;0;
12424;0;0;0;0;0;0;0,62;16,79;0;0;
12432;0;0;0;0;0;0;0,69;17,79;0;0;
12435;0;0;0;0;0;0;0,76;18,79;0;0;
12441;0;0;0;0;0;0;0,83;19,79;0;0;
12445;0;0;0;0;0;0;0,9;20,79;0;0;
12449;0;0;0;0;0;0;0,92;20,84;0;0;
12452;0;0;0;0;0;0;0,94;20,89;0;0;
12457;0;0;0;0;0;0;0,96;20,94;0;0;
12461;0;0;0;0;0;0;0,98;20,99;0;0;
12466;0;0;0;0;0;0;1;21,04;0;0;
12469;0;0;0;0;0;0;1,35;20,11;0;0;
12472;0;0;0;0;0;0;1,7;19,18;0;0;
12476;0;0;0;0;0;0;2,05;18,25;0;0;
12481;0;0;0;0;0;0;2,4;17,32;0;0;
12486;0;0;0;0;0;0;2,75;16,39;0;0;
12489;0;0;0;0;0;0;3,05;15,29;0;0;
12493;0;0;0;0;0;0;3,35;14,19;0;0;
12496;0;0;0;0;0;0;3,65;13,09;0;0;
12500;0;0;0;0;0;0;3,95;11,99;0;0;
12505;0;0;0;0;0;0;4,25;10,89;0;0;
12510;0;0;0;0;0;0;4,48;9,94;0;0;
12514;0;0;0;0;0;0;7,46;8,89;0;0;
12517;0;0;0;0;0;0;10,44;7,84;0;0;
12521;0;0;0;0;0;0;13,42;6,79;0;1;
12526;0;0;0;0;0;0;16,4;5,74;0;1;
12531;0;0;0;0;0;0;19,43;5,19;0;1;
12535;0;0;0;0;0;0;22,01;5,19;0;1;
12538;0;0;0;0;0;0;24,59;5,19;0;1;
12543;0;0;0;0;0;0;27,17;5,19;0;1;
12547;0;0;0;0;0;0;29,75;5,19;0;1;
12551;0;0;0;0;0;0;31,95;5,82;0;1;
12554;0;0;0;0;0;0;36,35;7,3;0;1;
12558;0;0;0;0;0;0;40,75;8,78;0;1;
12562;0;0;0;0;0;0;45,15;10,26;0;1;
12567;0;0;0;0;0;0;49,55;11,74;0;1;
12571;0;0;0;0;0;0;54,05;13,04;0;1;
12575;0;0;0;0;0;0;62,75;16,09;0;1;
12578;0;0;0;0;0;0;71,45;19,14;0;1;
12581;0;0;0;0;0;0;80,15;22,19;0;1;
12585;0;0;0;0;0;0;88,85;25,24;0;1;
12591;0;0;0;0;0;0;97,55;28,29;0;1;
12594;0;0;0;0;0;0;103,5;31,44;0;1;
12596;0;0;0;0;0;0;109,45;33,04;0;1;
12600;0;0;0;0;0;0;115,4;34,64;0;1;
12605;0;0;0;0;0;0;121,35;36,24;0;1;
12610;0;0;0;0;0;0;127,3;37,84;0;1;
12613;0;0;0;0;0;0;133,7;38,89;0;1;
12616;0;0;0;0;0;0;138,25;38,74;0;1;
12619;0;0;0;0;0;0;142,8;38,59;0;1;
12625;0;0;0;0;0;0;147,35;38,44;0;1;
12628;0;0;0;0;0;0;151,9;38,29;0;1;
12632;0;0;0;0;0;0;154,25;37,29;0;1;
12637;0;0;0;0;0;0;154,45;36,14;0;1;
12640;0;0;0;0;0;0;154,65;34,99;0;1;
12644;0;0;0;0;0;0;154,85;33,84;0;1;
12649;0;0;0;0;0;0;155,05;32,69;0;1;
12654;0;0;0;0;0;0;151,05;29,79;0;1;
12659;0;0;0;0;0;0;146,7;26,89;0;1;
12662;0;0;0;0;0;0;142,35;23,99;0;1;
12667;0;0;0;0;0;0;138;21,09;0;1;
12672;0;0;0;0;0;0;133,65;18,19;0;1;
12677;0;0;0;0;0;0;129,3;15,29;0;1;
12681;0;0;0;0;0;0;124;13,89;0;1;
12684;0;0;0;0;0;0;118,7;12,49;0;1;
12688;0;0;0;0;0;0;113,4;11,09;0;1;
12693;0;0;0;0;0;0;108,1;9,69;0;1;
12697;0;0;0;0;0;0;102,8;8,29;0;1;
12701;0;0;0;0;0;0;99,55;8,24;0;1;
12704;0;0;0;0;0;0;96,3;8,19;0;1;
12708;0;0;0;0;0;0;93,05;8,14;0;1;
12713;0;0;0;0;0;0;89,8;8,09;0;1;
12718;0;0;0;0;0;0;86,55;8,04;0;1;
12722;0;0;0;0;0;0;85,45;8,19;0;1;
12725;0;0;0;0;0;0;84,35;8,34;0;1;
12729;0;0;0;0;0;0;83,25;8,49;0;1;
12734;0;0;0;0;0;0;82,15;8,64;0;1;
12739;0;0;0;0;0;0;81,05;8,79;0;1;
12744;0;0;0;0;0;0;79,95;9,29;0;1;
12747;0;0;0;0;0;0;78,85;9,79;0;1;
12751;0;0;0;0;0;0;77,75;10,29;0;1;
12757;0;0;0;0;0;0;76,65;10,79;0;1;
12761;0;0;0;0;0;0;75,55;11,29;0;1;
12765;0;0;0;0;0;0;75;11,26;0;1;
12768;0;0;0;0;0;0;74,45;11,23;0;1;
12773;0;0;0;0;0;0;73,9;11,2;0;1;
12777;0;0;0;0;0;0;73,35;11,17;0;1;
12782;0;0;0;0;0;0;72,8;11,14;0;1;
12786;0;0;0;0;0;0;71,3;10,71;0;1;
12789;0;0;0;0;0;0;69,8;10,29;0;1;
12792;0;0;0;0;0;0;68,3;9,86;0;1;
12797;0;0;0;0;0;0;66,8;9,43;0;1;
12800;0;0;0;0;0;0;65,3;9;0;1;
12805;0;0;0;0;0;0;63,8;8,52;0;1;
12809;0;0;0;0;0;0;63,15;8,49;0;1;
12812;0;0;0;0;0;0;62,5;8,46;0;1;
12815;0;0;0;0;0;0;61,85;8,44;0;1;
12820;0;0;0;0;0;0;61,2;8,41;0;1;
12825;0;0;0;0;0;0;60,9;8,03;0;1;
12829;0;0;0;0;0;0;59,25;7,15;0;1;
12832;0;0;0;0;0;0;57,6;6,27;0;1;
12836;0;0;0;0;0;0;55,95;5,39;0;1;
12841;0;0;0;0;0;0;54,3;4,51;0;1;
12846;0;0;0;0;0;0;53,05;4,21;0;1;
12850;0;0;0;0;0;0;52,25;4,29;0;1;
12853;0;0;0;0;0;0;51,45;4,37;0;1;
12857;0;0;0;0;0;0;50,65;4,45;0;1;
12861;0;0;0;0;0;0;49,85;4,53;0;1;
12866;0;0;0;0;0;0;49,8;4,86;0;1;
12871;0;0;0;0;0;0;49,25;5,69;0;1;
12874;0;0;0;0;0;0;48,7;6,51;0;1;
12879;0;0;0;0;0;0;48,15;7,34;0;0;
12884;0;0;0;0;0;0;47,6;8,17;0;0;
12889;0;0;0;0;0;0;47,05;9;0;0;
12893;0;0;0;0;0;0;45,7;9,48;0;0;
12896;0;0;0;0;0;0;44,35;9,96;0;0;
12900;0;0;0;0;0;0;43;10,44;0;0;
12905;0;0;0;0;0;0;41,65;10,91;0;0;
12910;0;0;0;0;0;0;40,3;11,39;0;0;
12914;0;0;0;0;0;0;40,05;12,47;0;0;
12917;0;0;0;0;0;0;39,8;13,55;0;0;
12922;0;0;0;0;0;0;39,55;14,63;0;0;
12927;0;0;0;0;0;0;39,3;15,71;0;0;
12931;0;0;0;0;0;0;39,05;16,79;0;0;
12935;0;0;0;0;0;0;37,85;17,39;0;0;
12946;0;0;0;0;0;0;36,65;17,99;0;0;
12952;0;0;0;0;0;0;35,45;18,59;0;0;
12956;0;0;0;0;0;0;34,25;19,19;0;0;
12960;0;0;0;0;0;0;33;18,94;0;0;
12963;0;0;0;0;0;0;32,25;18,19;0;0;
12966;0;0;0;0;0;0;31,5;17,44;0;0;
12972;0;0;0;0;0;0;30,75;16,69;0;0;
12977;0;0;0;0;0;0;30;15,94;0;0;
12983;0;0;0;0;0;0;28,95;15,16;0;0;
12986;0;0;0;0;0;0;27,85;14,28;0;0;
12992;0;0;0;0;0;0;26,75;13,4;0;0;
12997;0;0;0;0;0;0;25,65;12,52;0;0;
13000;0;0;0;0;0;0;24,3;12,52;0;0;
13004;0;0;0;0;0;0;22,95;12,52;0;0;
13008;0;0;0;0;0;0;21,85;12,42;0;0;
13014;0;0;0;0;0;0;20,75;12,32;0;0;
13019;0;0;0;0;0;0;19,65;12,22;0;0;
13022;0;0;0;0;0;0;18,45;12,42;0;0;
13025;0;0;0;0;0;0;17,25;12,62;0;0;
13030;0;0;0;0;0;0;16,55;12,92;0;0;
13036;0;0;0;0;0;0;15,85;13,22;0;0;
13040;0;0;0;0;0;0;15,15;13,52;0;0;
13044;0;0;0;0;0;0;14,4;14,17;0;0;
13048;0;0;0;0;0;0;13,7;15,67;0;0;
13053;0;0;0;0;0;0;13;17,17;0;0;
13057;0;0;0;0;0;0;12,3;18,67;0;0;
13064;0;0;0;0;0;0;11,6;20,17;0;0;
13068;0;0;0;0;0;0;10,9;21,42;0;0;
13071;0;0;0;0;0;0;10,5;22,7;0;0;
13075;0;0;0;0;0;0;10,1;23,98;0;0;
13080;0;0;0;0;0;0;9,7;25,26;0;0;
13084;0;0;0;0;0;0;9,05;26,04;0;0;
13088;0;0;0;0;0;0;8,65;25,94;0;0;
13092;0;0;0;0;0;0;8,25;25,84;0;0;
13096;0;0;0;0;0;0;7,85;25,74;0;0;
13101;0;0;0;0;0;0;7,45;25,64;0;0;
13107;0;0;0;0;0;0;7,05;25,54;0;0;
13110;0;0;0;0;0;0;6,7;24,34;0;0;
13113;0;0;0;0;0;0;6,35;23,14;0;0;
13117;0;0;0;0;0;0;6;21,94;0;0;
13121;0;0;0;0;0;0;5,65;20,74;0;0;
13127;0;0;0;0;0;0;5,3;19,54;0;0;
13130;0;0;0;0;0;0;5;18,41;0;0;
13133;0;0;0;0;0;0;4,7;17,28;0;0;
13137;0;0;0;0;0;0;4,4;16,15;0;0;
13142;0;0;0;0;0;0;4,1;15,02;0;0;
13146;0;0;0;0;0;0;3,8;13,89;0;0;
13149;0;0;0;0;0;0;3,65;13,01;0;0;
13152;0;0;0;0;0;0;3,5;12,14;0;0;
13157;0;0;0;0;0;0;3,35;11,26;0;0;
13162;0;0;0;0;0;0;3,2;10,38;0;0;
13167;0;0;0;0;0;0;3,3;10;0;0;
13171;0;0;0;0;0;0;3,45;9,42;0;0;
13174;0;0;0;0;0;0;3,6;8,84;0;0;
13178;0;0;0;0;0;0;3,75;8,26;0;0;
13182;0;0;0;0;0;0;3,9;7,69;0;0;
13187;0;0;0;0;0;0;4,05;7,11;0;0;
13191;0;0;0;0;0;0;4,15;7,08;0;0;
13194;0;0;0;0;0;0;4,25;7,05;0;0;
13197;0;0;0;0;0;0;4,35;7,02;0;0;
13202;0;0;0;0;0;0;4,45;6,99;0;0;
13207;0;0;0;0;0;0;4,55;6,96;0;0;
13212;0;0;0;0;0;0;4,5;6,84;0;0;
13215;0;0;0;0;0;0;4,45;6,72;0;0;
13218;0;0;0;0;0;0;4,4;6,6;0;0;
13223;0;0;0;0;0;0;4,35;6,48;0;0;
13228;0;0;0;0;0;0;4,3;6,36;0;0;
13232;0;0;0;0;0;0;4,1;6,24;0;0;
13235;0;0;0;0;0;0;3,87;6,36;0;0;
13238;0;0;0;0;0;0;3,64;6,49;0;0;
13247;0;0;0;0;0;0;3,41;6,62;0;0;
13251;0;0;0;0;0;0;3,18;6,75;0;0;
13255;0;0;0;0;0;0;2,98;6,73;0;0;
13258;0;0;0;0;0;0;2,78;6,71;0;0;
13262;0;0;0;0;0;0;2,58;6,69;0;0;
13267;0;0;0;0;0;0;2,38;6,66;0;0;
13272;0;0;0;0;0;0;2,18;6,64;0;0;
13276;0;0;0;0;0;0;2,08;6,87;0;0;
13280;0;0;0;0;0;0;2,08;7,07;0;0;
13283;0;0;0;0;0;0;2,08;7,27;0;0;
13287;0;0;0;0;0;0;2,08;7,47;0;0;
13292;0;0;0;0;0;0;2,08;7,67;0;0;
13296;0;0;0;0;0;0;2,23;7,54;0;0;
13300;0;0;0;0;0;0;2,78;7,91;0;0;
13303;0;0;0;0;0;0;3,33;8,29;0;0;
13306;0;0;0;0;0;0;3,88;8,66;0;0;
13311;0;0;0;0;0;0;4,43;9,03;0;0;
13316;0;0;0;0;0;0;4,98;9,4;0;0;
13320;0;0;0;0;0;0;6,01;9,32;0;0;
13323;0;0;0;0;0;0;7,04;9,24;0;0;
13328;0;0;0;0;0;0;8,07;9,16;0;0;
13333;0;0;0;0;0;0;9,1;9,09;0;0;
13337;0;0;0;0;0;0;10,05;9,36;0;0;
13340;0;0;0;0;0;0;10,7;9,23;0;0;
13344;0;0;0;0;0;0;11,35;9,1;0;0;
13348;0;0;0;0;0;0;12;8,97;0;0;
13353;0;0;0;0;0;0;12,65;8,84;0;0;
13358;0;0;0;0;0;0;13,3;8,71;0;0;
13362;0;0;0;0;0;0;13,65;8,59;0;0;
13365;0;0;0;0;0;0;14;8,47;0;0;
13368;0;0;0;0;0;0;14,35;8,35;0;0;
13373;0;0;0;0;0;0;14,7;8,23;0;0;
13377;0;0;0;0;0;0;15,05;8,11;0;0;
13381;0;0;0;0;0;0;15;7,49;0;0;
13385;0;0;0;0;0;0;15,25;7,41;0;0;
13388;0;0;0;0;0;0;15,5;7,34;0;0;
13392;0;0;0;0;0;0;15,75;7,27;0;0;
13398;0;0;0;0;0;0;16;7,2;0;0;
13402;0;0;0;0;0;0;15,8;7,33;0;0;
13406;0;0;0;0;0;0;15,3;7,71;0;0;
13409;0;0;0;0;0;0;14,8;8,09;0;0;
13413;0;0;0;0;0;0;14,3;8,46;0;0;
13419;0;0;0;0;0;0;13,8;8,84;0;0;
13424;0;0;0;0;0;0;13,6;9,62;0;0;
13427;0;0;0;0;0;0;13,3;10,05;0;0;
13430;0;0;0;0;0;0;13;10,48;0;0;
13434;0;0;0;0;0;0;12,7;10,91;0;0;
13439;0;0;0;0;0;0;12,4;11,34;0;1;
13445;0;0;0;0;0;0;12,3;11,79;0;1;
13448;0;0;0;0;0;0;12,95;11,66;0;1;
13451;0;0;0;0;0;0;13,6;11,53;0;1;
13455;0;0;0;0;0;0;14,25;11,4;0;1;
13459;0;0;0;0;0;0;14,9;11,27;0;1;
13464;0;0;0;0;0;0;15,55;11,14;0;1;
13467;0;0;0;0;0;0;19,1;11,14;0;1;
13470;0;0;0;0;0;0;22,65;11,14;0;1;
13475;0;0;0;0;0;0;26,2;11,14;0;1;
13479;0;0;0;0;0;0;29,75;11,14;0;1;
13484;0;0;0;0;0;0;33,3;11,14;0;1;
13488;0;0;0;0;0;0;37,15;10,89;0;1;
13492;0;0;0;0;0;0;44,2;12,16;0;1;
13495;0;0;0;0;0;0;51,25;13,44;0;1;
13499;0;0;0;0;0;0;58,3;14,71;0;1;
13504;0;0;0;0;0;0;65,35;15,98;0;1;
13508;0;0;0;0;0;0;72,5;17,6;0;1;
13512;0;0;0;0;0;0;80,4;20,97;0;1;
13515;0;0;0;0;0;0;88,3;24,34;0;1;
13520;0;0;0;0;0;0;96,2;27,71;0;1;
13526;0;0;0;0;0;0;104,1;31,09;0;1;
13530;0;0;0;0;0;0;111,25;35,04;0;1;
13533;0;0;0;0;0;0;117,4;37,34;0;1;
13536;0;0;0;0;0;0;123,55;39,64;0;1;
13542;0;0;0;0;0;0;129,7;41,94;0;1;
13546;0;0;0;0;0;0;135,85;44,24;0;1;
13551;0;0;0;0;0;0;138,8;45,86;0;1;
13555;0;0;0;0;0;0;140,7;46,58;0;1;
13558;0;0;0;0;0;0;142,6;47,3;0;1;
13562;0;0;0;0;0;0;144,5;48,02;0;1;
13567;0;0;0;0;0;0;146,4;48,74;0;1;
13572;0;0;0;0;0;0;148,3;49,46;0;1;
13575;0;0;0;0;0;0;144,95;48,26;0;1;
13578;0;0;0;0;0;0;141,6;47,06;0;1;
13583;0;0;0;0;0;0;138,25;45,86;0;1;
13588;0;0;0;0;0;0;134,9;44,66;0;1;
13592;0;0;0;0;0;0;131,55;43,46;0;1;
13595;0;0;0;0;0;0;127,35;40,46;0;1;
13598;0;0;0;0;0;0;123,15;37,46;0;1;
13603;0;0;0;0;0;0;118,95;34,46;0;1;
13608;0;0;0;0;0;0;114,75;31,46;0;1;
13613;0;0;0;0;0;0;110,55;28,46;0;1;
13617;0;0;0;0;0;0;108,4;27,71;0;1;
13621;0;0;0;0;0;0;106,25;26,96;0;1;
13625;0;0;0;0;0;0;104,1;26,21;0;1;
13630;0;0;0;0;0;0;101,95;25,46;0;1;
13635;0;0;0;0;0;0;99,8;24,71;0;1;
13638;0;0;0;0;0;0;97,85;24,41;0;1;
13642;0;0;0;0;0;0;95,9;24,11;0;1;
13647;0;0;0;0;0;0;93,95;23,81;0;1;
13652;0;0;0;0;0;0;92;23,51;0;1;
13657;0;0;0;0;0;0;90,05;23,21;0;1;
13661;0;0;0;0;0;0;89,45;22,61;0;1;
13664;0;0;0;0;0;0;88,85;22,01;0;1;
13668;0;0;0;0;0;0;88,25;21,41;0;1;
13673;0;0;0;0;0;0;87,65;20,81;0;1;
13677;0;0;0;0;0;0;87,05;20,21;0;1;
13680;0;0;0;0;0;0;86,05;19,41;0;1;
13684;0;0;0;0;0;0;85,05;18,61;0;1;
13688;0;0;0;0;0;0;84,05;17,81;0;1;
13693;0;0;0;0;0;0;83,05;17,01;0;1;
13698;0;0;0;0;0;0;82,05;16,21;0;1;
13702;0;0;0;0;0;0;79,25;14,81;0;1;
13705;0;0;0;0;0;0;76,45;13,41;0;1;
13709;0;0;0;0;0;0;73,65;12,01;0;1;
13714;0;0;0;0;0;0;70,85;10,61;0;1;
13719;0;0;0;0;0;0;68,05;9,21;0;1;
13723;0;0;0;0;0;0;65,9;8,39;0;1;
13726;0;0;0;0;0;0;63,75;7,57;0;1;
13730;0;0;0;0;0;0;61,6;6,75;0;1;
13735;0;0;0;0;0;0;59,45;5,93;0;1;
13740;0;0;0;0;0;0;57,3;5,11;0;1;
13744;0;0;0;0;0;0;55,45;5,69;0;1;
13747;0;0;0;0;0;0;53,6;6,26;0;1;
13751;0;0;0;0;0;0;51,75;6,84;0;1;
13756;0;0;0;0;0;0;49,9;7,42;0;1;
13761;0;0;0;0;0;0;48,05;8;0;1;
13766;0;0;0;0;0;0;46,85;8,23;0;1;
13769;0;0;0;0;0;0;45,65;8,46;0;1;
13772;0;0;0;0;0;0;44,45;8,69;0;1;
13777;0;0;0;0;0;0;43,25;8,91;0;1;
13782;0;0;0;0;0;0;42,05;9,14;0;0;
13787;0;0;0;0;0;0;41,9;9,09;0;0;
13791;0;0;0;0;0;0;41,75;9,04;0;0;
13795;0;0;0;0;0;0;41,6;8,99;0;0;
13800;0;0;0;0;0;0;41,45;8,94;0;0;
13805;0;0;0;0;0;0;41,3;8,89;0;0;
13809;0;0;0;0;0;0;41,1;8,91;0;0;
13812;0;0;0;0;0;0;40,9;8,94;0;0;
13815;0;0;0;0;0;0;40,7;8,96;0;0;
13819;0;0;0;0;0;0;40,5;8,98;0;0;
13824;0;0;0;0;0;0;40,3;9;0;0;
13827;0;0;0;0;0;0;40,5;8,32;0;0;
13830;0;0;0;0;0;0;39,95;7,42;0;0;
13833;0;0;0;0;0;0;39,4;6,52;0;0;
13839;0;0;0;0;0;0;38,85;5,62;0;0;
13844;0;0;0;0;0;0;38,3;4,72;0;0;
13848;0;0;0;0;0;0;37,6;4,42;0;0;
13851;0;0;0;0;0;0;36,8;4,52;0;0;
13854;0;0;0;0;0;0;36;4,62;0;0;
13860;0;0;0;0;0;0;35,2;4,72;0;0;
13863;0;0;0;0;0;0;34,4;4,82;0;0;
13868;0;0;0;0;0;0;33,3;5,2;0;0;
13872;0;0;0;0;0;0;31,65;6,18;0;0;
13875;0;0;0;0;0;0;30;7,16;0;0;
13879;0;0;0;0;0;0;28,35;8,14;0;0;
13884;0;0;0;0;0;0;26,7;9,11;0;0;
13889;0;0;0;0;0;0;25,3;9,89;0;0;
13893;0;0;0;0;0;0;23,8;10,72;0;0;
13896;0;0;0;0;0;0;22,3;11,55;0;0;
13900;0;0;0;0;0;0;20,8;12,38;0;0;
13905;0;0;0;0;0;0;19,3;13,21;0;0;
13910;0;0;0;0;0;0;17,8;14,04;0;0;
13915;0;0;0;0;0;0;17;14,69;0;0;
13918;0;0;0;0;0;0;16,2;15,34;0;0;
13922;0;0;0;0;0;0;15,4;15,99;0;0;
13928;0;0;0;0;0;0;14,6;16,64;0;0;
13931;0;0;0;0;0;0;13,8;17,29;0;0;
13936;0;0;0;0;0;0;13,1;17,54;0;0;
13940;0;0;0;0;0;0;12,8;17,14;0;0;
13943;0;0;0;0;0;0;12,5;16,74;0;0;
13946;0;0;0;0;0;0;12,2;16,34;0;0;
13952;0;0;0;0;0;0;11,9;15,94;0;0;
13956;0;0;0;0;0;0;12,15;14,94;0;0;
13959;0;0;0;0;0;0;12,5;13,91;0;0;
13962;0;0;0;0;0;0;12,85;12,88;0;0;
13967;0;0;0;0;0;0;13,2;11,85;0;0;
13972;0;0;0;0;0;0;13,55;10,82;0;0;
13978;0;0;0;0;0;0;14;9,74;0;0;
13981;0;0;0;0;0;0;14,45;8,71;0;0;
13984;0;0;0;0;0;0;14,9;7,69;0;0;
13988;0;0;0;0;0;0;15,35;6,66;0;0;
13992;0;0;0;0;0;0;15,8;5,63;0;0;
13997;0;0;0;0;0;0;16,3;5;0;0;
14000;0;0;0;0;0;0;16,55;4,4;0;0;
14003;0;0;0;0;0;0;16,8;3,8;0;0;
14007;0;0;0;0;0;0;17,05;3,2;0;0;
14010;0;0;0;0;0;0;17,3;2,6;0;0;
14015;0;0;0;0;0;0;17,55;2;0;0;
14020;0;0;0;0;0;0;17,4;2,05;0;0;
14024;0;0;0;0;0;0;17,25;2,45;0;0;
14027;0;0;0;0;0;0;17,1;2,85;0;0;
14031;0;0;0;0;0;0;16,95;3,25;0;0;
14035;0;0;0;0;0;0;16,8;3,65;0;0;
14043;0;0;0;0;0;0;16,25;4,33;0;0;
14046;0;0;0;0;0;0;15,7;5,01;0;0;
14051;0;0;0;0;0;0;15,15;5,69;0;0;
14056;0;0;0;0;0;0;14,6;6,36;0;0;
14061;0;0;0;0;0;0;14,05;7,04;0;0;
14065;0;0;0;0;0;0;13,4;7,57;0;0;
14068;0;0;0;0;0;0;12,75;8,1;0;0;
14072;0;0;0;0;0;0;12,1;8,63;0;0;
14077;0;0;0;0;0;0;11,45;9,16;0;0;
14082;0;0;0;0;0;0;10,8;9,69;0;0;
14086;0;0;0;0;0;0;10,3;9,59;0;0;
14089;0;0;0;0;0;0;9,8;9,49;0;0;
14093;0;0;0;0;0;0;9,3;9,39;0;0;
14098;0;0;0;0;0;0;8,8;9,29;0;0;
14104;0;0;0;0;0;0;8,3;9,19;0;0;
14107;0;0;0;0;0;0;7,9;9,56;0;0;
14110;0;0;0;0;0;0;7,5;9,58;0;0;
14115;0;0;0;0;0;0;7,1;9,6;0;0;
14120;0;0;0;0;0;0;6,7;9,62;0;0;
14125;0;0;0;0;0;0;6,3;9,64;0;0;
14129;0;0;0;0;0;0;6,2;9,46;0;0;
14132;0;0;0;0;0;0;6,1;9,29;0;0;
14135;0;0;0;0;0;0;6;9,11;0;0;
14140;0;0;0;0;0;0;5,9;8,93;0;0;
14145;0;0;0;0;0;0;5,8;8,75;0;0;
14150;0;0;0;0;0;0;5,75;8,32;0;0;
14153;0;0;0;0;0;0;5,7;7,89;0;0;
14157;0;0;0;0;0;0;5,65;7,46;0;0;
14161;0;0;0;0;0;0;5,6;7,04;0;0;
14166;0;0;0;0;0;0;5,55;6,61;0;0;
14170;0;0;0;0;0;0;5,5;6,76;0;0;
14173;0;0;0;0;0;0;5,45;6,91;0;0;
14176;0;0;0;0;0;0;5,4;7,06;0;0;
14181;0;0;0;0;0;0;5,35;7,21;0;0;
14186;0;0;0;0;0;0;5,3;7,36;0;0;
14191;0;0;0;0;0;0;5,2;7,39;0;0;
14194;0;0;0;0;0;0;5,1;7,41;0;0;
14198;0;0;0;0;0;0;5;7,44;0;0;
14201;0;0;0;0;0;0;4,9;7,47;0;0;
14206;0;0;0;0;0;0;4,8;7,5;0;0;
14211;0;0;0;0;0;0;4,7;7,48;0;0;
14214;0;0;0;0;0;0;4,5;7,71;0;0;
14217;0;0;0;0;0;0;4,3;7,94;0;0;
14221;0;0;0;0;0;0;4,1;8,16;0;0;
14226;0;0;0;0;0;0;3,9;8,39;0;0;
14231;0;0;0;0;0;0;3,75;8,97;0;0;
14234;0;0;0;0;0;0;3,57;9,35;0;0;
14237;0;0;0;0;0;0;3,39;9,73;0;0;
14242;0;0;0;0;0;0;3,21;10,11;0;0;
14247;0;0;0;0;0;0;3,03;10,49;0;0;
14251;0;0;0;0;0;0;2,95;10,89;0;0;
14255;0;0;0;0;0;0;3,05;10,74;0;0;
14258;0;0;0;0;0;0;3,15;10,59;0;0;
14263;0;0;0;0;0;0;3,25;10,44;0;0;
14267;0;0;0;0;0;0;3,35;10,29;0;0;
14272;0;0;0;0;0;0;3,4;9,79;0;0;
14276;0;0;0;0;0;0;3,4;9,66;0;0;
14280;0;0;0;0;0;0;3,4;9,53;0;0;
14284;0;0;0;0;0;0;3,4;9,4;0;0;
14289;0;0;0;0;0;0;3,4;9,27;0;0;
14294;0;0;0;0;0;0;3,4;9,14;0;0;
14300;0;0;0;0;0;0;3,5;8,71;0;0;
14304;0;0;0;0;0;0;3,6;8,29;0;0;
14307;0;0;0;0;0;0;3,7;7,86;0;0;
14312;0;0;0;0;0;0;3,8;7,43;0;0;
14317;0;0;0;0;0;0;3,9;7;0;0;
14319;0;0;0;0;0;0;4,03;6,45;0;0;
14323;0;0;0;0;0;0;4,16;5,9;0;0;
14327;0;0;0;0;0;0;4,29;5,35;0;0;
14332;0;0;0;0;0;0;4,42;4,8;0;0;
14336;0;0;0;0;0;0;4,55;4,25;0;0;
14341;0;0;0;0;0;0;4,45;4,6;0;0;
14344;0;0;0;0;0;0;4,35;4,95;0;0;
14348;0;0;0;0;0;0;4,25;5,3;0;0;
14352;0;0;0;0;0;0;4,15;5,65;0;0;
14356;0;0;0;0;0;0;4,05;6;0;0;
14361;0;0;0;0;0;0;4;5,98;0;0;
14365;0;0;0;0;0;0;3,85;6,36;0;0;
14368;0;0;0;0;0;0;3,7;6,74;0;0;
14371;0;0;0;0;0;0;3,55;7,11;0;0;
14376;0;0;0;0;0;0;3,4;7,49;0;0;
14381;0;0;0;0;0;0;3,25;7,92;0;0;
14384;0;0;0;0;0;0;3,12;8,6;0;0;
14388;0;0;0;0;0;0;2,99;9,28;0;0;
14391;0;0;0;0;0;0;2,86;9,96;0;0;
14396;0;0;0;0;0;0;2,73;10,64;0;0;
14402;0;0;0;0;0;0;2,6;11,64;0;0;
14406;0;0;0;0;0;0;2,52;12,34;0;0;
14409;0;0;0;0;0;0;2,44;13,04;0;0;
14412;0;0;0;0;0;0;2,36;13,74;0;0;
14417;0;0;0;0;0;0;2,28;14,44;0;0;
14422;0;0;0;0;0;0;2,25;14,79;0;0;
14426;0;0;0;0;0;0;2,12;14,59;0;0;
14429;0;0;0;0;0;0;1,99;14,39;0;0;
14432;0;0;0;0;0;0;1,86;14,19;0;0;
14437;0;0;0;0;0;0;1,73;13,99;0;0;
14443;0;0;0;0;0;0;1,6;13,79;0;0;
14447;0;0;0;0;0;0;1,57;13,19;0;0;
14451;0;0;0;0;0;0;1,52;12,51;0;0;
14453;0;0;0;0;0;0;1,47;11,83;0;0;
14456;0;0;0;0;0;0;1,42;11,15;0;0;
14461;0;0;0;0;0;0;1,37;10,47;0;0;
14467;0;0;0;0;0;0;1,3;9,54;0;0;
14470;0;0;0;0;0;0;1,33;8,51;0;0;
14473;0;0;0;0;0;0;1,36;7,49;0;0;
14477;0;0;0;0;0;0;1,39;6,46;0;0;
14482;0;0;0;0;0;0;1,42;5,43;0;0;
14486;0;0;0;0;0;0;1,4;4,7;0;0;
14489;0;0;0;0;0;0;1,43;4,2;0;0;
14492;0;0;0;0;0;0;1,46;3,7;0;0;
14496;0;0;0;0;0;0;1,49;3,2;0;0;
14502;0;0;0;0;0;0;1,52;2,7;0;0;
14507;0;0;0;0;0;0;1,65;2,75;0;0;
14512;0;0;0;0;0;0;1,65;3,3;0;0;
14515;0;0;0;0;0;0;1,65;3,85;0;0;
14519;0;0;0;0;0;0;1,65;4,4;0;0;
14525;0;0;0;0;0;0;1,65;4,95;0;0;
14528;0;0;0;0;0;0;1,65;5,5;0;0;
14533;0;0;0;0;0;0;1,77;6,53;0;0;
14536;0;0;0;0;0;0;1,89;7,56;0;0;
14539;0;0;0;0;0;0;2,01;8,59;0;0;
14545;0;0;0;0;0;0;2,13;9,61;0;0;
14548;0;0;0;0;0;0;2,25;10,64;0;0;
14552;0;0;0;0;0;0;2,27;11,77;0;0;
14555;0;0;0;0;0;0;2,34;12,95;0;0;
14558;0;0;0;0;0;0;2,41;14,13;0;0;
14562;0;0;0;0;0;0;2,48;15,31;0;0;
14566;0;0;0;0;0;0;2,55;16,49;0;0;
14571;0;0;0;0;0;0;2,57;17,44;0;0;
14575;0;0;0;0;0;0;2,54;17,89;0;0;
14579;0;0;0;0;0;0;2,51;18,34;0;0;
14582;0;0;0;0;0;0;2,48;18,79;0;0;
14587;0;0;0;0;0;0;2,45;19,24;0;0;
14592;0;0;0;0;0;0;2,55;19,19;0;0;
14596;0;0;0;0;0;0;2,55;18,59;0;0;
14599;0;0;0;0;0;0;2,55;17,99;0;0;
14602;0;0;0;0;0;0;2,55;17,39;0;0;
14607;0;0;0;0;0;0;2,55;16,79;0;0;
14612;0;0;0;0;0;0;2,45;15,79;0;0;
14617;0;0;0;0;0;0;2,35;14,79;0;0;
14620;0;0;0;0;0;0;2,28;13,66;0;0;
14624;0;0;0;0;0;0;2,21;12,53;0;0;
14628;0;0;0;0;0;0;2,14;11,4;0;0;
14632;0;0;0;0;0;0;2,07;10,27;0;0;
14637;0;0;0;0;0;0;1,95;9,09;0;0;
14640;0;0;0;0;0;0;1,88;8,04;0;0;
14644;0;0;0;0;0;0;1,81;6,99;0;0;
14647;0;0;0;0;0;0;1,74;5,94;0;0;
14651;0;0;0;0;0;0;1,67;4,89;0;0;
14656;0;0;0;0;0;0;1,65;4,34;0;0;
14660;0;0;0;0;0;0;1,63;4,14;0;0;
14663;0;0;0;0;0;0;1,61;3,94;0;0;
14667;0;0;0;0;0;0;1,59;3,74;0;0;
14671;0;0;0;0;0;0;1,57;3,54;0;0;
14676;0;0;0;0;0;0;1,65;3,89;0;0;
14681;0;0;0;0;0;0;1,65;4,59;0;0;
14684;0;0;0;0;0;0;1,65;5,29;0;0;
14688;0;0;0;0;0;0;1,65;5,99;0;0;
14692;0;0;0;0;0;0;1,65;6,69;0;0;
14697;0;0;0;0;0;0;1,65;7,39;0;0;
14702;0;0;0;0;0;0;1,72;8,57;0;0;
14705;0;0;0;0;0;0;1,79;9,75;0;0;
14709;0;0;0;0;0;0;1,86;10,93;0;0;
14714;0;0;0;0;0;0;1,93;12,11;0;0;
14719;0;0;0;0;0;0;2;13,29;0;0;
14723;0;0;0;0;0;0;2,12;14,19;0;0;
14726;0;0;0;0;0;0;2,24;15,09;0;0;
14730;0;0;0;0;0;0;2,36;15,99;0;0;
14735;0;0;0;0;0;0;2,48;16,89;0;0;
14740;0;0;0;0;0;0;2,6;17,79;0;0;
14745;0;0;0;0;0;0;2,67;17,84;0;0;
14748;0;0;0;0;0;0;2,74;17,89;0;0;
14753;0;0;0;0;0;0;2,81;17,94;0;0;
14757;0;0;0;0;0;0;2,88;17,99;0;0;
14762;0;0;0;0;0;0;2,95;18,04;0;0;
14766;0;0;0;0;0;0;2,93;17,24;0;0;
14769;0;0;0;0;0;0;2,91;16,44;0;0;
14773;0;0;0;0;0;0;2,89;15,64;0;0;
14777;0;0;0;0;0;0;2,87;14,84;0;0;
14782;0;0;0;0;0;0;2,85;14,04;0;0;
14787;0;0;0;0;0;0;2,88;12,91;0;0;
14790;0;0;0;0;0;0;2,91;11,78;0;0;
14794;0;0;0;0;0;0;2,94;10,65;0;0;
14799;0;0;0;0;0;0;2,97;9,52;0;0;
14804;0;0;0;0;0;0;3;8,39;0;0;
14809;0;0;0;0;0;0;2,83;7,54;0;0;
14812;0;0;0;0;0;0;2,66;6,69;0;0;
14816;0;0;0;0;0;0;2,49;5,84;0;0;
14820;0;0;0;0;0;0;2,32;4,99;0;0;
14825;0;0;0;0;0;0;2,15;4,14;0;0;
14830;0;0;0;0;0;0;2;4,24;0;0;
14833;0;0;0;0;0;0;1,85;4,34;0;0;
14837;0;0;0;0;0;0;1,7;4,44;0;0;
14847;0;0;0;0;0;0;1,55;4,54;0;0;
14851;0;0;0;0;0;0;1,45;5,04;0;0;
14854;0;0;0;0;0;0;1,52;6,04;0;0;
14859;0;0;0;0;0;0;1,59;7,04;0;0;
14864;0;0;0;0;0;0;1,66;8,04;0;0;
14869;0;0;0;0;0;0;1,73;9,04;0;0;
14872;0;0;0;0;0;0;1,9;10,39;0;0;
14875;0;0;0;0;0;0;1,92;11,72;0;0;
14880;0;0;0;0;0;0;1,94;13,05;0;0;
14885;0;0;0;0;0;0;1,96;14,38;0;0;
14890;0;0;0;0;0;0;1,98;15,71;0;0;
14894;0;0;0;0;0;0;2,05;16,74;0;0;
14897;0;0;0;0;0;0;2,22;17,64;0;0;
14901;0;0;0;0;0;0;2,39;18,54;0;0;
14905;0;0;0;0;0;0;2,56;19,44;0;0;
14909;0;0;0;0;0;0;2,73;20,34;0;0;
14914;0;0;0;0;0;0;2,9;21,24;0;0;
14917;0;0;0;0;0;0;3,05;21,09;0;0;
14920;0;0;0;0;0;0;3,2;20,94;0;0;
14924;0;0;0;0;0;0;3,35;20,79;0;0;
14928;0;0;0;0;0;0;3,5;20,64;0;0;
14933;0;0;0;0;0;0;3,6;20,09;0;0;
14936;0;0;0;0;0;0;3,55;19,09;0;0;
14939;0;0;0;0;0;0;3,5;18,09;0;0;
14944;0;0;0;0;0;0;3,45;17,09;0;0;
14948;0;0;0;0;0;0;3,4;16,09;0;0;
14953;0;0;0;0;0;0;3,25;14,74;0;0;
14957;0;0;0;0;0;0;3,1;13,39;0;0;
14960;0;0;0;0;0;0;2,93;12,04;0;0;
14964;0;0;0;0;0;0;2,76;10,69;0;0;
14967;0;0;0;0;0;0;2,59;9,34;0;0;
14972;0;0;0;0;0;0;2,37;8,29;0;0;
14977;0;0;0;0;0;0;2,15;7,24;0;0;
14980;0;0;0;0;0;0;1,93;6,49;0;0;
14984;0;0;0;0;0;0;1,71;5,74;0;0;
14987;0;0;0;0;0;0;1,49;4,99;0;0;
14992;0;0;0;0;0;0;1,27;4,24;0;0;
14996;0;0;0;0;0;0;1,1;4,09;0;0;
15000;0;0;0;0;0;0;0,93;4,34;0;0;
15004;0;0;0;0;0;0;0,76;4,59;0;0;
15007;0;0;0;0;0;0;0,59;4,84;0;0;
15012;0;0;0;0;0;0;0,42;5,09;0;0;
15017;0;0;0;0;0;0;0,4;5,79;0;0;
15021;0;0;0;0;0;0;0,4;6,84;0;0;
15025;0;0;0;0;0;0;0,4;7,89;0;0;
15028;0;0;0;0;0;0;0,4;8,94;0;0;
15033;0;0;0;0;0;0;0,4;9,99;0;0;
15038;0;0;0;0;0;0;0,4;11,04;0;0;
15041;0;0;0;0;0;0;0,42;12,09;0;0;
15045;0;0;0;0;0;0;0,59;13,24;0;0;
15048;0;0;0;0;0;0;0,76;14,39;0;0;
15051;0;0;0;0;0;0;0,93;15,54;0;0;
15055;0;0;0;0;0;0;1,1;16,69;0;0;
15060;0;0;0;0;0;0;1,27;17,54;0;0;
15064;0;0;0;0;0;0;1,44;18,04;0;0;
15067;0;0;0;0;0;0;1,61;18,54;0;0;
15072;0;0;0;0;0;0;1,78;19,04;0;0;
15077;0;0;0;0;0;0;1,95;19,54;0;0;
15082;0;0;0;0;0;0;2,12;19,64;0;0;
15086;0;0;0;0;0;0;2,12;19,09;0;0;
15089;0;0;0;0;0;0;2,12;18,54;0;0;
15093;0;0;0;0;0;0;2,12;17,99;0;0;
15097;0;0;0;0;0;0;2,12;17,44;0;0;
15102;0;0;0;0;0;0;2,1;16,54;0;0;
15108;0;0;0;0;0;0;2,08;15,64;0;0;
15111;0;0;0;0;0;0;2,16;14,66;0;0;
15114;0;0;0;0;0;0;2,24;13,68;0;0;
15117;0;0;0;0;0;0;2,32;12,7;0;0;
15122;0;0;0;0;0;0;2,4;11,72;0;0;
15127;0;0;0;0;0;0;2,33;10,64;0;0;
15131;0;0;0;0;0;0;2,26;9,49;0;0;
15134;0;0;0;0;0;0;2,19;8,34;0;0;
15137;0;0;0;0;0;0;2,12;7,19;0;0;
15142;0;0;0;0;0;0;2,05;6,04;0;0;
15147;0;0;0;0;0;0;1,98;5,24;0;0;
15150;0;0;0;0;0;0;1,91;4,69;0;0;
15153;0;0;0;0;0;0;1,84;4,14;0;0;
15157;0;0;0;0;0;0;1,77;3,59;0;0;
15162;0;0;0;0;0;0;1,7;3,04;0;0;
15167;0;0;0;0;0;0;1,8;3,14;0;0;
15170;0;0;0;0;0;0;1,85;3,69;0;0;
15173;0;0;0;0;0;0;1,9;4,24;0;0;
15177;0;0;0;0;0;0;1,95;4,79;0;0;
15182;0;0;0;0;0;0;2;5,34;0;0;
15187;0;0;0;0;0;0;2,05;5,89;0;0;
15192;0;0;0;0;0;0;2;6,52;0;0;
15195;0;0;0;0;0;0;2,02;7,5;0;0;
15199;0;0;0;0;0;0;2,04;8,48;0;0;
15202;0;0;0;0;0;0;2,06;9,46;0;0;
15207;0;0;0;0;0;0;2,08;10,44;0;0;
15211;0;0;0;0;0;0;2,1;11,49;0;0;
15214;0;0;0;0;0;0;2,17;12,54;0;0;
15217;0;0;0;0;0;0;2,24;13,59;0;0;
15221;0;0;0;0;0;0;2,31;14,64;0;0;
15225;0;0;0;0;0;0;2,38;15,69;0;0;
15230;0;0;0;0;0;0;2,45;16,49;0;0;
15234;0;0;0;0;0;0;2,47;16,89;0;0;
15237;0;0;0;0;0;0;2,49;17,29;0;0;
15241;0;0;0;0;0;0;2,51;17,69;0;0;
15245;0;0;0;0;0;0;2,53;18,09;0;0;
15250;0;0;0;0;0;0;2,6;18,04;0;0;
15254;0;0;0;0;0;0;2,67;17,99;0;0;
15257;0;0;0;0;0;0;2,72;17,71;0;0;
15260;0;0;0;0;0;0;2,77;17,43;1;0;
15264;0;0;0;0;0;0;2,82;17,15;1;0;
15269;0;0;0;0;0;0;2,87;16,87;1;0;
15274;0;0;0;0;0;0;2,85;16,24;1;0;
15277;0;0;0;0;0;0;5,73;16,04;1;0;
15280;0;0;0;0;0;0;8,61;15,84;1;0;
15284;0;0;0;0;0;0;11,49;15,64;1;0;
15289;0;0;0;0;0;0;14,37;15,44;1;0;
15293;0;0;0;0;0;0;17,2;15,24;1;0;
15297;0;0;0;0;0;0;20,03;15,04;1;0;
15300;0;0;0;0;0;0;24,56;15,41;1;0;
