Time;EMG1;EMG2;EMG3;EMG4;EMG1_F;EMG2_F;EMG3_F;EMG4_F;Note_R;Note_V;
6;0;0;0;0;0;0;0;33,25;0;0;
17;0;0;0;0;0;0;0;30,2;0;0;
28;0;0;0;0;0;0;0;27,01;0;0;
37;0;0;0;0;0;0;0;23,82;0;0;
46;0;0;0;0;0;0;0;21,88;0;0;
57;0;0;0;0;0;0;0;19,94;0;0;
65;0;0;0;0;0;0;0;18;0;0;
73;0;0;0;0;0;0;0;16,46;0;0;
80;0;0;0;0;0;0;0;14,92;0;0;
91;0;0;0;0;0;0;0;13,53;0;0;
98;0;0;0;0;0;0;0;12,14;0;0;
108;0;0;0;0;0;0;0;11,25;0;0;
116;0;0;0;0;0;0;0;10,31;0;0;
125;0;0;0;0;0;0;0;9,37;0;0;
133;0;0;0;0;0;0;0;8,68;0;0;
141;0;0;0;0;0;0;0;7,99;0;0;
151;0;0;0;0;0;0;0;7,3;0;0;
161;0;0;0;0;0;0;0;6,96;0;0;
168;0;0;0;0;0;0;0;6,62;0;0;
177;0;0;0;0;0;0;0;6,23;0;0;
185;0;0;0;0;0;0;0;6,19;0;0;
193;0;0;0;0;0;0;0;6,15;0;0;
200;0;0;0;0;0;0;0;6,49;0;0;
208;0;0;0;0;0;0;0;6,83;0;0;
216;0;0;0;0;0;0;0;11,37;0;0;
225;0;0;0;0;0;0;0;15,91;0;0;
237;0;0;0;0;0;0;0;20,45;0;0;
246;0;0;0;0;0;0;0;27,99;0;0;
257;0;0;0;0;0;0;0;35,53;0;0;
265;0;0;0;0;0;0;0;50,07;0;0;
273;0;0;0;0;0;0;0;64,61;0;0;
280;0;0;0;0;0;0;0;77,9;0;0;
288;0;0;0;0;0;0;0;91,24;0;0;
297;0;0;0;0;0;0;0;104,58;0;0;
304;0;0;0;0;0;0;0;117,07;0;0;
314;0;0;0;0;0;0;0;129,56;0;0;
321;0;0;0;0;0;0;0;141,45;0;0;
329;0;0;0;0;0;0;0;153,49;0;0;
340;0;0;0;0;0;0;0;165,53;0;0;
348;0;0;0;0;0;0;0;176,77;0;0;
356;0;0;0;0;0;0;0;188,01;0;0;
364;0;0;0;0;0;0;0;196,8;0;0;
373;0;0;0;0;0;0;0;205,35;0;0;
381;0;0;0;0;0;0;0;213,9;0;0;
389;0;0;0;0;0;0;0;215,6;0;0;
397;0;0;0;0;0;0;0;217,3;0;0;
407;0;0;0;0;0;0;0;217,5;0;0;
415;0;0;0;0;0;0;0;214,5;0;0;
424;0;0;0;0;0;0;0;211,5;0;0;
433;0;0;0;0;0;0;0;200,6;0;0;
440;0;0;0;0;0;0;0;189,7;0;0;
449;0;0;0;0;0;0;0;178,65;0;0;
461;0;0;0;0;0;0;0;167,6;0;0;
470;0;0;0;0;0;0;0;156,55;0;0;
480;0;0;0;0;0;0;0;145,8;0;0;
489;0;0;0;0;0;0;0;135,05;0;0;
502;0;0;0;0;0;0;0;124;0;0;
510;0;0;0;0;0;0;0;112,95;0;0;
518;0;0;0;0;0;0;0;101,6;0;0;
528;0;0;0;0;0;0;0;91,1;0;0;
535;0;0;0;0;0;0;0;80,35;0;0;
544;0;0;0;0;0;0;0;72,05;0;0;
553;0;0;0;0;0;0;0;63,75;0;0;
561;0;0;0;0;0;0;0;55,2;0;0;
569;0;0;0;0;0;0;0;49,1;0;0;
577;0;0;0;0;0;0;0;43,2;0;0;
585;0;0;0;0;0;0;0;38,8;0;0;
594;0;0;0;0;0;0;0;34,4;0;0;
602;0;0;0;0;0;0;0;30;0;0;
611;0;0;0;0;0;0;0;26,35;0;0;
621;0;0;0;0;0;0;0;22,7;0;0;
630;0;0;0;0;0;0;0;20,3;0;0;
638;0;0;0;0;0;0;0;17,9;0;0;
646;0;0;0;0;0;0;0;15,35;0;0;
654;0;0;0;0;0;0;0;13,55;0;0;
665;0;0;0;0;0;0;0;11,55;0;0;
673;0;0;0;0;0;0;0;10,45;0;0;
682;0;0;0;0;0;0;0;9,35;0;0;
691;0;0;0;0;0;0;0;8,56;0;0;
698;0;0;0;0;0;0;0;7,77;0;0;
706;0;0;0;0;0;0;0;7,38;0;0;
714;0;0;0;0;0;0;0;6,99;0;0;
723;0;0;0;0;0;0;0;6,6;0;0;
731;0;0;0;0;0;0;0;6,61;0;0;
740;0;0;0;0;0;0;0;6,62;0;0;
747;0;0;0;0;0;0;0;6,53;0;0;
757;0;0;0;0;0;0;0;6,44;0;0;
767;0;0;0;0;0;0;0;6,35;0;0;
775;0;0;0;0;0;0;0;6,26;0;0;
782;0;0;0;0;0;0;0;6,17;0;0;
792;0;0;0;0;0;0;0;5,68;0;0;
799;0;0;0;0;0;0;0;5,34;0;0;
808;0;0;0;0;0;0;0;5;0;0;
815;0;0;0;0;0;0;0;7,35;0;0;
824;0;0;0;0;0;0;0;9,7;0;0;
833;0;0;0;0;0;0;0;17,7;0;0;
840;0;0;0;0;0;0;0;25,7;0;0;
850;0;0;0;0;0;0;0;33,7;0;0;
859;0;0;0;0;0;0;0;42,24;0;0;
869;0;0;0;0;0;0;0;50,78;0;0;
879;0;0;0;0;0;0;0;60,72;0;0;
887;0;0;0;0;0;0;0;70,66;0;0;
896;0;0;0;0;0;0;0;80,6;0;0;
903;0;0;0;0;0;0;0;87,79;0;0;
911;0;0;0;0;0;0;0;94,98;0;0;
919;0;0;0;0;0;0;0;101,02;0;0;
927;0;0;0;0;0;0;0;107,06;0;0;
936;0;0;0;0;0;0;0;113,1;0;0;
945;0;0;0;0;0;0;0;121,69;0;0;
953;0;0;0;0;0;0;0;130,28;0;0;
960;0;0;0;0;0;0;0;139,27;0;0;
968;0;0;0;0;0;0;0;147,71;0;0;
977;0;0;0;0;0;0;0;156,15;0;0;
984;0;0;0;0;0;0;0;161,85;0;0;
992;0;0;0;0;0;0;0;167,55;0;0;
1000;0;0;0;0;0;0;0;167,8;0;0;
1009;0;0;0;0;0;0;0;165,7;0;0;
1019;0;0;0;0;0;0;0;163,6;0;0;
1026;0;0;0;0;0;0;0;159,65;0;0;
1033;0;0;0;0;0;0;0;155,7;0;0;
1040;0;0;0;0;0;0;0;150,2;0;0;
1049;0;0;0;0;0;0;0;142,8;0;0;
1057;0;0;0;0;0;0;0;135,4;0;0;
1068;0;0;0;0;0;0;0;130,6;0;0;
1078;0;0;0;0;0;0;0;124,65;0;0;
1085;0;0;0;0;0;0;0;119,75;0;0;
1094;0;0;0;0;0;0;0;114,15;0;0;
1101;0;0;0;0;0;0;0;108,55;0;0;
1110;0;0;0;0;0;0;0;100,1;0;0;
1118;0;0;0;0;0;0;0;91,65;0;0;
1129;0;0;0;0;0;0;0;83,2;0;0;
1137;0;0;0;0;0;0;0;75,2;0;0;
1145;0;0;0;0;0;0;0;67,2;0;0;
1153;0;0;0;0;0;0;0;59,2;0;0;
1161;0;0;0;0;0;0;0;51,2;0;0;
1170;0;0;0;0;0;0;0;43,2;0;0;
1178;0;0;0;0;0;0;0;37,46;0;0;
1187;0;0;0;0;0;0;0;31,72;0;0;
1195;0;0;0;0;0;0;0;27,43;0;0;
1202;0;0;0;0;0;0;0;23,14;0;0;
1210;0;0;0;0;0;0;0;18,85;0;0;
1220;0;0;0;0;0;0;0;16,26;0;0;
1227;0;0;0;0;0;0;0;13,67;0;0;
1236;0;0;0;0;0;0;0;11,08;0;0;
1246;0;0;0;0;0;0;0;9,58;0;0;
1254;0;0;0;0;0;0;0;8,08;0;0;
1261;0;0;0;0;0;0;0;7,38;0;0;
1268;0;0;0;0;0;0;0;6,68;0;0;
1280;0;0;0;0;0;0;0;6,28;0;0;
1287;0;0;0;0;0;0;0;6,13;0;0;
1296;0;0;0;0;0;0;0;5,98;0;0;
1303;0;0;0;0;0;0;0;6,63;0;0;
1310;0;0;0;0;0;0;0;7,28;0;0;
1320;0;0;0;0;0;0;0;8,13;0;0;
1329;0;0;0;0;0;0;0;14,98;0;0;
1336;0;0;0;0;0;0;0;21,83;0;0;
1345;0;0;0;0;0;0;0;29,57;0;0;
1353;0;0;0;0;0;0;0;37,31;0;0;
1363;0;0;0;0;0;0;0;44,9;0;0;
1370;0;0;0;0;0;0;0;56,99;0;0;
1378;0;0;0;0;0;0;0;69,08;0;0;
1388;0;0;0;0;0;0;0;80,52;0;0;
1396;0;0;0;0;0;0;0;91,96;0;0;
1405;0;0;0;0;0;0;0;103,4;0;0;
1413;0;0;0;0;0;0;0;117,75;0;0;
1420;0;0;0;0;0;0;0;132,1;0;0;
1429;0;0;0;0;0;0;0;142,3;0;0;
1437;0;0;0;0;0;0;0;152,5;0;0;
1447;0;0;0;0;0;0;0;162,7;0;0;
1455;0;0;0;0;0;0;0;175,25;0;0;
1462;0;0;0;0;0;0;0;187,8;0;0;
1471;0;0;0;0;0;0;0;199,65;0;0;
1482;0;0;0;0;0;0;0;210,1;0;0;
1490;0;0;0;0;0;0;0;220,55;0;0;
1499;0;0;0;0;0;0;0;226,3;0;0;
1508;0;0;0;0;0;0;0;232,05;0;0;
1526;0;0;0;0;0;0;0;236,1;0;0;
1535;0;0;0;0;0;0;0;240,15;0;0;
1542;0;0;0;0;0;0;0;240,4;0;0;
1549;0;0;0;0;0;0;0;236,15;0;0;
1557;0;0;0;0;0;0;0;229,7;0;0;
1565;0;0;0;0;0;0;0;224,1;0;0;
1575;0;0;0;0;0;0;0;218,5;0;0;
1582;0;0;0;0;0;0;0;213,15;0;0;
1590;0;0;0;0;0;0;0;204,95;0;0;
1600;0;0;0;0;0;0;0;194,65;0;0;
1610;0;0;0;0;0;0;0;188,4;0;0;
1621;0;0;0;0;0;0;0;182,15;0;0;
1631;0;0;0;0;0;0;0;174,45;0;0;
1640;0;0;0;0;0;0;0;164,15;0;0;
1648;0;0;0;0;0;0;0;152,9;0;0;
1657;0;0;0;0;0;0;0;141,65;0;0;
1666;0;0;0;0;0;0;0;131,2;0;0;
1676;0;0;0;0;0;0;0;120,75;0;0;
1689;0;0;0;0;0;0;0;108,45;0;0;
1700;0;0;0;0;0;0;0;96,15;0;0;
1707;0;0;0;0;0;0;0;84,55;0;0;
1715;0;0;0;0;0;0;0;72,95;0;0;
1726;0;0;0;0;0;0;0;65,15;0;0;
1733;0;0;0;0;0;0;0;57,06;0;0;
1741;0;0;0;0;0;0;0;51,17;0;0;
1749;0;0;0;0;0;0;0;45,48;0;0;
1759;0;0;0;0;0;0;0;39,79;0;0;
1768;0;0;0;0;0;0;0;33,85;0;0;
1777;0;0;0;0;0;0;0;28,16;0;0;
1785;0;0;0;0;0;0;0;24,57;0;0;
1793;0;0;0;0;0;0;0;20,73;0;0;
1800;0;0;0;0;0;0;0;16,89;0;0;
1809;0;0;0;0;0;0;0;14,5;0;0;
1818;0;0;0;0;0;0;0;11,85;0;0;
1826;0;0;0;0;0;0;0;10,15;0;0;
1834;0;0;0;0;0;0;0;8,45;0;0;
1841;0;0;0;0;0;0;0;8,3;0;0;
1850;0;0;0;0;0;0;0;8,15;0;0;
1858;0;0;0;0;0;0;0;10,75;0;0;
1868;0;0;0;0;0;0;0;13,35;0;0;
1876;0;0;0;0;0;0;0;18,05;0;0;
1886;0;0;0;0;0;0;0;22,75;0;0;
1896;0;0;0;0;0;0;0;27,45;0;0;
1904;0;0;0;0;0;0;0;32,39;0;0;
1911;0;0;0;0;0;0;0;37,33;0;0;
1919;0;0;0;0;0;0;0;43,27;0;0;
1927;0;0;0;0;0;0;0;49,21;0;0;
1937;0;0;0;0;0;0;0;55,15;0;0;
1945;0;0;0;0;0;0;0;60,49;0;0;
1952;0;0;0;0;0;0;0;65,83;0;0;
1962;0;0;0;0;0;0;0;73,82;0;0;
1969;0;0;0;0;0;0;0;81,81;0;0;
1978;0;0;0;0;0;0;0;89,8;0;0;
1986;0;0;0;0;0;0;0;98,75;0;0;
1995;0;0;0;0;0;0;0;107,7;0;0;
2004;0;0;0;0;0;0;0;116,65;0;0;
2012;0;0;0;0;0;0;0;122,9;0;0;
2019;0;0;0;0;0;0;0;129,15;0;0;
2029;0;0;0;0;0;0;0;135,7;0;0;
2039;0;0;0;0;0;0;0;142,25;0;0;
2047;0;0;0;0;0;0;0;144,65;0;0;
2054;0;0;0;0;0;0;0;147,05;0;0;
2061;0;0;0;0;0;0;0;149,45;0;0;
2068;0;0;0;0;0;0;0;149,8;0;0;
2076;0;0;0;0;0;0;0;150,15;0;0;
2088;0;0;0;0;0;0;0;149,3;0;0;
2096;0;0;0;0;0;0;0;146,6;0;0;
2105;0;0;0;0;0;0;0;143,9;0;0;
2112;0;0;0;0;0;0;0;140,7;0;0;
2119;0;0;0;0;0;0;0;137,5;0;0;
2128;0;0;0;0;0;0;0;131,9;0;0;
2136;0;0;0;0;0;0;0;125,5;0;0;
2141;0;0;0;0;0;0;0;119,1;0;0;
2152;0;0;0;0;0;0;0;112;0;0;
2160;0;0;0;0;0;0;0;103,75;0;0;
2167;0;0;0;0;0;0;0;95,5;0;0;
2175;0;0;0;0;0;0;0;88,9;0;0;
2184;0;0;0;0;0;0;0;82,3;0;0;
2193;0;0;0;0;0;0;0;73,2;0;0;
2200;0;0;0;0;0;0;0;63,95;0;0;
2208;0;0;0;0;0;0;0;56,95;0;0;
2217;0;0;0;0;0;0;0;49,95;0;0;
2225;0;0;0;0;0;0;0;42,95;0;0;
2235;0;0;0;0;0;0;0;38,05;0;0;
2245;0;0;0;0;0;0;0;33,6;0;0;
2254;0;0;0;0;0;0;0;29,15;0;0;
2262;0;0;0;0;0;0;0;26,9;0;0;
2269;0;0;0;0;0;0;0;24,65;0;0;
2279;0;0;0;0;0;0;0;23,25;0;0;
2288;0;0;0;0;0;0;0;21,6;0;0;
2297;0;0;0;0;0;0;0;19,95;0;0;
2306;0;0;0;0;0;0;0;18,7;0;0;
2315;0;0;0;0;0;0;0;17,45;0;0;
2323;0;0;0;0;0;0;0;16,2;0;0;
2331;0;0;0;0;0;0;0;15,7;0;0;
2339;0;0;0;0;0;0;0;15,2;0;0;
2351;0;0;0;0;0;0;0;14,7;0;0;
2359;0;0;0;0;0;0;0;14,2;0;0;
2367;0;0;0;0;0;0;0;15,75;0;0;
2375;0;0;0;0;0;0;0;17,45;0;0;
2385;0;0;0;0;0;0;0;19,15;0;0;
2394;0;0;0;0;0;0;0;23,1;0;0;
2401;0;0;0;0;0;0;0;27,05;0;0;
2409;0;0;0;0;0;0;0;30,95;0;0;
2417;0;0;0;0;0;0;0;34,4;0;0;
2428;0;0;0;0;0;0;0;37,85;0;0;
2435;0;0;0;0;0;0;0;40,85;0;0;
2444;0;0;0;0;0;0;0;43,85;0;0;
2452;0;0;0;0;0;0;0;47,4;0;0;
2460;0;0;0;0;0;0;0;51,2;0;0;
2467;0;0;0;0;0;0;0;55;0;0;
2478;0;0;0;0;0;0;0;57,75;0;0;
2493;0;0;0;0;0;0;0;60,5;0;0;
2501;0;0;0;0;0;0;0;62,65;0;0;
2510;0;0;0;0;0;0;0;65,2;0;0;
2520;0;0;0;0;0;0;0;68;0;0;
2528;0;0;0;0;0;0;0;70,9;0;0;
2538;0;0;0;0;0;0;0;74,6;0;0;
2553;0;0;0;0;0;0;0;76,25;0;0;
2567;0;0;0;0;0;0;0;77,25;0;0;
2575;0;0;0;0;0;0;0;78,25;0;0;
2582;0;0;0;0;0;0;0;75,4;0;0;
2590;0;0;0;0;0;0;0;72,55;0;0;
2600;0;0;0;0;0;0;0;69,75;0;0;
2608;0;0;0;0;0;0;0;66,8;0;0;
2616;0;0;0;0;0;0;0;63,85;0;0;
2627;0;0;0;0;0;0;0;61,25;0;0;
2635;0;0;0;0;0;0;0;58,65;0;0;
2646;0;0;0;0;0;0;0;54,85;0;0;
2654;0;0;0;0;0;0;0;51,05;0;0;
2664;0;0;0;0;0;0;0;47,25;0;0;
2672;0;0;0;0;0;0;0;44,25;0;0;
2680;0;0;0;0;0;0;0;41,25;0;0;
2690;0;0;0;0;0;0;0;39,5;0;0;
2697;0;0;0;0;0;0;0;37,75;0;0;
2707;0;0;0;0;0;0;0;35,75;0;0;
2715;0;0;0;0;0;0;0;33,2;0;0;
2727;0;0;0;0;0;0;0;29,85;0;0;
2734;0;0;0;0;0;0;0;26,4;0;0;
2742;0;0;0;0;0;0;0;23,6;0;0;
2751;0;0;0;0;0;0;0;20,65;0;0;
2759;0;0;0;0;0;0;0;19,3;0;0;
2770;0;0;0;0;0;0;0;17,95;0;0;
2778;0;0;0;0;0;0;0;16,75;0;0;
2787;0;0;0;0;0;0;0;15,7;0;0;
2795;0;0;0;0;0;0;0;15,15;0;0;
2803;0;0;0;0;0;0;0;14,35;0;0;
2813;0;0;0;0;0;0;0;13,55;0;0;
2821;0;0;0;0;0;0;0;13,35;0;0;
2828;0;0;0;0;0;0;0;13,15;0;0;
2837;0;0;0;0;0;0;0;12,85;0;0;
2846;0;0;0;0;0;0;0;13,2;0;0;
2855;0;0;0;0;0;0;0;13,55;0;0;
2863;0;0;0;0;0;0;0;14,55;0;0;
2871;0;0;0;0;0;0;0;15,55;0;0;
2880;0;0;0;0;0;0;0;17,4;0;0;
2887;0;0;0;0;0;0;0;19,8;0;0;
2899;0;0;0;0;0;0;0;22,2;0;0;
2907;0;0;0;0;0;0;0;29,25;0;0;
2915;0;0;0;0;0;0;0;36,3;0;0;
2923;0;0;0;0;0;0;0;44,4;0;0;
2931;0;0;0;0;0;0;0;52,5;0;0;
2941;0;0;0;0;0;0;0;60,6;0;0;
2949;0;0;0;0;0;0;0;68,8;0;0;
2957;0;0;0;0;0;0;0;77;0;0;
2966;0;0;0;0;0;0;0;83,7;0;0;
2974;0;0;0;0;0;0;0;90,4;0;0;
2983;0;0;0;0;0;0;0;97,1;0;0;
2991;0;0;0;0;0;0;0;105,8;0;0;
2999;0;0;0;0;0;0;0;114,5;0;0;
3007;0;0;0;0;0;0;0;120,2;0;0;
3015;0;0;0;0;0;0;0;125,9;0;0;
3026;0;0;0;0;0;0;0;131,6;0;0;
3034;0;0;0;0;0;0;0;134,8;0;0;
3042;0;0;0;0;0;0;0;138;0;0;
3051;0;0;0;0;0;0;0;140,05;0;0;
3061;0;0;0;0;0;0;0;142,1;0;0;
3072;0;0;0;0;0;0;0;142,2;0;0;
3079;0;0;0;0;0;0;0;137,75;0;0;
3088;0;0;0;0;0;0;0;133,3;0;0;
3099;0;0;0;0;0;0;0;127,25;0;0;
3106;0;0;0;0;0;0;0;121,2;0;0;
3115;0;0;0;0;0;0;0;114,55;0;0;
3121;0;0;0;0;0;0;0;107,65;0;0;
3132;0;0;0;0;0;0;0;100,75;0;0;
3139;0;0;0;0;0;0;0;94,3;0;0;
3148;0;0;0;0;0;0;0;87,85;0;0;
3156;0;0;0;0;0;0;0;80,95;0;0;
3164;0;0;0;0;0;0;0;72,1;0;0;
3176;0;0;0;0;0;0;0;63,25;0;0;
3183;0;0;0;0;0;0;0;57,55;0;0;
3193;0;0;0;0;0;0;0;51,85;0;0;
3201;0;0;0;0;0;0;0;46,1;0;0;
3210;0;0;0;0;0;0;0;41,55;0;0;
3217;0;0;0;0;0;0;0;37,1;0;0;
3225;0;0;0;0;0;0;0;32,95;0;0;
3233;0;0;0;0;0;0;0;28,8;0;0;
3241;0;0;0;0;0;0;0;26,6;0;0;
3249;0;0;0;0;0;0;0;24,4;0;0;
3259;0;0;0;0;0;0;0;22,2;0;0;
3268;0;0;0;0;0;0;0;20,65;0;0;
3277;0;0;0;0;0;0;0;19,1;0;0;
3285;0;0;0;0;0;0;0;18,1;0;0;
3292;0;0;0;0;0;0;0;17,1;0;0;
3303;0;0;0;0;0;0;0;16,1;0;0;
3312;0;0;0;0;0;0;0;15,35;0;0;
3319;0;0;0;0;0;0;0;14,6;0;0;
3327;0;0;0;0;0;0;0;14,45;0;0;
3336;0;0;0;0;0;0;0;14,3;0;0;
3345;0;0;0;0;0;0;0;14,15;0;0;
3353;0;0;0;0;0;0;0;14,15;0;0;
3361;0;0;0;0;0;0;0;14,15;0;0;
3369;0;0;0;0;0;0;0;17,05;0;0;
3378;0;0;0;0;0;0;0;19,95;0;0;
3386;0;0;0;0;0;0;0;22,75;0;0;
3395;0;0;0;0;0;0;0;27,45;0;0;
3403;0;0;0;0;0;0;0;32,15;0;0;
3411;0;0;0;0;0;0;0;36,35;0;0;
3418;0;0;0;0;0;0;0;40,55;0;0;
3427;0;0;0;0;0;0;0;44,75;0;0;
3437;0;0;0;0;0;0;0;48,4;0;0;
3444;0;0;0;0;0;0;0;52,05;0;0;
3452;0;0;0;0;0;0;0;55,75;0;0;
3459;0;0;0;0;0;0;0;61;0;0;
3467;0;0;0;0;0;0;0;66,25;0;0;
3476;0;0;0;0;0;0;0;74,45;0;0;
3483;0;0;0;0;0;0;0;82,65;0;0;
3491;0;0;0;0;0;0;0;90,7;0;0;
3501;0;0;0;0;0;0;0;97,5;0;0;
3511;0;0;0;0;0;0;0;104,3;0;0;
3519;0;0;0;0;0;0;0;109,85;0;0;
3529;0;0;0;0;0;0;0;115,4;1;0;
3536;0;0;0;0;0;0;0;118,1;1;0;
3545;0;0;0;0;0;0;0;119,75;1;0;
3552;0;0;0;0;0;0;0;121,4;1;0;
3562;0;0;0;0;0;0;0;120,25;1;0;
3576;0;0;0;0;0;0;0;119,1;1;0;
3589;0;0;0;0;0;0;0;118,35;1;0;
3596;0;0;0;0;0;0;0;117,6;1;0;
3607;0;0;0;0;0;0;0;115;1;0;
3615;0;0;0;0;0;0;0;113;1;0;
3623;0;0;0;0;0;0;0;110,2;1;0;
3631;0;0;0;0;0;0;0;107,4;1;0;
3641;0;0;0;0;0;0;0;103,05;1;0;
3649;0;0;0;0;0;0;0;98,05;1;0;
3657;0;0;0;0;0;0;0;90,4;1;0;
3668;0;0;0;0;0;0;0;82,75;1;0;
3676;0;0;0;0;0;0;0;74,6;1;0;
3684;0;0;0;0;0;0;0;67,7;1;0;
3691;0;0;0;0;0;0;0;60,5;1;0;
3699;0;0;0;0;0;0;0;54,35;1;0;
3707;0;0;0;0;0;0;0;48,2;1;0;
3717;0;0;0;0;0;0;0;42,3;1;0;
3725;0;0;0;0;0;0;0;37,45;1;0;
3734;0;0;0;0;0;0;0;32,3;1;0;
3742;0;0;0;0;0;0;0;28,05;1;0;
3750;0;0;0;0;0;0;0;23,8;1;0;
3758;0;0;0;0;0;0;0;19,7;1;0;
3768;0;0;0;0;0;0;0;15,6;1;0;
3777;0;0;0;0;0;0;0;13,35;1;0;
3785;0;0;0;0;0;0;0;11,1;1;0;
3794;0;0;0;0;0;0;0;9,51;1;0;
3801;0;0;0;0;0;0;0;7,92;1;0;
3813;0;0;0;0;0;0;0;6,33;1;0;
3821;0;0;0;0;0;0;0;5,69;1;0;
3829;0;0;0;0;0;0;0;5,05;1;0;
3837;0;0;0;0;0;0;0;5,05;1;0;
3845;0;0;0;0;0;0;0;5,55;1;0;
3855;0;0;0;0;0;0;0;6,05;1;0;
3864;0;0;0;0;0;0;0;10,8;0;0;
3872;0;0;0;0;0;0;0;15,55;0;0;
3880;0;0;0;0;0;0;0;20,5;0;0;
3887;0;0;0;0;0;0;0;25,2;0;0;
3898;0;0;0;0;0;0;0;29,9;0;0;
3906;0;0;0;0;0;0;0;33,4;0;0;
3916;0;0;0;0;0;0;0;36,9;0;0;
3928;0;0;0;0;0;0;0;40,1;0;0;
3936;0;0;0;0;0;0;0;43,25;0;0;
3944;0;0;0;0;0;0;0;45,85;0;0;
3951;0;0;0;0;0;0;0;48,45;0;0;
3961;0;0;0;0;0;0;0;51,05;0;0;
3970;0;0;0;0;0;0;0;56,54;0;0;
3980;0;0;0;0;0;0;0;62,03;0;0;
3988;0;0;0;0;0;0;0;69,57;0;0;
3997;0;0;0;0;0;0;0;76,81;0;0;
4005;0;0;0;0;0;0;0;84,05;0;0;
4014;0;0;0;0;0;0;0;90,6;0;0;
4024;0;0;0;0;0;0;0;97,15;0;0;
4034;0;0;0;0;0;0;0;102,6;0;0;
4043;0;0;0;0;0;0;0;104,1;0;0;
4051;0;0;0;0;0;0;0;103,1;0;0;
4060;0;0;0;0;0;0;0;101,9;0;0;
4068;0;0;0;0;0;0;0;100,7;0;0;
4082;0;0;0;0;0;0;0;102,4;0;0;
4092;0;0;0;0;0;0;0;105,6;0;0;
4099;0;0;0;0;0;0;0;108,7;0;0;
4106;0;0;0;0;0;0;0;112,1;0;0;
4114;0;0;0;0;0;0;0;116;0;0;
4120;0;0;0;0;0;0;0;120,45;0;0;
4130;0;0;0;0;0;0;0;124,9;0;0;
4138;0;0;0;0;0;0;0;129,55;0;0;
4145;0;0;0;0;0;0;0;131,45;0;0;
4153;0;0;0;0;0;0;0;133,35;0;0;
4159;0;0;0;0;0;0;0;131,2;0;0;
4167;0;0;0;0;0;0;0;129,05;0;0;
4177;0;0;0;0;0;0;0;126,9;0;0;
4182;0;0;0;0;0;0;0;124,2;0;0;
4190;0;0;0;0;0;0;0;121,5;0;0;
4198;0;0;0;0;0;0;0;118,7;0;0;
4207;0;0;0;0;0;0;0;115,9;0;0;
4215;0;0;0;0;0;0;0;115,6;0;0;
4222;0;0;0;0;0;0;0;114,5;0;0;
4232;0;0;0;0;0;0;0;113,4;0;0;
4240;0;0;0;0;0;0;0;109,4;0;0;
4249;0;0;0;0;0;0;0;105,35;0;0;
4257;0;0;0;0;0;0;0;101,4;0;0;
4266;0;0;0;0;0;0;0;96,5;0;0;
4276;0;0;0;0;0;0;0;91,1;0;0;
4285;0;0;0;0;0;0;0;85,05;0;0;
4293;0;0;0;0;0;0;0;79;0;0;
4301;0;0;0;0;0;0;0;72,75;0;0;
4309;0;0;0;0;0;0;0;66,25;0;0;
4317;0;0;0;0;0;0;0;59,75;0;0;
4326;0;0;0;0;0;0;0;55,05;0;0;
4336;0;0;0;0;0;0;0;50,35;0;0;
4345;0;0;0;0;0;0;0;45,65;0;0;
4353;0;0;0;0;0;0;0;41,05;0;0;
4362;0;0;0;0;0;0;0;36,45;0;0;
4370;0;0;0;0;0;0;0;32,86;0;0;
4379;0;0;0;0;0;0;0;29,27;0;0;
4388;0;0;0;0;0;0;0;25,68;0;0;
4396;0;0;0;0;0;0;0;22,98;0;0;
4403;0;0;0;0;0;0;0;20,28;0;0;
4412;0;0;0;0;0;0;0;17,53;0;0;
4419;0;0;0;0;0;0;0;14,83;0;0;
4429;0;0;0;0;0;0;0;12,13;0;0;
4436;0;0;0;0;0;0;0;10,53;0;0;
4443;0;0;0;0;0;0;0;8,93;0;0;
4453;0;0;0;0;0;0;0;7,98;0;0;
4461;0;0;0;0;0;0;0;7,03;0;0;
4469;0;0;0;0;0;0;0;6,08;0;0;
4478;0;0;0;0;0;0;0;5,19;0;0;
4486;0;0;0;0;0;0;0;4,3;0;0;
4494;0;0;0;0;0;0;0;3,61;0;0;
4502;0;0;0;0;0;0;0;2,92;0;0;
4510;0;0;0;0;0;0;0;2,23;0;0;
4517;0;0;0;0;0;0;0;2,33;0;0;
4525;0;0;0;0;0;0;0;2,43;0;0;
4534;0;0;0;0;0;0;0;2,72;0;0;
4543;0;0;0;0;0;0;0;3,56;0;0;
4550;0;0;0;0;0;0;0;4,4;0;0;
4558;0;0;0;0;0;0;0;5,15;0;0;
4566;0;0;0;0;0;0;0;6,15;0;0;
4574;0;0;0;0;0;0;0;7,2;0;0;
4581;0;0;0;0;0;0;0;8,25;0;0;
4593;0;0;0;0;0;0;0;8,85;0;0;
4602;0;0;0;0;0;0;0;9,3;0;0;
4610;0;0;0;0;0;0;0;10,4;0;0;
4618;0;0;0;0;0;0;0;11,5;0;0;
4631;0;0;0;0;0;0;0;11,5;0;0;
4640;0;0;0;0;0;0;0;11,5;0;0;
4647;0;0;0;0;0;0;0;13,14;0;0;
4655;0;0;0;0;0;0;0;14,78;0;0;
4663;0;0;0;0;0;0;0;16,42;0;0;
4671;0;0;0;0;0;0;0;26,61;0;0;
4681;0;0;0;0;0;0;0;36,8;0;0;
4687;0;0;0;0;0;0;0;50,35;0;0;
4696;0;0;0;0;0;0;0;63,9;0;0;
4705;0;0;0;0;0;0;0;77,45;0;0;
4713;0;0;0;0;0;0;0;89,15;0;0;
4722;0;0;0;0;0;0;0;100,85;0;0;
4731;0;0;0;0;0;0;0;112,55;0;0;
4740;0;0;0;0;0;0;0;121,65;0;0;
4751;0;0;0;0;0;0;0;130,75;0;0;
4759;0;0;0;0;0;0;0;137,95;0;0;
4767;0;0;0;0;0;0;0;145,6;0;0;
4775;0;0;0;0;0;0;0;151,7;0;0;
4782;0;0;0;0;0;0;0;157,15;0;0;
4791;0;0;0;0;0;0;0;162,6;0;0;
4800;0;0;0;0;0;0;0;170,45;0;0;
4808;0;0;0;0;0;0;0;178,3;0;0;
4816;0;0;0;0;0;0;0;182,65;0;0;
4823;0;0;0;0;0;0;0;187;0;0;
4834;0;0;0;0;0;0;0;191,35;0;0;
4842;0;0;0;0;0;0;0;185,95;0;0;
4850;0;0;0;0;0;0;0;180,55;0;0;
4858;0;0;0;0;0;0;0;171,1;0;0;
4866;0;0;0;0;0;0;0;161,65;0;0;
4878;0;0;0;0;0;0;0;152,2;0;0;
4886;0;0;0;0;0;0;0;143,05;0;0;
4895;0;0;0;0;0;0;0;133,9;0;0;
4903;0;0;0;0;0;0;0;123,9;0;0;
4911;0;0;0;0;0;0;0;116,25;0;0;
4920;0;0;0;0;0;0;0;108,6;0;0;
4929;0;0;0;0;0;0;0;102,1;0;0;
4938;0;0;0;0;0;0;0;95,6;0;0;
4946;0;0;0;0;0;0;0;90,35;0;0;
4957;0;0;0;0;0;0;0;85,1;0;0;
4966;0;0;0;0;0;0;0;79,05;0;0;
4975;0;0;0;0;0;0;0;71,7;0;0;
4985;0;0;0;0;0;0;0;64,35;0;0;
4994;0;0;0;0;0;0;0;58,75;0;0;
5001;0;0;0;0;0;0;0;53,15;0;0;
5009;0;0;0;0;0;0;0;47,8;0;0;
5017;0;0;0;0;0;0;0;43,65;0;0;
5027;0;0;0;0;0;0;0;39,5;0;0;
5034;0;0;0;0;0;0;0;35,45;0;0;
5042;0;0;0;0;0;0;0;31,4;0;0;
5051;0;0;0;0;0;0;0;27,4;0;0;
5058;0;0;0;0;0;0;0;24,4;0;0;
5068;0;0;0;0;0;0;0;21,4;0;0;
5076;0;0;0;0;0;0;0;19,15;0;0;
5082;0;0;0;0;0;0;0;16,9;0;0;
5093;0;0;0;0;0;0;0;14,65;0;0;
5106;0;0;0;0;0;0;0;13,3;0;0;
5113;0;0;0;0;0;0;0;11,95;0;0;
5119;0;0;0;0;0;0;0;10,55;0;0;
5128;0;0;0;0;0;0;0;9,15;0;0;
5135;0;0;0;0;0;0;0;8,51;0;0;
5143;0;0;0;0;0;0;0;7,87;0;0;
5151;0;0;0;0;0;0;0;7,23;0;0;
5162;0;0;0;0;0;0;0;6,93;0;0;
5169;0;0;0;0;0;0;0;6,63;0;0;
5178;0;0;0;0;0;0;0;6,93;0;0;
5187;0;0;0;0;0;0;0;7,23;0;0;
5195;0;0;0;0;0;0;0;7,53;0;0;
5203;0;0;0;0;0;0;0;11,23;0;0;
5210;0;0;0;0;0;0;0;14,93;0;0;
5221;0;0;0;0;0;0;0;18,58;0;0;
5229;0;0;0;0;0;0;0;21,93;0;0;
5236;0;0;0;0;0;0;0;25,28;0;0;
5244;0;0;0;0;0;0;0;28,28;0;0;
5253;0;0;0;0;0;0;0;31,28;0;0;
5260;0;0;0;0;0;0;0;34,28;0;0;
5267;0;0;0;0;0;0;0;40,43;0;0;
5275;0;0;0;0;0;0;0;46,58;0;0;
5285;0;0;0;0;0;0;0;53,08;0;0;
5292;0;0;0;0;0;0;0;59,08;0;0;
5299;0;0;0;0;0;0;0;65,12;0;0;
5307;0;0;0;0;0;0;0;73,26;0;0;
5314;0;0;0;0;0;0;0;81,4;0;0;
5321;0;0;0;0;0;0;0;89,5;0;0;
5329;0;0;0;0;0;0;0;100,05;0;0;
5336;0;0;0;0;0;0;0;109,75;0;0;
5348;0;0;0;0;0;0;0;119,45;0;0;
5357;0;0;0;0;0;0;0;130,25;0;0;
5367;0;0;0;0;0;0;0;137,95;0;0;
5375;0;0;0;0;0;0;0;145,2;0;0;
5382;0;0;0;0;0;0;0;152,45;0;0;
5392;0;0;0;0;0;0;0;158,6;0;0;
5401;0;0;0;0;0;0;0;164,75;0;0;
5409;0;0;0;0;0;0;0;171,35;0;0;
5416;0;0;0;0;0;0;0;175,55;0;0;
5425;0;0;0;0;0;0;0;179,75;0;0;
5433;0;0;0;0;0;0;0;180,65;0;0;
5440;0;0;0;0;0;0;0;180,8;0;0;
5448;0;0;0;0;0;0;0;180,95;0;0;
5456;0;0;0;0;0;0;0;179,7;0;0;
5463;0;0;0;0;0;0;0;178,45;0;0;
5471;0;0;0;0;0;0;0;175,1;0;0;
5480;0;0;0;0;0;0;0;170,05;0;0;
5487;0;0;0;0;0;0;0;165;0;0;
5495;0;0;0;0;0;0;0;157,5;0;0;
5503;0;0;0;0;0;0;0;149,55;0;0;
5512;0;0;0;0;0;0;0;141,6;0;0;
5520;0;0;0;0;0;0;0;131,7;0;0;
5528;0;0;0;0;0;0;0;121,8;0;0;
5537;0;0;0;0;0;0;0;112,35;0;0;
5544;0;0;0;0;0;0;0;102,55;0;0;
5553;0;0;0;0;0;0;0;94,15;0;0;
5562;0;0;0;0;0;0;0;85,75;0;0;
5573;0;0;0;0;0;0;0;76,8;0;0;
5582;0;0;0;0;0;0;0;70,25;0;0;
5590;0;0;0;0;0;0;0;63,7;0;0;
5599;0;0;0;0;0;0;0;57,15;0;0;
5612;0;0;0;0;0;0;0;50,85;0;0;
5622;0;0;0;0;0;0;0;44,55;0;0;
5629;0;0;0;0;0;0;0;40;0;0;
5642;0;0;0;0;0;0;0;35,45;0;0;
5651;0;0;0;0;0;0;0;30,7;1;0;
5658;0;0;0;0;0;0;0;27,65;1;0;
5667;0;0;0;0;0;0;0;24,6;1;0;
5676;0;0;0;0;0;0;0;21,56;1;0;
5683;0;0;0;0;0;0;0;18,97;1;0;
5691;0;0;0;0;0;0;0;16,92;1;0;
5699;0;0;0;0;0;0;0;15,72;1;0;
5707;0;0;0;0;0;0;0;14,52;1;0;
5715;0;0;0;0;0;0;0;13,47;1;0;
5722;0;0;0;0;0;0;0;12,77;1;0;
5732;0;0;0;0;0;0;0;12,07;1;0;
5739;0;0;0;0;0;0;0;11,27;1;0;
5747;0;0;0;0;0;0;0;11,02;1;0;
5754;0;0;0;0;0;0;0;11,12;1;0;
5761;0;0;0;0;0;0;0;11,22;1;0;
5770;0;0;0;0;0;0;0;11,32;1;0;
5782;0;0;0;0;0;0;0;13,22;1;0;
5790;0;0;0;0;0;0;0;15,12;1;0;
5797;0;0;0;0;0;0;0;17,32;1;0;
5806;0;0;0;0;0;0;0;19,52;1;0;
5815;0;0;0;0;0;0;0;21,92;1;0;
5823;0;0;0;0;0;0;0;26,37;1;0;
5832;0;0;0;0;0;0;0;30,82;1;0;
5839;0;0;0;0;0;0;0;35,66;1;0;
5847;0;0;0;0;0;0;0;40,5;1;0;
5857;0;0;0;0;0;0;0;44,8;1;0;
5865;0;0;0;0;0;0;0;48,9;1;0;
5873;0;0;0;0;0;0;0;53;1;0;
5880;0;0;0;0;0;0;0;57,45;1;0;
5889;0;0;0;0;0;0;0;61,9;1;0;
5897;0;0;0;0;0;0;0;66,35;1;0;
5906;0;0;0;0;0;0;0;72,95;1;0;
5914;0;0;0;0;0;0;0;79,55;1;0;
5923;0;0;0;0;0;0;0;85,8;1;0;
5930;0;0;0;0;0;0;0;93,8;1;0;
5938;0;0;0;0;0;0;0;101,8;1;0;
5946;0;0;0;0;0;0;0;108,05;1;0;
5955;0;0;0;0;0;0;0;114,3;1;0;
5962;0;0;0;0;0;0;0;120,4;1;0;
5970;0;0;0;0;0;0;0;125,15;1;0;
5977;0;0;0;0;0;0;0;129,9;1;0;
5989;0;0;0;0;0;0;0;131,7;0;0;
5997;0;0;0;0;0;0;0;133,5;0;0;
6005;0;0;0;0;0;0;0;134,9;0;0;
6014;0;0;0;0;0;0;0;134,45;0;0;
6021;0;0;0;0;0;0;0;134;0;0;
6030;0;0;0;0;0;0;0;133,75;0;0;
6038;0;0;0;0;0;0;0;132,8;0;0;
6047;0;0;0;0;0;0;0;131,35;0;0;
6056;0;0;0;0;0;0;0;128,65;0;0;
6063;0;0;0;0;0;0;0;125,95;0;0;
6071;0;0;0;0;0;0;0;121,2;0;0;
6080;0;0;0;0;0;0;0;116;0;0;
6086;0;0;0;0;0;0;0;110,8;0;0;
6095;0;0;0;0;0;0;0;103,25;0;0;
6104;0;0;0;0;0;0;0;95,7;0;0;
6116;0;0;0;0;0;0;0;88,6;0;0;
6129;0;0;0;0;0;0;0;80,65;0;0;
6136;0;0;0;0;0;0;0;72,7;0;0;
6142;0;0;0;0;0;0;0;66,35;0;0;
6150;0;0;0;0;0;0;0;60;0;0;
6158;0;0;0;0;0;0;0;55,25;0;0;
6167;0;0;0;0;0;0;0;50,5;0;0;
6179;0;0;0;0;0;0;0;45,75;0;0;
6190;0;0;0;0;0;0;0;42,75;0;0;
6198;0;0;0;0;0;0;0;39,75;0;0;
6208;0;0;0;0;0;0;0;36,5;0;0;
6215;0;0;0;0;0;0;0;33,95;0;0;
6223;0;0;0;0;0;0;0;30,75;0;0;
6231;0;0;0;0;0;0;0;28,8;0;0;
6241;0;0;0;0;0;0;0;26,85;0;0;
6249;0;0;0;0;0;0;0;25,5;0;0;
6257;0;0;0;0;0;0;0;24,6;0;0;
6265;0;0;0;0;0;0;0;23,25;0;0;
6274;0;0;0;0;0;0;0;22,5;0;0;
6281;0;0;0;0;0;0;0;21,75;0;0;
6290;0;0;0;0;0;0;0;20,75;0;0;
6298;0;0;0;0;0;0;0;20,6;0;0;
6308;0;0;0;0;0;0;0;20,45;0;0;
6315;0;0;0;0;0;0;0;19,75;0;0;
6322;0;0;0;0;0;0;0;19,05;0;0;
6330;0;0;0;0;0;0;0;17,55;0;0;
6338;0;0;0;0;0;0;0;16,05;0;0;
6347;0;0;0;0;0;0;0;14,55;0;0;
6355;0;0;0;0;0;0;0;13,45;0;0;
6362;0;0;0;0;0;0;0;12,35;0;0;
6371;0;0;0;0;0;0;0;11,4;0;0;
6380;0;0;0;0;0;0;0;10,45;0;0;
6388;0;0;0;0;0;0;0;10,15;0;0;
6398;0;0;0;0;0;0;0;10;0;0;
6406;0;0;0;0;0;0;0;9,85;0;0;
6415;0;0;0;0;0;0;0;8,95;0;0;
6423;0;0;0;0;0;0;0;8,05;0;0;
6432;0;0;0;0;0;0;0;7,6;0;0;
6440;0;0;0;0;0;0;0;7;0;0;
6449;0;0;0;0;0;0;0;6,4;0;0;
6457;0;0;0;0;0;0;0;7,1;0;0;
6464;0;0;0;0;0;0;0;7,8;0;0;
6475;0;0;0;0;0;0;0;8,5;0;0;
6483;0;0;0;0;0;0;0;11,9;0;0;
6493;0;0;0;0;0;0;0;15,3;0;0;
6500;0;0;0;0;0;0;0;20,35;0;0;
6508;0;0;0;0;0;0;0;25,4;0;0;
6517;0;0;0;0;0;0;0;30,45;0;0;
6525;0;0;0;0;0;0;0;34,05;0;0;
6534;0;0;0;0;0;0;0;37,65;0;0;
6542;0;0;0;0;0;0;0;42,8;0;0;
6550;0;0;0;0;0;0;0;47,95;0;0;
6561;0;0;0;0;0;0;0;53,1;0;0;
6571;0;0;0;0;0;0;0;56,8;0;0;
6579;0;0;0;0;0;0;0;60,5;0;0;
6588;0;0;0;0;0;0;0;64,45;0;0;
6597;0;0;0;0;0;0;0;68,4;0;0;
6608;0;0;0;0;0;0;0;71,2;0;0;
6617;0;0;0;0;0;0;0;74,15;0;0;
6635;0;0;0;0;0;0;0;78,9;0;0;
6645;0;0;0;0;0;0;0;82,6;0;0;
6653;0;0;0;0;0;0;0;87,7;0;0;
6661;0;0;0;0;0;0;0;92,8;0;0;
6673;0;0;0;0;0;0;0;93,4;0;0;
6683;0;0;0;0;0;0;0;94;0;0;
6691;0;0;0;0;0;0;0;91,45;0;0;
6699;0;0;0;0;0;0;0;88,9;0;0;
6710;0;0;0;0;0;0;0;86,35;0;0;
6719;0;0;0;0;0;0;0;83,9;0;0;
6726;0;0;0;0;0;0;0;81,45;0;0;
6734;0;0;0;0;0;0;0;77,4;0;0;
6741;0;0;0;0;0;0;0;73,35;0;0;
6749;0;0;0;0;0;0;0;69,3;0;0;
6757;0;0;0;0;0;0;0;66,05;0;0;
6766;0;0;0;0;0;0;0;62,8;0;0;
6775;0;0;0;0;0;0;0;58,6;0;0;
6782;0;0;0;0;0;0;0;54,4;0;0;
6791;0;0;0;0;0;0;0;51,35;0;0;
6799;0;0;0;0;0;0;0;48,61;0;0;
6809;0;0;0;0;0;0;0;44,07;0;0;
6818;0;0;0;0;0;0;0;39,53;0;0;
6826;0;0;0;0;0;0;0;33,44;0;0;
6836;0;0;0;0;0;0;0;27,35;0;0;
6843;0;0;0;0;0;0;0;23,2;0;0;
6852;0;0;0;0;0;0;0;19,05;0;0;
6861;0;0;0;0;0;0;0;16,5;0;0;
6869;0;0;0;0;0;0;0;14;0;0;
6878;0;0;0;0;0;0;0;11,5;0;0;
6885;0;0;0;0;0;0;0;9,96;0;0;
6894;0;0;0;0;0;0;0;8,42;0;0;
6901;0;0;0;0;0;0;0;7,03;0;0;
6910;0;0;0;0;0;0;0;5,99;0;0;
6918;0;0;0;0;0;0;0;4,95;0;0;
6928;0;0;0;0;0;0;0;4,1;0;0;
6935;0;0;0;0;0;0;0;3,25;0;0;
6944;0;0;0;0;0;0;0;3,25;0;0;
6952;0;0;0;0;0;0;0;3,41;0;0;
6960;0;0;0;0;0;0;0;3,57;0;0;
6967;0;0;0;0;0;0;0;3,47;0;0;
6975;0;0;0;0;0;0;0;3,37;0;0;
6985;0;0;0;0;0;0;0;3,27;0;0;
6992;0;0;0;0;0;0;0;3,52;0;0;
7000;0;0;0;0;0;0;0;3,77;0;0;
7012;0;0;0;0;0;0;0;4,18;0;0;
7020;0;0;0;0;0;0;0;4,54;0;0;
7028;0;0;0;0;0;0;0;4,9;0;0;
7035;0;0;0;0;0;0;0;4,91;0;0;
7043;0;0;0;0;0;0;0;4,92;0;0;
7052;0;0;0;0;0;0;0;5,02;0;0;
7061;0;0;0;0;0;0;0;5,01;0;0;
7068;0;0;0;0;0;0;0;5;0;0;
7076;0;0;0;0;0;0;0;5,79;0;0;
7083;0;0;0;0;0;0;0;6,58;0;0;
7093;0;0;0;0;0;0;0;7,68;0;0;
7101;0;0;0;0;0;0;0;8,33;0;0;
7112;0;0;0;0;0;0;0;8,98;0;0;
7120;0;0;0;0;0;0;0;11,02;0;0;
7132;0;0;0;0;0;0;0;13,06;0;0;
7142;0;0;0;0;0;0;0;14;0;0;
7149;0;0;0;0;0;0;0;14,94;0;0;
7158;0;0;0;0;0;0;0;15,88;0;0;
7166;0;0;0;0;0;0;0;16,82;0;0;
7175;0;0;0;0;0;0;0;17,76;0;0;
7182;0;0;0;0;0;0;0;18,3;0;0;
7189;0;0;0;0;0;0;0;18,89;0;0;
7197;0;0;0;0;0;0;0;19,48;0;0;
7204;0;0;0;0;0;0;0;19,87;0;0;
7213;0;0;0;0;0;0;0;20,26;0;0;
7223;0;0;0;0;0;0;0;20,65;0;0;
7230;0;0;0;0;0;0;0;23,35;0;0;
7238;0;0;0;0;0;0;0;26,05;0;0;
7246;0;0;0;0;0;0;0;31,75;0;0;
7254;0;0;0;0;0;0;0;37,45;0;0;
7262;0;0;0;0;0;0;0;43,15;0;0;
7271;0;0;0;0;0;0;0;54,45;0;0;
7278;0;0;0;0;0;0;0;65,75;0;0;
7286;0;0;0;0;0;0;0;76,7;0;0;
7294;0;0;0;0;0;0;0;87,65;0;0;
7301;0;0;0;0;0;0;0;99,65;0;0;
7310;0;0;0;0;0;0;0;108,9;0;0;
7318;0;0;0;0;0;0;0;118,15;0;0;
7327;0;0;0;0;0;0;0;127,2;0;0;
7335;0;0;0;0;0;0;0;137,45;0;0;
7341;0;0;0;0;0;0;0;148,1;0;0;
7349;0;0;0;0;0;0;0;156,15;0;0;
7358;0;0;0;0;0;0;0;164,2;0;0;
7368;0;0;0;0;0;0;0;172,75;0;0;
7376;0;0;0;0;0;0;0;183,4;0;0;
7383;0;0;0;0;0;0;0;194,05;0;0;
7391;0;0;0;0;0;0;0;202,5;0;0;
7399;0;0;0;0;0;0;0;210;0;0;
7408;0;0;0;0;0;0;0;213,35;0;0;
7417;0;0;0;0;0;0;0;217,95;0;0;
7426;0;0;0;0;0;0;0;222,55;0;0;
7436;0;0;0;0;0;0;0;222;0;0;
7443;0;0;0;0;0;0;0;219,55;0;0;
7451;0;0;0;0;0;0;0;215,9;0;0;
7459;0;0;0;0;0;0;0;212,35;0;0;
7469;0;0;0;0;0;0;0;208,8;0;0;
7478;0;0;0;0;0;0;0;208;0;0;
7486;0;0;0;0;0;0;0;207,1;0;0;
7495;0;0;0;0;0;0;0;206,2;0;0;
7502;0;0;0;0;0;0;0;202,7;0;0;
7510;0;0;0;0;0;0;0;199,2;0;0;
7521;0;0;0;0;0;0;0;198,3;0;0;
7530;0;0;0;0;0;0;0;197,3;0;0;
7538;0;0;0;0;0;0;0;196,3;0;0;
7546;0;0;0;0;0;0;0;194,05;0;0;
7553;0;0;0;0;0;0;0;191,8;0;0;
7562;0;0;0;0;0;0;0;189,55;0;0;
7570;0;0;0;0;0;0;0;188,65;1;0;
7578;0;0;0;0;0;0;0;187,75;1;0;
7586;0;0;0;0;0;0;0;184,9;1;0;
7594;0;0;0;0;0;0;0;182,05;1;0;
7605;0;0;0;0;0;0;0;179,2;1;0;
7614;0;0;0;0;0;0;0;176,3;1;0;
7624;0;0;0;0;0;0;0;173,4;1;0;
7632;0;0;0;0;0;0;0;168,35;1;0;
7649;0;0;0;0;0;0;0;163,3;1;0;
7657;0;0;0;0;0;0;0;156,6;1;0;
7666;0;0;0;0;0;0;0;150;1;0;
7673;0;0;0;0;0;0;0;144,65;1;0;
7681;0;0;0;0;0;0;0;140,7;1;0;
7694;0;0;0;0;0;0;0;136,75;1;0;
7702;0;0;0;0;0;0;0;131,3;1;0;
7711;0;0;0;0;0;0;0;125,95;1;0;
7719;0;0;0;0;0;0;0;120,05;1;0;
7727;0;0;0;0;0;0;0;113,3;1;0;
7735;0;0;0;0;0;0;0;105,4;1;0;
7742;0;0;0;0;0;0;0;97,5;1;0;
7752;0;0;0;0;0;0;0;89,2;1;0;
7760;0;0;0;0;0;0;0;81,2;1;0;
7768;0;0;0;0;0;0;0;73,9;1;0;
7776;0;0;0;0;0;0;0;67,1;1;0;
7783;0;0;0;0;0;0;0;60,3;1;0;
7793;0;0;0;0;0;0;0;55,45;1;0;
7801;0;0;0;0;0;0;0;49,95;1;0;
7810;0;0;0;0;0;0;0;46,5;1;0;
7819;0;0;0;0;0;0;0;43,05;1;0;
7830;0;0;0;0;0;0;0;41,35;1;0;
7839;0;0;0;0;0;0;0;39,65;1;0;
7846;0;0;0;0;0;0;0;35,9;1;0;
7854;0;0;0;0;0;0;0;32,15;1;0;
7861;0;0;0;0;0;0;0;28,51;1;0;
7868;0;0;0;0;0;0;0;26,37;1;0;
7878;0;0;0;0;0;0;0;24,23;1;0;
7888;0;0;0;0;0;0;0;22,33;1;0;
7895;0;0;0;0;0;0;0;20,43;1;0;
7905;0;0;0;0;0;0;0;19,43;0;0;
7913;0;0;0;0;0;0;0;18,43;0;0;
7921;0;0;0;0;0;0;0;17,43;0;0;
7929;0;0;0;0;0;0;0;16,24;0;0;
7937;0;0;0;0;0;0;0;15,05;0;0;
7946;0;0;0;0;0;0;0;13,36;0;0;
7954;0;0;0;0;0;0;0;11,71;0;0;
7963;0;0;0;0;0;0;0;10,06;0;0;
7972;0;0;0;0;0;0;0;9,12;0;0;
7979;0;0;0;0;0;0;0;8,18;0;0;
7989;0;0;0;0;0;0;0;7,24;0;0;
7997;0;0;0;0;0;0;0;6,5;0;0;
8004;0;0;0;0;0;0;0;5,76;0;0;
8012;0;0;0;0;0;0;0;5,77;0;0;
8022;0;0;0;0;0;0;0;5,78;0;0;
8033;0;0;0;0;0;0;0;5,68;0;0;
8043;0;0;0;0;0;0;0;5,48;0;0;
8054;0;0;0;0;0;0;0;5,28;0;0;
8063;0;0;0;0;0;0;0;5,24;0;0;
8070;0;0;0;0;0;0;0;5,2;0;0;
8078;0;0;0;0;0;0;0;5,51;0;0;
8087;0;0;0;0;0;0;0;5,82;0;0;
8096;0;0;0;0;0;0;0;6,13;0;0;
8104;0;0;0;0;0;0;0;6,28;0;0;
8111;0;0;0;0;0;0;0;6,43;0;0;
8119;0;0;0;0;0;0;0;7,22;0;0;
8127;0;0;0;0;0;0;0;7,97;0;0;
8138;0;0;0;0;0;0;0;8,72;0;0;
8151;0;0;0;0;0;0;0;11,26;0;0;
8160;0;0;0;0;0;0;0;13,8;0;0;
8167;0;0;0;0;0;0;0;18,84;0;0;
8175;0;0;0;0;0;0;0;23,58;0;0;
8182;0;0;0;0;0;0;0;34,77;0;0;
8190;0;0;0;0;0;0;0;46,01;0;0;
8200;0;0;0;0;0;0;0;57,25;0;0;
8207;0;0;0;0;0;0;0;67,04;0;0;
8215;0;0;0;0;0;0;0;76,93;0;0;
8224;0;0;0;0;0;0;0;90,32;0;0;
8236;0;0;0;0;0;0;0;103,86;0;0;
8246;0;0;0;0;0;0;0;119,75;0;0;
8255;0;0;0;0;0;0;0;135,54;0;0;
8263;0;0;0;0;0;0;0;151,33;0;0;
8273;0;0;0;0;0;0;0;166,32;0;0;
8281;0;0;0;0;0;0;0;181,36;0;0;
8290;0;0;0;0;0;0;0;195,2;0;0;
8298;0;0;0;0;0;0;0;208,4;0;0;
8306;0;0;0;0;0;0;0;221,6;0;0;
8314;0;0;0;0;0;0;0;238,8;0;0;
8321;0;0;0;0;0;0;0;254,15;0;0;
8330;0;0;0;0;0;0;0;269,5;0;0;
8338;0;0;0;0;0;0;0;278,7;0;0;
8345;0;0;0;0;0;0;0;287,9;0;0;
8353;0;0;0;0;0;0;0;288,35;0;0;
8360;0;0;0;0;0;0;0;288,8;0;0;
8368;0;0;0;0;0;0;0;289,25;0;0;
8376;0;0;0;0;0;0;0;289,35;0;0;
8383;0;0;0;0;0;0;0;289,45;0;0;
8393;0;0;0;0;0;0;0;286,05;0;0;
8401;0;0;0;0;0;0;0;279,95;0;0;
8409;0;0;0;0;0;0;0;271,5;0;0;
8417;0;0;0;0;0;0;0;261,15;0;0;
8426;0;0;0;0;0;0;0;250,8;0;0;
8438;0;0;0;0;0;0;0;241,25;0;0;
8446;0;0;0;0;0;0;0;230;0;0;
8454;0;0;0;0;0;0;0;219,95;0;0;
8462;0;0;0;0;0;0;0;208,75;0;0;
8472;0;0;0;0;0;0;0;197,55;0;0;
8480;0;0;0;0;0;0;0;181,55;0;0;
8487;0;0;0;0;0;0;0;165,55;0;0;
8496;0;0;0;0;0;0;0;149,55;0;0;
8505;0;0;0;0;0;0;0;137;1;0;
8513;0;0;0;0;0;0;0;124,45;1;0;
8522;0;0;0;0;0;0;0;113,8;1;0;
8531;0;0;0;0;0;0;0;103,15;1;0;
8541;0;0;0;0;0;0;0;92,5;1;0;
8549;0;0;0;0;0;0;0;84,15;1;0;
8556;0;0;0;0;0;0;0;75,8;1;0;
8566;0;0;0;0;0;0;0;66,7;1;0;
8574;0;0;0;0;0;0;0;60,3;1;0;
8586;0;0;0;0;0;0;0;53,9;1;0;
8595;0;0;0;0;0;0;0;48,9;1;0;
8603;0;0;0;0;0;0;0;43,9;1;0;
8611;0;0;0;0;0;0;0;38,5;1;0;
8618;0;0;0;0;0;0;0;34,8;1;0;
8628;0;0;0;0;0;0;0;30,9;1;0;
8637;0;0;0;0;0;0;0;28,15;1;0;
8646;0;0;0;0;0;0;0;25,4;1;0;
8655;0;0;0;0;0;0;0;23,95;1;0;
8662;0;0;0;0;0;0;0;22,5;1;0;
8678;0;0;0;0;0;0;0;20,4;1;0;
8687;0;0;0;0;0;0;0;18,5;1;0;
8695;0;0;0;0;0;0;0;16,6;1;0;
8702;0;0;0;0;0;0;0;15,1;1;0;
8712;0;0;0;0;0;0;0;13,6;1;0;
8720;0;0;0;0;0;0;0;12,6;1;0;
8733;0;0;0;0;0;0;0;11,1;1;0;
8742;0;0;0;0;0;0;0;9,65;1;0;
8754;0;0;0;0;0;0;0;8,95;1;0;
8766;0;0;0;0;0;0;0;12,8;1;0;
8774;0;0;0;0;0;0;0;16,65;1;0;
8787;0;0;0;0;0;0;0;22,9;1;0;
8800;0;0;0;0;0;0;0;29,15;1;0;
8808;0;0;0;0;0;0;0;37,8;1;0;
8815;0;0;0;0;0;0;0;46,45;1;0;
8821;0;0;0;0;0;0;0;57,9;1;0;
8831;0;0;0;0;0;0;0;69,35;1;0;
8842;0;0;0;0;0;0;0;80,8;1;0;
8850;0;0;0;0;0;0;0;95,95;0;0;
8856;0;0;0;0;0;0;0;111,1;0;0;
8869;0;0;0;0;0;0;0;127,8;0;0;
8879;0;0;0;0;0;0;0;144,5;0;0;
8886;0;0;0;0;0;0;0;158,6;0;0;
8892;0;0;0;0;0;0;0;172,7;0;0;
8902;0;0;0;0;0;0;0;186,8;0;0;
8910;0;0;0;0;0;0;0;198,9;0;0;
8920;0;0;0;0;0;0;0;211;0;0;
8928;0;0;0;0;0;0;0;223,55;0;0;
8936;0;0;0;0;0;0;0;236,1;0;0;
8949;0;0;0;0;0;0;0;244,1;0;0;
8957;0;0;0;0;0;0;0;249,4;0;0;
8967;0;0;0;0;0;0;0;252,8;0;0;
8980;0;0;0;0;0;0;0;253,5;0;0;
8987;0;0;0;0;0;0;0;252,2;0;0;
8993;0;0;0;0;0;0;0;250,5;0;0;
8999;0;0;0;0;0;0;0;246,2;0;0;
9006;0;0;0;0;0;0;0;241,9;0;0;
9012;0;0;0;0;0;0;0;235,75;0;0;
9018;0;0;0;0;0;0;0;225,4;0;0;
9025;0;0;0;0;0;0;0;215,05;0;0;
9031;0;0;0;0;0;0;0;202,2;0;0;
9039;0;0;0;0;0;0;0;189,35;0;0;
9046;0;0;0;0;0;0;0;179,1;0;0;
9052;0;0;0;0;0;0;0;168;0;0;
9057;0;0;0;0;0;0;0;156,9;0;0;
9063;0;0;0;0;0;0;0;147,3;0;0;
9070;0;0;0;0;0;0;0;137,7;0;0;
9076;0;0;0;0;0;0;0;126,25;0;0;
9082;0;0;0;0;0;0;0;114,8;0;0;
9091;0;0;0;0;0;0;0;103,35;0;0;
9098;0;0;0;0;0;0;0;94,9;0;0;
9104;0;0;0;0;0;0;0;86,45;0;0;
9112;0;0;0;0;0;0;0;80,7;0;0;
9121;0;0;0;0;0;0;0;74,15;0;0;
9129;0;0;0;0;0;0;0;68;0;0;
9137;0;0;0;0;0;0;0;61,85;0;0;
9145;0;0;0;0;0;0;0;55,9;0;0;
9152;0;0;0;0;0;0;0;51,8;0;0;
9159;0;0;0;0;0;0;0;47,7;0;0;
9167;0;0;0;0;0;0;0;43,05;0;0;
9175;0;0;0;0;0;0;0;40;0;0;
9185;0;0;0;0;0;0;0;36,9;0;0;
9194;0;0;0;0;0;0;0;33,8;0;0;
9202;0;0;0;0;0;0;0;31,55;0;0;
9209;0;0;0;0;0;0;0;29,3;0;0;
9217;0;0;0;0;0;0;0;27,05;0;0;
9225;0;0;0;0;0;0;0;24,65;0;0;
9233;0;0;0;0;0;0;0;23,6;0;0;
9243;0;0;0;0;0;0;0;22,55;0;0;
9250;0;0;0;0;0;0;0;20,9;0;0;
9258;0;0;0;0;0;0;0;18,95;0;0;
9268;0;0;0;0;0;0;0;17,05;0;0;
9278;0;0;0;0;0;0;0;15,15;0;0;
9286;0;0;0;0;0;0;0;14,05;0;0;
9295;0;0;0;0;0;0;0;13,15;0;0;
9302;0;0;0;0;0;0;0;12,25;0;0;
9309;0;0;0;0;0;0;0;13,05;0;0;
9317;0;0;0;0;0;0;0;13,85;0;0;
9327;0;0;0;0;0;0;0;14,65;0;0;
9335;0;0;0;0;0;0;0;15,8;0;0;
9344;0;0;0;0;0;0;0;16,95;0;0;
9352;0;0;0;0;0;0;0;18,15;0;0;
9359;0;0;0;0;0;0;0;20,25;0;0;
9366;0;0;0;0;0;0;0;22,35;0;0;
9376;0;0;0;0;0;0;0;25,3;0;0;
9383;0;0;0;0;0;0;0;28,25;0;0;
9393;0;0;0;0;0;0;0;31,35;0;0;
9401;0;0;0;0;0;0;0;36,95;0;0;
9409;0;0;0;0;0;0;0;42,55;0;0;
9416;0;0;0;0;0;0;0;47,35;0;0;
9425;0;0;0;0;0;0;0;52,15;0;0;
9436;0;0;0;0;0;0;0;56,9;0;0;
9447;0;0;0;0;0;0;0;64;0;0;
9455;0;0;0;0;0;0;0;71,1;0;0;
9462;0;0;0;0;0;0;0;81,4;0;0;
9470;0;0;0;0;0;0;0;91,7;0;0;
9478;0;0;0;0;0;0;0;100,1;0;0;
9486;0;0;0;0;0;0;0;109,35;0;0;
9496;0;0;0;0;0;0;0;118,6;0;0;
9505;0;0;0;0;0;0;0;127,25;0;0;
9513;0;0;0;0;0;0;0;135,9;0;0;
9520;0;0;0;0;0;0;0;144,55;0;0;
9528;0;0;0;0;0;0;0;151,05;0;0;
9536;0;0;0;0;0;0;0;157,55;0;0;
9545;0;0;0;0;0;0;0;163,2;0;0;
9552;0;0;0;0;0;0;0;168,85;0;0;
9562;0;0;0;0;0;0;0;174,5;0;0;
9569;0;0;0;0;0;0;0;176,25;0;0;
9577;0;0;0;0;0;0;0;178;0;0;
9587;0;0;0;0;0;0;0;179,45;0;0;
9595;0;0;0;0;0;0;0;180,9;0;0;
9605;0;0;0;0;0;0;0;182,35;0;0;
9613;0;0;0;0;0;0;0;179,1;0;0;
9621;0;0;0;0;0;0;0;175,85;0;0;
9629;0;0;0;0;0;0;0;167,75;0;0;
9637;0;0;0;0;0;0;0;159,65;0;0;
9648;0;0;0;0;0;0;0;151,55;0;0;
9656;0;0;0;0;0;0;0;143,15;0;0;
9664;0;0;0;0;0;0;0;134,75;0;0;
9671;0;0;0;0;0;0;0;126,15;0;0;
9681;0;0;0;0;0;0;0;117,55;0;0;
9690;0;0;0;0;0;0;0;108,95;0;0;
9703;0;0;0;0;0;0;0;101,3;0;0;
9711;0;0;0;0;0;0;0;93,65;0;0;
9718;0;0;0;0;0;0;0;86,85;0;0;
9731;0;0;0;0;0;0;0;80,05;0;0;
9738;0;0;0;0;0;0;0;72,3;0;0;
9747;0;0;0;0;0;0;0;65,95;0;0;
9758;0;0;0;0;0;0;0;59,6;0;0;
9765;0;0;0;0;0;0;0;54,55;0;0;
9772;0;0;0;0;0;0;0;49,5;0;0;
9779;0;0;0;0;0;0;0;45,1;0;0;
9788;0;0;0;0;0;0;0;43,05;0;0;
9798;0;0;0;0;0;0;0;41;0;0;
9806;0;0;0;0;0;0;0;40,55;0;0;
9813;0;0;0;0;0;0;0;40,1;0;0;
9822;0;0;0;0;0;0;0;39,25;0;0;
9830;0;0;0;0;0;0;0;37,85;0;0;
9839;0;0;0;0;0;0;0;36,45;0;0;
9849;0;0;0;0;0;0;0;35,55;0;0;
9857;0;0;0;0;0;0;0;34,65;0;0;
9865;0;0;0;0;0;0;0;33,1;0;0;
9872;0;0;0;0;0;0;0;31,85;0;0;
9883;0;0;0;0;0;0;0;30,6;0;0;
9891;0;0;0;0;0;0;0;28,45;0;0;
9899;0;0;0;0;0;0;0;26,3;0;0;
9907;0;0;0;0;0;0;0;24,9;0;0;
9914;0;0;0;0;0;0;0;23,5;0;0;
9923;0;0;0;0;0;0;0;22,1;0;0;
9932;0;0;0;0;0;0;0;20,91;0;0;
9940;0;0;0;0;0;0;0;19,72;0;0;
9950;0;0;0;0;0;0;0;18,37;0;0;
9960;0;0;0;0;0;0;0;17,02;0;0;
9969;0;0;0;0;0;0;0;15,67;0;0;
9977;0;0;0;0;0;0;0;14,42;0;0;
9984;0;0;0;0;0;0;0;13,17;0;0;
9992;0;0;0;0;0;0;0;12,77;0;0;
9999;0;0;0;0;0;0;0;12,37;0;0;
10009;0;0;0;0;0;0;0;11,97;0;0;
10016;0;0;0;0;0;0;0;12,77;0;0;
10023;0;0;0;0;0;0;0;13,57;0;0;
10033;0;0;0;0;0;0;0;15,02;0;0;
10041;0;0;0;0;0;0;0;18,02;0;0;
10053;0;0;0;0;0;0;0;21,02;0;0;
10059;0;0;0;0;0;0;0;25,77;0;0;
10067;0;0;0;0;0;0;0;30,52;0;0;
10076;0;0;0;0;0;0;0;35,47;0;0;
10082;0;0;0;0;0;0;0;41,52;0;0;
10090;0;0;0;0;0;0;0;47,57;0;0;
10101;0;0;0;0;0;0;0;54,66;0;0;
10108;0;0;0;0;0;0;0;61,75;0;0;
10117;0;0;0;0;0;0;0;68,35;0;0;
10124;0;0;0;0;0;0;0;77,45;0;0;
10133;0;0;0;0;0;0;0;86,55;0;0;
10141;0;0;0;0;0;0;0;95,4;0;0;
10150;0;0;0;0;0;0;0;104,25;0;0;
10159;0;0;0;0;0;0;0;112,65;0;0;
10167;0;0;0;0;0;0;0;119,45;0;0;
10176;0;0;0;0;0;0;0;126,25;0;0;
10183;0;0;0;0;0;0;0;132,7;0;0;
10193;0;0;0;0;0;0;0;139,15;0;0;
10202;0;0;0;0;0;0;0;145,6;0;0;
10215;0;0;0;0;0;0;0;150,1;0;0;
10223;0;0;0;0;0;0;0;154,6;0;0;
10230;0;0;0;0;0;0;0;154,25;0;0;
10238;0;0;0;0;0;0;0;153,9;0;0;
10246;0;0;0;0;0;0;0;153,55;0;0;
10256;0;0;0;0;0;0;0;150,45;0;0;
10265;0;0;0;0;0;0;0;147,35;0;0;
10272;0;0;0;0;0;0;0;142;0;0;
10281;0;0;0;0;0;0;0;136,65;0;0;
10289;0;0;0;0;0;0;0;131,35;0;0;
10297;0;0;0;0;0;0;0;123,55;0;0;
10306;0;0;0;0;0;0;0;115,75;0;0;
10317;0;0;0;0;0;0;0;107,1;0;0;
10324;0;0;0;0;0;0;0;98,45;0;0;
10333;0;0;0;0;0;0;0;89,5;0;0;
10341;0;0;0;0;0;0;0;82,15;0;0;
10350;0;0;0;0;0;0;0;74,8;0;0;
10358;0;0;0;0;0;0;0;67,85;0;0;
10366;0;0;0;0;0;0;0;60,9;0;0;
10374;0;0;0;0;0;0;0;53,95;0;0;
10382;0;0;0;0;0;0;0;46,8;0;0;
10391;0;0;0;0;0;0;0;39,65;0;0;
10399;0;0;0;0;0;0;0;35,3;0;0;
10407;0;0;0;0;0;0;0;30,95;0;0;
10416;0;0;0;0;0;0;0;26,6;0;0;
10423;0;0;0;0;0;0;0;23,9;0;0;
10432;0;0;0;0;0;0;0;21,2;0;0;
10440;0;0;0;0;0;0;0;19,8;0;0;
10448;0;0;0;0;0;0;0;18,4;0;0;
10458;0;0;0;0;0;0;0;16,95;0;0;
10465;0;0;0;0;0;0;0;16,55;0;0;
10473;0;0;0;0;0;0;0;16,15;0;0;
10480;0;0;0;0;0;0;0;16,2;0;0;
10488;0;0;0;0;0;0;0;16,25;0;0;
10497;0;0;0;0;0;0;0;16,6;0;0;
10506;0;0;0;0;0;0;0;16,55;0;0;
10513;0;0;0;0;0;0;0;16,5;0;0;
10523;0;0;0;0;0;0;0;15,7;0;0;
10531;0;0;0;0;0;0;0;15,1;0;0;
10538;0;0;0;0;0;0;0;14,5;0;0;
10551;0;0;0;0;0;0;0;17,45;0;0;
10559;0;0;0;0;0;0;0;20,4;0;0;
10567;0;0;0;0;0;0;0;26,5;0;0;
10575;0;0;0;0;0;0;0;32,6;0;0;
10583;0;0;0;0;0;0;0;38,7;0;0;
10591;0;0;0;0;0;0;0;43,7;0;0;
10599;0;0;0;0;0;0;0;48,7;0;0;
10607;0;0;0;0;0;0;0;53,8;0;0;
10615;0;0;0;0;0;0;0;59,5;0;0;
10622;0;0;0;0;0;0;0;65,2;0;0;
10630;0;0;0;0;0;0;0;69,85;0;0;
10638;0;0;0;0;0;0;0;75,75;0;0;
10646;0;0;0;0;0;0;0;82,05;0;0;
10654;0;0;0;0;0;0;0;89,8;0;0;
10666;0;0;0;0;0;0;0;97,55;0;0;
10674;0;0;0;0;0;0;0;103,85;0;0;
10682;0;0;0;0;0;0;0;110,15;0;0;
10690;0;0;0;0;0;0;0;116,45;0;0;
10699;0;0;0;0;0;0;0;120,4;0;0;
10706;0;0;0;0;0;0;0;124,35;0;0;
10723;0;0;0;0;0;0;0;125,35;0;0;
10732;0;0;0;0;0;0;0;125,1;0;0;
10743;0;0;0;0;0;0;0;122,05;0;0;
10752;0;0;0;0;0;0;0;117,95;0;0;
10761;0;0;0;0;0;0;0;113,85;0;0;
10770;0;0;0;0;0;0;0;110,1;0;0;
10777;0;0;0;0;0;0;0;106,35;0;0;
10785;0;0;0;0;0;0;0;102,45;0;0;
10792;0;0;0;0;0;0;0;97,95;0;0;
10800;0;0;0;0;0;0;0;93,25;0;0;
10808;0;0;0;0;0;0;0;88,55;0;0;
10817;0;0;0;0;0;0;0;82,6;0;0;
10827;0;0;0;0;0;0;0;76,2;0;0;
10836;0;0;0;0;0;0;0;68,35;0;0;
10845;0;0;0;0;0;0;0;60,5;0;0;
10853;0;0;0;0;0;0;0;54,5;0;0;
10862;0;0;0;0;0;0;0;48,5;0;0;
10872;0;0;0;0;0;0;0;42,05;0;0;
10880;0;0;0;0;0;0;0;37,75;0;0;
10888;0;0;0;0;0;0;0;33,1;0;0;
10896;0;0;0;0;0;0;0;28,45;0;0;
10904;0;0;0;0;0;0;0;25,05;0;0;
10913;0;0;0;0;0;0;0;21,9;0;0;
10921;0;0;0;0;0;0;0;19,8;0;0;
10929;0;0;0;0;0;0;0;17,46;0;0;
10936;0;0;0;0;0;0;0;15,87;0;0;
10944;0;0;0;0;0;0;0;14,28;0;0;
10952;0;0;0;0;0;0;0;13,29;0;0;
10960;0;0;0;0;0;0;0;12,3;0;0;
10971;0;0;0;0;0;0;0;11,51;0;0;
10978;0;0;0;0;0;0;0;10,37;0;0;
10986;0;0;0;0;0;0;0;9,23;0;0;
10994;0;0;0;0;0;0;0;8,54;0;0;
11000;0;0;0;0;0;0;0;7,85;0;0;
11011;0;0;0;0;0;0;0;7,16;0;0;
11019;0;0;0;0;0;0;0;6,62;0;0;
11026;0;0;0;0;0;0;0;6,08;0;0;
11035;0;0;0;0;0;0;0;5,64;0;0;
11041;0;0;0;0;0;0;0;5,2;0;0;
11051;0;0;0;0;0;0;0;5,11;0;0;
11060;0;0;0;0;0;0;0;5,07;0;0;
11068;0;0;0;0;0;0;0;5,03;0;0;
11079;0;0;0;0;0;0;0;4,74;0;0;
11089;0;0;0;0;0;0;0;4,4;0;0;
11096;0;0;0;0;0;0;0;4,3;0;0;
11103;0;0;0;0;0;0;0;4,29;0;0;
11111;0;0;0;0;0;0;0;4,28;0;0;
11119;0;0;0;0;0;0;0;3,82;0;0;
11127;0;0;0;0;0;0;0;3,36;0;0;
11135;0;0;0;0;0;0;0;2,9;0;0;
11143;0;0;0;0;0;0;0;2,94;0;0;
11152;0;0;0;0;0;0;0;2,98;0;0;
11161;0;0;0;0;0;0;0;3,02;0;0;
11170;0;0;0;0;0;0;0;2,86;0;0;
11178;0;0;0;0;0;0;0;2,7;0;0;
11186;0;0;0;0;0;0;0;2,45;0;0;
11193;0;0;0;0;0;0;0;2,2;0;0;
11203;0;0;0;0;0;0;0;2,3;0;0;
11217;0;0;0;0;0;0;0;2,5;0;0;
11225;0;0;0;0;0;0;0;2,7;0;0;
11231;0;0;0;0;0;0;0;2,9;0;0;
11238;0;0;0;0;0;0;0;3,1;0;0;
11247;0;0;0;0;0;0;0;3,3;0;0;
11255;0;0;0;0;0;0;0;3,55;0;0;
11265;0;0;0;0;0;0;0;3,8;0;0;
11272;0;0;0;0;0;0;0;4,16;0;0;
11282;0;0;0;0;0;0;0;4,52;0;0;
11292;0;0;0;0;0;0;0;4,47;0;0;
11300;0;0;0;0;0;0;0;4,42;0;0;
11312;0;0;0;0;0;0;0;4,37;0;0;
11320;0;0;0;0;0;0;0;7,72;0;0;
11328;0;0;0;0;0;0;0;11,07;0;0;
11336;0;0;0;0;0;0;0;14,97;0;0;
11345;0;0;0;0;0;0;0;19,07;0;0;
11354;0;0;0;0;0;0;0;23,17;0;0;
11361;0;0;0;0;0;0;0;27,26;0;0;
11369;0;0;0;0;0;0;0;31,35;0;0;
11377;0;0;0;0;0;0;0;39,09;0;0;
11384;0;0;0;0;0;0;0;46,73;0;0;
11395;0;0;0;0;0;0;0;54,37;0;0;
11402;0;0;0;0;0;0;0;61,31;0;0;
11410;0;0;0;0;0;0;0;68,25;0;0;
11419;0;0;0;0;0;0;0;75,44;0;0;
11427;0;0;0;0;0;0;0;82,63;0;0;
11436;0;0;0;0;0;0;0;89,82;0;0;
11444;0;0;0;0;0;0;0;94,81;0;0;
11451;0;0;0;0;0;0;0;99,8;0;0;
11460;0;0;0;0;0;0;0;105,2;0;0;
11468;0;0;0;0;0;0;0;111,55;0;0;
11476;0;0;0;0;0;0;0;117,9;0;0;
11486;0;0;0;0;0;0;0;119,4;0;0;
11494;0;0;0;0;0;0;0;120,9;0;0;
11503;0;0;0;0;0;0;0;120,6;0;0;
11512;0;0;0;0;0;0;0;120,3;0;0;
11519;0;0;0;0;0;0;0;120;0;0;
11528;0;0;0;0;0;0;0;118,9;0;0;
11535;0;0;0;0;0;0;0;117,8;0;0;
11547;0;0;0;0;0;0;0;113,05;0;0;
11555;0;0;0;0;0;0;0;107,5;0;0;
11563;0;0;0;0;0;0;0;101,95;0;0;
11571;0;0;0;0;0;0;0;96,05;0;0;
11579;0;0;0;0;0;0;0;90,15;0;0;
11588;0;0;0;0;0;0;0;84;0;0;
11596;0;0;0;0;0;0;0;77,35;0;0;
11605;0;0;0;0;0;0;0;70,7;0;0;
11613;0;0;0;0;0;0;0;65,4;0;0;
11621;0;0;0;0;0;0;0;60,1;0;0;
11632;0;0;0;0;0;0;0;54,8;0;0;
11641;0;0;0;0;0;0;0;48,46;0;0;
11650;0;0;0;0;0;0;0;42,12;0;0;
11658;0;0;0;0;0;0;0;37,02;0;0;
11668;0;0;0;0;0;0;0;31,92;0;0;
11677;0;0;0;0;0;0;0;28,52;0;0;
11685;0;0;0;0;0;0;0;25,12;0;0;
11698;0;0;0;0;0;0;0;21,72;0;0;
11707;0;0;0;0;0;0;0;18,77;0;0;
11720;0;0;0;0;0;0;0;15,82;0;0;
11731;0;0;0;0;0;0;0;13,47;0;0;
11739;0;0;0;0;0;0;0;11,92;0;0;
11746;0;0;0;0;0;0;0;10,07;0;0;
11755;0;0;0;0;0;0;0;9,22;0;0;
11763;0;0;0;0;0;0;0;8,82;0;0;
11771;0;0;0;0;0;0;0;8,42;0;0;
11784;0;0;0;0;0;0;0;8,47;0;0;
11792;0;0;0;0;0;0;0;8,52;0;0;
11801;0;0;0;0;0;0;0;9,22;0;0;
11809;0;0;0;0;0;0;0;9,92;0;0;
11817;0;0;0;0;0;0;0;10,62;0;0;
11826;0;0;0;0;0;0;0;11,06;0;0;
11834;0;0;0;0;0;0;0;11,5;0;0;
11841;0;0;0;0;0;0;0;12;0;0;
11849;0;0;0;0;0;0;0;15,25;0;0;
11858;0;0;0;0;0;0;0;18,05;0;0;
11866;0;0;0;0;0;0;0;20,45;0;0;
11873;0;0;0;0;0;0;0;22,85;0;0;
11882;0;0;0;0;0;0;0;25,55;0;0;
11890;0;0;0;0;0;0;0;28,35;0;0;
11901;0;0;0;0;0;0;0;30,55;0;0;
11909;0;0;0;0;0;0;0;33,45;0;0;
11917;0;0;0;0;0;0;0;36,65;0;0;
11927;0;0;0;0;0;0;0;39,85;0;0;
11935;0;0;0;0;0;0;0;42,55;0;0;
11943;0;0;0;0;0;0;0;45,25;0;0;
11950;0;0;0;0;0;0;0;46,85;0;0;
11959;0;0;0;0;0;0;0;48,45;0;0;
11967;0;0;0;0;0;0;0;50,05;0;0;
11976;0;0;0;0;0;0;0;51,45;0;0;
11984;0;0;0;0;0;0;0;52,85;0;0;
11994;0;0;0;0;0;0;0;56,2;0;0;
12003;0;0;0;0;0;0;0;59,55;0;0;
12011;0;0;0;0;0;0;0;62,9;0;0;
12019;0;0;0;0;0;0;0;64,2;0;0;
12026;0;0;0;0;0;0;0;65,5;0;0;
12036;0;0;0;0;0;0;0;66,7;0;0;
12046;0;0;0;0;0;0;0;67,9;0;0;
12056;0;0;0;0;0;0;0;69,1;0;0;
12064;0;0;0;0;0;0;0;68,6;0;0;
12071;0;0;0;0;0;0;0;68,1;0;0;
12079;0;0;0;0;0;0;0;66,2;0;0;
12088;0;0;0;0;0;0;0;64,3;0;0;
12097;0;0;0;0;0;0;0;62,4;0;0;
12107;0;0;0;0;0;0;0;60,35;0;0;
12115;0;0;0;0;0;0;0;58,3;0;0;
12122;0;0;0;0;0;0;0;57,45;0;0;
12130;0;0;0;0;0;0;0;56,6;0;0;
12140;0;0;0;0;0;0;0;55,75;0;0;
12147;0;0;0;0;0;0;0;54,1;0;0;
12155;0;0;0;0;0;0;0;52,45;0;0;
12163;0;0;0;0;0;0;0;49,2;0;0;
12170;0;0;0;0;0;0;0;45,8;0;0;
12179;0;0;0;0;0;0;0;42,4;0;0;
12187;0;0;0;0;0;0;0;38,2;0;0;
12196;0;0;0;0;0;0;0;34;0;0;
12208;0;0;0;0;0;0;0;30,3;0;0;
12216;0;0;0;0;0;0;0;26,45;0;0;
12229;0;0;0;0;0;0;0;22,6;0;0;
12236;0;0;0;0;0;0;0;20,2;0;0;
12243;0;0;0;0;0;0;0;17,8;0;0;
12250;0;0;0;0;0;0;0;16,11;0;0;
12258;0;0;0;0;0;0;0;14,42;0;0;
12268;0;0;0;0;0;0;0;12,73;0;0;
12276;0;0;0;0;0;0;0;11,59;0;0;
12283;0;0;0;0;0;0;0;10,45;0;0;
12292;0;0;0;0;0;0;0;8,86;0;0;
12301;0;0;0;0;0;0;0;7,27;0;0;
12314;0;0;0;0;0;0;0;5,68;0;0;
12322;0;0;0;0;0;0;0;5,09;0;0;
12331;0;0;0;0;0;0;0;4,5;0;0;
12339;0;0;0;0;0;0;0;4,35;0;0;
12349;0;0;0;0;0;0;0;4,35;0;0;
12356;0;0;0;0;0;0;0;4,25;0;0;
12364;0;0;0;0;0;0;0;4,25;0;0;
12371;0;0;0;0;0;0;0;4,25;0;0;
12381;0;0;0;0;0;0;0;4,75;0;0;
12387;0;0;0;0;0;0;0;5,4;0;0;
12398;0;0;0;0;0;0;0;6,05;0;0;
12407;0;0;0;0;0;0;0;8,7;0;0;
12415;0;0;0;0;0;0;0;11,35;0;0;
12423;0;0;0;0;0;0;0;14,89;0;0;
12431;0;0;0;0;0;0;0;18,43;0;0;
12441;0;0;0;0;0;0;0;21,72;0;0;
12449;0;0;0;0;0;0;0;24,66;0;0;
12457;0;0;0;0;0;0;0;27,6;0;0;
12464;0;0;0;0;0;0;0;31,19;0;0;
12472;0;0;0;0;0;0;0;34,78;0;0;
12481;0;0;0;0;0;0;0;38,37;0;0;
12489;0;0;0;0;0;0;0;44,01;0;0;
12497;0;0;0;0;0;0;0;49,65;0;0;
12505;0;0;0;0;0;0;0;56,8;0;0;
12514;0;0;0;0;0;0;0;63,95;0;0;
12524;0;0;0;0;0;0;0;71,2;0;0;
12533;0;0;0;0;0;0;0;76,85;1;0;
12541;0;0;0;0;0;0;0;82,5;1;0;
12550;0;0;0;0;0;0;0;87,15;1;0;
12558;0;0;0;0;0;0;0;91,8;1;0;
12567;0;0;0;0;0;0;0;96,45;1;0;
12575;0;0;0;0;0;0;0;99,55;1;0;
12583;0;0;0;0;0;0;0;102,65;1;0;
12592;0;0;0;0;0;0;0;106,2;1;0;
12600;0;0;0;0;0;0;0;109,75;1;0;
12609;0;0;0;0;0;0;0;113,55;1;0;
12617;0;0;0;0;0;0;0;118,45;1;0;
12626;0;0;0;0;0;0;0;123,35;1;0;
12635;0;0;0;0;0;0;0;125,6;1;0;
12644;0;0;0;0;0;0;0;127,85;1;0;
12653;0;0;0;0;0;0;0;130,1;1;0;
12661;0;0;0;0;0;0;0;129,3;1;0;
12668;0;0;0;0;0;0;0;128,5;1;0;
12676;0;0;0;0;0;0;0;124;1;0;
12684;0;0;0;0;0;0;0;119,5;1;0;
12693;0;0;0;0;0;0;0;115;1;0;
12700;0;0;0;0;0;0;0;111,75;1;0;
12708;0;0;0;0;0;0;0;108,5;1;0;
12720;0;0;0;0;0;0;0;105,75;1;0;
12732;0;0;0;0;0;0;0;102,3;1;0;
12745;0;0;0;0;0;0;0;98,85;1;0;
12752;0;0;0;0;0;0;0;94,65;1;0;
12759;0;0;0;0;0;0;0;90,45;1;0;
12768;0;0;0;0;0;0;0;84,6;1;0;
12777;0;0;0;0;0;0;0;78,75;1;0;
12786;0;0;0;0;0;0;0;72,85;1;0;
12794;0;0;0;0;0;0;0;65,85;1;0;
12801;0;0;0;0;0;0;0;58,85;1;0;
12815;0;0;0;0;0;0;0;54;1;0;
12822;0;0;0;0;0;0;0;49,15;1;0;
12830;0;0;0;0;0;0;0;43,85;1;0;
12838;0;0;0;0;0;0;0;39,55;1;0;
12847;0;0;0;0;0;0;0;35,25;1;0;
12855;0;0;0;0;0;0;0;32,7;1;0;
12864;0;0;0;0;0;0;0;30,15;0;0;
12872;0;0;0;0;0;0;0;29,15;0;0;
12880;0;0;0;0;0;0;0;28,5;0;0;
12888;0;0;0;0;0;0;0;29,3;0;0;
12897;0;0;0;0;0;0;0;30,1;0;0;
12906;0;0;0;0;0;0;0;31,6;0;0;
12913;0;0;0;0;0;0;0;32,05;0;0;
12922;0;0;0;0;0;0;0;32,95;0;0;
12931;0;0;0;0;0;0;0;33,8;0;0;
12938;0;0;0;0;0;0;0;34,95;0;0;
12946;0;0;0;0;0;0;0;36,1;0;0;
12956;0;0;0;0;0;0;0;37,8;0;0;
12965;0;0;0;0;0;0;0;39,5;0;0;
12977;0;0;0;0;0;0;0;42,55;0;0;
12986;0;0;0;0;0;0;0;45,85;0;0;
12995;0;0;0;0;0;0;0;47,9;0;0;
13002;0;0;0;0;0;0;0;50,4;0;0;
13011;0;0;0;0;0;0;0;52,9;0;0;
13019;0;0;0;0;0;0;0;54,2;0;0;
13027;0;0;0;0;0;0;0;55,5;0;0;
13036;0;0;0;0;0;0;0;56,05;0;0;
13046;0;0;0;0;0;0;0;55,05;0;0;
13056;0;0;0;0;0;0;0;54,05;0;0;
13063;0;0;0;0;0;0;0;51,2;0;0;
13071;0;0;0;0;0;0;0;48,35;0;0;
13080;0;0;0;0;0;0;0;45,9;0;0;
13088;0;0;0;0;0;0;0;44,5;0;0;
13099;0;0;0;0;0;0;0;43,1;0;0;
13106;0;0;0;0;0;0;0;41,8;0;0;
13114;0;0;0;0;0;0;0;40,5;0;0;
13125;0;0;0;0;0;0;0;39,2;0;0;
13133;0;0;0;0;0;0;0;37,4;0;0;
13140;0;0;0;0;0;0;0;35,6;0;0;
13147;0;0;0;0;0;0;0;32,05;0;0;
13155;0;0;0;0;0;0;0;28,5;0;0;
13163;0;0;0;0;0;0;0;26,2;0;0;
13173;0;0;0;0;0;0;0;23,5;0;0;
13180;0;0;0;0;0;0;0;20,8;0;0;
13188;0;0;0;0;0;0;0;19,05;0;0;
13195;0;0;0;0;0;0;0;17,3;0;0;
13203;0;0;0;0;0;0;0;16,3;0;0;
13211;0;0;0;0;0;0;0;15,26;0;0;
13219;0;0;0;0;0;0;0;14,22;0;0;
13228;0;0;0;0;0;0;0;13,58;0;0;
13237;0;0;0;0;0;0;0;13,09;0;0;
13250;0;0;0;0;0;0;0;12,2;0;0;
13268;0;0;0;0;0;0;0;11,46;0;0;
13274;0;0;0;0;0;0;0;10,72;0;0;
13282;0;0;0;0;0;0;0;9,93;0;0;
13290;0;0;0;0;0;0;0;9,14;1;0;
13299;0;0;0;0;0;0;0;8,2;1;0;
13311;0;0;0;0;0;0;0;7,26;1;0;
13324;0;0;0;0;0;0;0;6,11;1;0;
13335;0;0;0;0;0;0;0;5,36;1;0;
13351;0;0;0;0;0;0;0;4,62;1;0;
13365;0;0;0;0;0;0;0;3,88;1;0;
13374;0;0;0;0;0;0;0;3,74;1;0;
13386;0;0;0;0;0;0;0;3,6;1;0;
13397;0;0;0;0;0;0;0;3,66;1;0;
13406;0;0;0;0;0;0;0;3,72;1;0;
13413;0;0;0;0;0;0;0;3,67;1;0;
13423;0;0;0;0;0;0;0;3,66;1;0;
13433;0;0;0;0;0;0;0;3,95;1;0;
13440;0;0;0;0;0;0;0;4,24;1;0;
13448;0;0;0;0;0;0;0;4,43;1;0;
13455;0;0;0;0;0;0;0;4,62;1;0;
13463;0;0;0;0;0;0;0;4,56;1;0;
13471;0;0;0;0;0;0;0;4,5;1;0;
13481;0;0;0;0;0;0;0;4,44;1;0;
13490;0;0;0;0;0;0;0;4,18;1;0;
13497;0;0;0;0;0;0;0;4,07;1;0;
13505;0;0;0;0;0;0;0;3,97;1;0;
13513;0;0;0;0;0;0;0;4,08;1;0;
13521;0;0;0;0;0;0;0;4,19;1;0;
13529;0;0;0;0;0;0;0;4,44;1;0;
13538;0;0;0;0;0;0;0;4,69;1;0;
13549;0;0;0;0;0;0;0;4,74;1;0;
13560;0;0;0;0;0;0;0;4,79;1;0;
13567;0;0;0;0;0;0;0;4,89;1;0;
13575;0;0;0;0;0;0;0;5,09;1;0;
13582;0;0;0;0;0;0;0;5,4;1;0;
13591;0;0;0;0;0;0;0;5,81;1;0;
13600;0;0;0;0;0;0;0;5,92;1;0;
13611;0;0;0;0;0;0;0;6,03;1;0;
13620;0;0;0;0;0;0;0;5,94;1;0;
13630;0;0;0;0;0;0;0;5,85;0;0;
13640;0;0;0;0;0;0;0;5,56;0;0;
13651;0;0;0;0;0;0;0;5,27;0;0;
13662;0;0;0;0;0;0;0;5,02;0;0;
13675;0;0;0;0;0;0;0;4,97;0;0;
13686;0;0;0;0;0;0;0;4,88;0;0;
13693;0;0;0;0;0;0;0;4,78;0;0;
13702;0;0;0;0;0;0;0;4,83;0;0;
13712;0;0;0;0;0;0;0;4,88;0;0;
13720;0;0;0;0;0;0;0;4,63;0;0;
13733;0;0;0;0;0;0;0;4,38;0;0;
13753;0;0;0;0;0;0;0;4,32;0;0;
13764;0;0;0;0;0;0;0;4,26;0;0;
13772;0;0;0;0;0;0;0;4,4;0;0;
13783;0;0;0;0;0;0;0;4,44;0;0;
13797;0;0;0;0;0;0;0;4,43;0;0;
13805;0;0;0;0;0;0;0;4,32;0;0;
13816;0;0;0;0;0;0;0;4,06;0;0;
13829;0;0;0;0;0;0;0;3,8;0;0;
13838;0;0;0;0;0;0;0;3,5;0;0;
13847;0;0;0;0;0;0;0;3,2;0;0;
13862;0;0;0;0;0;0;0;3,35;0;0;
13871;0;0;0;0;0;0;0;3,5;0;0;
13881;0;0;0;0;0;0;0;3,71;0;0;
13891;0;0;0;0;0;0;0;3,92;0;0;
13902;0;0;0;0;0;0;0;4,32;0;0;
13910;0;0;0;0;0;0;0;4,72;0;0;
13918;0;0;0;0;0;0;0;5,12;0;0;
13925;0;0;0;0;0;0;0;5,52;0;0;
13933;0;0;0;0;0;0;0;6,02;0;0;
13945;0;0;0;0;0;0;0;6,52;0;0;
13954;0;0;0;0;0;0;0;6,63;0;0;
13962;0;0;0;0;0;0;0;6,74;0;0;
13972;0;0;0;0;0;0;0;6,65;0;0;
13980;0;0;0;0;0;0;0;6,36;0;0;
13989;0;0;0;0;0;0;0;6,12;0;0;
13998;0;0;0;0;0;0;0;5,88;0;0;
14005;0;0;0;0;0;0;0;5,79;0;0;
14013;0;0;0;0;0;0;0;5,7;0;0;
14021;0;0;0;0;0;0;0;6,05;0;0;
14029;0;0;0;0;0;0;0;6,4;0;0;
14040;0;0;0;0;0;0;0;6,55;0;0;
14047;0;0;0;0;0;0;0;6,7;0;0;
14057;0;0;0;0;0;0;0;6,75;0;0;
14064;0;0;0;0;0;0;0;6,55;0;0;
14073;0;0;0;0;0;0;0;6,2;0;0;
14080;0;0;0;0;0;0;0;5,99;0;0;
14088;0;0;0;0;0;0;0;5,63;0;0;
14097;0;0;0;0;0;0;0;5,27;0;0;
14105;0;0;0;0;0;0;0;5,06;0;0;
14205;0;0;0;0;0;0;0;4,85;0;0;
14222;0;0;0;0;0;0;0;4,74;0;0;
14231;0;0;0;0;0;0;0;4,63;0;0;
14239;0;0;0;0;0;0;0;4,33;0;0;
14248;0;0;0;0;0;0;0;4,23;0;0;
14260;0;0;0;0;0;0;0;4,23;0;0;
14268;0;0;0;0;0;0;0;4,23;0;0;
14278;0;0;0;0;0;0;0;4,43;0;0;
14302;0;0;0;0;0;0;0;4,63;0;0;
14311;0;0;0;0;0;0;0;4,68;0;0;
14316;0;0;0;0;0;0;0;4,73;0;0;
14322;0;0;0;0;0;0;0;4,88;0;0;
14328;0;0;0;0;0;0;0;5,03;0;0;
14335;0;0;0;0;0;0;0;5,28;0;0;
14340;0;0;0;0;0;0;0;5,78;0;0;
14347;0;0;0;0;0;0;0;6,08;0;0;
14354;0;0;0;0;0;0;0;6,24;0;0;
14362;0;0;0;0;0;0;0;6,15;0;0;
14371;0;0;0;0;0;0;0;6,06;0;0;
14380;0;0;0;0;0;0;0;5,77;0;0;
14385;0;0;0;0;0;0;0;5,48;0;0;
14393;0;0;0;0;0;0;0;5,44;0;0;
14403;0;0;0;0;0;0;0;5,4;0;0;
14411;0;0;0;0;0;0;0;5,6;0;0;
14419;0;0;0;0;0;0;0;5,8;0;0;
14426;0;0;0;0;0;0;0;5,8;0;0;
14433;0;0;0;0;0;0;0;5,8;0;0;
14440;0;0;0;0;0;0;0;5,64;0;0;
14447;0;0;0;0;0;0;0;5,48;0;0;
14453;0;0;0;0;0;0;0;5,42;0;0;
14463;0;0;0;0;0;0;0;5,36;0;0;
14472;0;0;0;0;0;0;0;5,2;0;0;
14479;0;0;0;0;0;0;0;5,04;0;0;
14488;0;0;0;0;0;0;0;4,63;0;0;
14497;0;0;0;0;0;0;0;4,22;0;0;
14504;0;0;0;0;0;0;0;3,92;0;0;
14511;0;0;0;0;0;0;0;3,62;0;0;
14519;0;0;0;0;0;0;0;3,72;0;0;
14527;0;0;0;0;0;0;0;3,82;0;0;
14534;0;0;0;0;0;0;0;4,12;0;0;
14540;0;0;0;0;0;0;0;4,42;0;0;
14548;0;0;0;0;0;0;0;4,57;0;0;
14555;0;0;0;0;0;0;0;4,87;0;0;
14562;0;0;0;0;0;0;0;5,12;0;0;
14570;0;0;0;0;0;0;0;5,47;0;0;
14581;0;0;0;0;0;0;0;5,92;0;0;
14590;0;0;0;0;0;0;0;6,37;0;0;
14597;0;0;0;0;0;0;0;6,73;0;0;
14604;0;0;0;0;0;0;0;7,09;0;0;
14615;0;0;0;0;0;0;0;7;0;0;
14621;0;0;0;0;0;0;0;6,91;0;0;
14631;0;0;0;0;0;0;0;6,87;0;0;
14640;0;0;0;0;0;0;0;6,63;0;0;
14648;0;0;0;0;0;0;0;6,54;0;0;
14655;0;0;0;0;0;0;0;6,45;0;0;
14663;0;0;0;0;0;0;0;6,45;0;0;
14675;0;0;0;0;0;0;0;6,45;0;0;
14683;0;0;0;0;0;0;0;6,5;0;0;
14691;0;0;0;0;0;0;0;6,55;0;0;
14699;0;0;0;0;0;0;0;6,45;0;0;
14707;0;0;0;0;0;0;0;6,35;0;0;
14715;0;0;0;0;0;0;0;6,25;0;0;
14723;0;0;0;0;0;0;0;5,8;0;0;
14731;0;0;0;0;0;0;0;5,35;0;0;
14740;0;0;0;0;0;0;0;4,8;0;0;
14751;0;0;0;0;0;0;0;4,54;0;0;
14759;0;0;0;0;0;0;0;4,28;0;0;
14767;0;0;0;0;0;0;0;4,17;0;0;
14775;0;0;0;0;0;0;0;4,06;0;0;
14790;0;0;0;0;0;0;0;4,05;0;0;
14803;0;0;0;0;0;0;0;4,04;0;0;
14810;0;0;0;0;0;0;0;3,88;0;0;
14819;0;0;0;0;0;0;0;3,92;0;0;
14826;0;0;0;0;0;0;0;3,97;0;0;
14834;0;0;0;0;0;0;0;4,02;0;0;
14846;0;0;0;0;0;0;0;4,07;0;0;
14853;0;0;0;0;0;0;0;4,27;0;0;
14861;0;0;0;0;0;0;0;4,27;0;0;
14868;0;0;0;0;0;0;0;4,37;0;0;
14875;0;0;0;0;0;0;0;4,52;0;0;
14884;0;0;0;0;0;0;0;4,67;0;0;
14892;0;0;0;0;0;0;0;4,92;0;0;
14898;0;0;0;0;0;0;0;5,37;0;0;
14908;0;0;0;0;0;0;0;5,82;0;0;
14914;0;0;0;0;0;0;0;6,37;0;0;
14921;0;0;0;0;0;0;0;6,63;0;0;
14929;0;0;0;0;0;0;0;6,89;0;0;
14938;0;0;0;0;0;0;0;6,9;0;0;
14946;0;0;0;0;0;0;0;6,91;0;0;
14955;0;0;0;0;0;0;0;6,82;0;0;
14963;0;0;0;0;0;0;0;6,73;0;0;
14973;0;0;0;0;0;0;0;6,79;0;0;
14987;0;0;0;0;0;0;0;6,75;0;0;
14995;0;0;0;0;0;0;0;6,7;0;0;
15003;0;0;0;0;0;0;0;6,8;0;0;
15012;0;0;0;0;0;0;0;6,9;0;0;
15021;0;0;0;0;0;0;0;6,95;0;0;
15029;0;0;0;0;0;0;0;7;0;0;
15036;0;0;0;0;0;0;0;6,95;0;0;
15044;0;0;0;0;0;0;0;6,8;0;0;
15051;0;0;0;0;0;0;0;6,65;0;0;
15059;0;0;0;0;0;0;0;6,4;0;0;
15067;0;0;0;0;0;0;0;6,04;0;0;
15076;0;0;0;0;0;0;0;5,68;0;0;
15084;0;0;0;0;0;0;0;5,42;0;0;
15091;0;0;0;0;0;0;0;5,16;0;0;
15101;0;0;0;0;0;0;0;4,9;0;0;
15109;0;0;0;0;0;0;0;4,84;0;0;
15116;0;0;0;0;0;0;0;4,78;0;0;
15124;0;0;0;0;0;0;0;4,97;0;0;
15131;0;0;0;0;0;0;0;4,96;0;0;
15138;0;0;0;0;0;0;0;4,95;0;0;
15146;0;0;0;0;0;0;0;4,95;0;0;
15154;0;0;0;0;0;0;0;4,95;0;0;
15160;0;0;0;0;0;0;0;4,8;0;0;
15168;0;0;0;0;0;0;0;4,8;0;0;
15175;0;0;0;0;0;0;0;4,7;0;0;
15182;0;0;0;0;0;0;0;4,6;0;0;
15189;0;0;0;0;0;0;0;4,6;0;0;
15197;0;0;0;0;0;0;0;4,7;0;0;
15207;0;0;0;0;0;0;0;4,8;0;0;
15214;0;0;0;0;0;0;0;5;0;0;
15223;0;0;0;0;0;0;0;5,31;0;0;
15232;0;0;0;0;0;0;0;5,62;0;0;
15239;0;0;0;0;0;0;0;5,73;0;0;
15246;0;0;0;0;0;0;0;5,84;0;0;
15254;0;0;0;0;0;0;0;5,9;0;0;
15262;0;0;0;0;0;0;0;5,91;0;0;
15269;0;0;0;0;0;0;0;5,92;0;0;
15277;0;0;0;0;0;0;0;5,78;0;0;
15285;0;0;0;0;0;0;0;5,84;0;0;
15295;0;0;0;0;0;0;0;5,9;0;0;
15303;0;0;0;0;0;0;0;5,89;0;0;
15314;0;0;0;0;0;0;0;5,88;0;0;
15321;0;0;0;0;0;0;0;6,18;0;0;
15327;0;0;0;0;0;0;0;6,33;0;0;
15337;0;0;0;0;0;0;0;6,48;0;0;
15343;0;0;0;0;0;0;0;6,93;0;0;
15351;0;0;0;0;0;0;0;7,28;0;0;
15358;0;0;0;0;0;0;0;7,53;0;0;
15366;0;0;0;0;0;0;0;7,78;0;0;
15375;0;0;0;0;0;0;0;7,93;0;0;
15382;0;0;0;0;0;0;0;7,52;0;0;
15390;0;0;0;0;0;0;0;7,11;0;0;
15398;0;0;0;0;0;0;0;6,7;0;0;
15407;0;0;0;0;0;0;0;6,89;0;0;
15414;0;0;0;0;0;0;0;7,13;0;0;
15422;0;0;0;0;0;0;0;7,67;0;0;
15432;0;0;0;0;0;0;0;8,21;0;0;
15440;0;0;0;0;0;0;0;8,9;0;0;
15447;0;0;0;0;0;0;0;9,49;0;0;
15455;0;0;0;0;0;0;0;10,08;0;0;
15463;0;0;0;0;0;0;0;10,83;0;0;
15471;0;0;0;0;0;0;0;11,38;0;0;
15478;0;0;0;0;0;0;0;11,62;0;0;
15486;0;0;0;0;0;0;0;11,86;0;0;
15493;0;0;0;0;0;0;0;12,05;0;0;
15500;0;0;0;0;0;0;0;11,94;0;0;
15509;0;0;0;0;0;0;0;11,78;0;0;
15516;0;0;0;0;0;0;0;11,72;0;0;
15525;0;0;0;0;0;0;0;11,66;0;0;
15533;0;0;0;0;0;0;0;11,65;0;0;
15540;0;0;0;0;0;0;0;12,2;0;0;
15547;0;0;0;0;0;0;0;12,75;0;0;
15556;0;0;0;0;0;0;0;13,15;0;0;
15563;0;0;0;0;0;0;0;12,95;0;0;
15570;0;0;0;0;0;0;0;12,75;0;0;
15578;0;0;0;0;0;0;0;12,3;0;0;
15585;0;0;0;0;0;0;0;11,85;0;0;
15594;0;0;0;0;0;0;0;11,7;0;0;
15603;0;0;0;0;0;0;0;11,65;0;0;
15614;0;0;0;0;0;0;0;11,6;1;0;
15621;0;0;0;0;0;0;0;12;1;0;
15629;0;0;0;0;0;0;0;12,6;1;0;
15639;0;0;0;0;0;0;0;13,55;1;0;
15650;0;0;0;0;0;0;0;14,5;1;0;
15657;0;0;0;0;0;0;0;14,8;1;0;
15683;0;0;0;0;0;0;0;15,1;1;0;
15691;0;0;0;0;0;0;0;15,45;1;0;
15697;0;0;0;0;0;0;0;15,8;1;0;
15703;0;0;0;0;0;0;0;16,15;1;0;
15709;0;0;0;0;0;0;0;16,45;1;0;
15715;0;0;0;0;0;0;0;16,75;1;0;
15721;0;0;0;0;0;0;0;17,1;1;0;
15728;0;0;0;0;0;0;0;17,6;1;0;
15734;0;0;0;0;0;0;0;18,1;1;0;
15742;0;0;0;0;0;0;0;18,35;1;0;
15750;0;0;0;0;0;0;0;18,55;1;0;
15759;0;0;0;0;0;0;0;18,75;1;0;
15765;0;0;0;0;0;0;0;18,4;1;0;
15771;0;0;0;0;0;0;0;18,05;1;0;
15779;0;0;0;0;0;0;0;17,7;1;0;
15786;0;0;0;0;0;0;0;16,55;1;0;
15794;0;0;0;0;0;0;0;15,4;1;0;
15805;0;0;0;0;0;0;0;13,9;1;0;
15812;0;0;0;0;0;0;0;12,35;1;0;
15822;0;0;0;0;0;0;0;11,5;1;0;
15833;0;0;0;0;0;0;0;10,81;1;0;
15843;0;0;0;0;0;0;0;10,12;1;0;
15850;0;0;0;0;0;0;0;9,63;1;0;
15857;0;0;0;0;0;0;0;9,14;1;0;
15866;0;0;0;0;0;0;0;8,65;1;0;
15873;0;0;0;0;0;0;0;8,41;1;0;
15880;0;0;0;0;0;0;0;8,12;1;0;
15889;0;0;0;0;0;0;0;7,83;1;0;
15898;0;0;0;0;0;0;0;7,74;1;0;
15905;0;0;0;0;0;0;0;7,9;1;0;
15914;0;0;0;0;0;0;0;8,11;1;0;
15921;0;0;0;0;0;0;0;8,32;1;0;
15929;0;0;0;0;0;0;0;8,78;1;0;
15936;0;0;0;0;0;0;0;9,14;1;0;
15944;0;0;0;0;0;0;0;9,5;0;0;
15957;0;0;0;0;0;0;0;10,21;0;0;
15965;0;0;0;0;0;0;0;10,87;0;0;
15973;0;0;0;0;0;0;0;11,53;0;0;
15979;0;0;0;0;0;0;0;12,39;0;0;
15985;0;0;0;0;0;0;0;13,25;0;0;
15993;0;0;0;0;0;0;0;13,95;0;0;
16000;0;0;0;0;0;0;0;14,9;0;0;
16008;0;0;0;0;0;0;0;15,65;0;0;
16016;0;0;0;0;0;0;0;16,4;0;0;
16024;0;0;0;0;0;0;0;17,2;0;0;
16032;0;0;0;0;0;0;0;17,75;0;0;
16041;0;0;0;0;0;0;0;18,2;0;0;
16052;0;0;0;0;0;0;0;18,65;0;0;
16061;0;0;0;0;0;0;0;18,9;0;0;
16071;0;0;0;0;0;0;0;18,95;0;0;
16081;0;0;0;0;0;0;0;18,95;0;0;
16090;0;0;0;0;0;0;0;18,95;0;0;
16098;0;0;0;0;0;0;0;18,95;0;0;
16105;0;0;0;0;0;0;0;19,25;0;0;
16112;0;0;0;0;0;0;0;19,55;0;0;
16120;0;0;0;0;0;0;0;19,85;0;0;
16129;0;0;0;0;0;0;0;20,4;0;0;
16136;0;0;0;0;0;0;0;20,95;0;0;
16146;0;0;0;0;0;0;0;21,35;0;0;
16153;0;0;0;0;0;0;0;21,85;0;0;
16160;0;0;0;0;0;0;0;22,35;0;0;
16167;0;0;0;0;0;0;0;22,75;0;0;
16177;0;0;0;0;0;0;0;23,15;0;0;
16187;0;0;0;0;0;0;0;23,55;0;0;
16193;0;0;0;0;0;0;0;23,95;0;0;
16200;0;0;0;0;0;0;0;24,35;0;0;
16209;0;0;0;0;0;0;0;24,85;0;0;
16216;0;0;0;0;0;0;0;25,45;0;0;
16226;0;0;0;0;0;0;0;26,05;0;0;
16234;0;0;0;0;0;0;0;26,9;0;0;
16241;0;0;0;0;0;0;0;27,75;0;0;
16251;0;0;0;0;0;0;0;28,6;0;0;
16259;0;0;0;0;0;0;0;29,25;0;0;
16268;0;0;0;0;0;0;0;29,7;0;0;
16275;0;0;0;0;0;0;0;29,95;0;0;
16282;0;0;0;0;0;0;0;30,2;0;0;
16289;0;0;0;0;0;0;0;30,25;0;0;
16298;0;0;0;0;0;0;0;30,3;0;0;
16306;0;0;0;0;0;0;0;30,35;0;0;
16314;0;0;0;0;0;0;0;30,3;0;0;
16321;0;0;0;0;0;0;0;30,35;0;0;
16328;0;0;0;0;0;0;0;30,25;0;0;
16340;0;0;0;0;0;0;0;30,15;0;0;
16348;0;0;0;0;0;0;0;30,1;0;0;
16355;0;0;0;0;0;0;0;30;0;0;
16361;0;0;0;0;0;0;0;29,7;0;0;
16368;0;0;0;0;0;0;0;29,4;0;0;
16378;0;0;0;0;0;0;0;29;0;0;
16385;0;0;0;0;0;0;0;28,3;0;0;
16392;0;0;0;0;0;0;0;27,55;0;0;
16399;0;0;0;0;0;0;0;26,8;0;0;
16407;0;0;0;0;0;0;0;25,8;0;0;
16414;0;0;0;0;0;0;0;25;0;0;
16421;0;0;0;0;0;0;0;24,2;0;0;
16429;0;0;0;0;0;0;0;23,55;0;0;
16436;0;0;0;0;0;0;0;22,9;0;0;
16445;0;0;0;0;0;0;0;22,35;0;0;
16455;0;0;0;0;0;0;0;21,8;0;0;
16462;0;0;0;0;0;0;0;21,25;0;0;
16469;0;0;0;0;0;0;0;20,8;0;0;
16479;0;0;0;0;0;0;0;20,25;0;0;
16488;0;0;0;0;0;0;0;19,75;0;0;
16495;0;0;0;0;0;0;0;19,25;0;0;
16504;0;0;0;0;0;0;0;18,7;0;0;
16512;0;0;0;0;0;0;0;18,15;0;0;
16520;0;0;0;0;0;0;0;17,8;0;0;
16527;0;0;0;0;0;0;0;17,45;0;0;
16535;0;0;0;0;0;0;0;17,1;0;0;
16542;0;0;0;0;0;0;0;17,05;0;0;
16551;0;0;0;0;0;0;0;17,05;0;0;
16559;0;0;0;0;0;0;0;17,05;0;0;
16567;0;0;0;0;0;0;0;17,3;0;0;
16575;0;0;0;0;0;0;0;17,35;0;0;
16582;0;0;0;0;0;0;0;17,4;0;0;
16591;0;0;0;0;0;0;0;17,5;0;0;
16599;0;0;0;0;0;0;0;17,3;0;0;
16606;0;0;0;0;0;0;0;17;0;0;
16615;0;0;0;0;0;0;0;16,7;0;0;
16622;0;0;0;0;0;0;0;16,15;0;0;
16630;0;0;0;0;0;0;0;15,5;0;0;
16638;0;0;0;0;0;0;0;14,85;0;0;
16646;0;0;0;0;0;0;0;14,15;0;0;
16657;0;0;0;0;0;0;0;13,45;0;0;
16664;0;0;0;0;0;0;0;12,85;0;0;
16671;0;0;0;0;0;0;0;12,25;0;0;
16680;0;0;0;0;0;0;0;11,55;0;0;
16688;0;0;0;0;0;0;0;10,85;0;0;
16697;0;0;0;0;0;0;0;10,15;0;0;
16705;0;0;0;0;0;0;0;9,29;0;0;
16713;0;0;0;0;0;0;0;8,38;0;0;
16721;0;0;0;0;0;0;0;7,47;0;0;
16729;0;0;0;0;0;0;0;6,76;0;0;
16739;0;0;0;0;0;0;0;6,25;0;0;
16748;0;0;0;0;0;0;0;5,74;0;0;
16756;0;0;0;0;0;0;0;5,23;0;0;
16765;0;0;0;0;0;0;0;5,02;0;0;
16772;0;0;0;0;0;0;0;4,71;0;0;
16780;0;0;0;0;0;0;0;4,4;0;0;
16789;0;0;0;0;0;0;0;4,2;0;0;
16797;0;0;0;0;0;0;0;4;0;0;
16807;0;0;0;0;0;0;0;3,8;0;0;
16815;0;0;0;0;0;0;0;3,75;0;0;
16824;0;0;0;0;0;0;0;3,7;0;0;
16835;0;0;0;0;0;0;0;3,7;0;0;
16845;0;0;0;0;0;0;0;3,7;0;0;
16853;0;0;0;0;0;0;0;3,95;0;0;
16862;0;0;0;0;0;0;0;4,2;0;0;
16871;0;0;0;0;0;0;0;4,45;0;0;
16878;0;0;0;0;0;0;0;4,96;0;0;
16886;0;0;0;0;0;0;0;5,47;0;0;
16893;0;0;0;0;0;0;0;5,98;0;0;
16900;0;0;0;0;0;0;0;6,29;0;0;
16909;0;0;0;0;0;0;0;6,6;0;0;
16916;0;0;0;0;0;0;0;6,71;0;0;
16923;0;0;0;0;0;0;0;6,82;0;0;
16932;0;0;0;0;0;0;0;6,93;0;0;
16946;0;0;0;0;0;0;0;6,89;0;0;
16952;0;0;0;0;0;0;0;6,85;0;0;
16963;0;0;0;0;0;0;0;6,95;0;0;
16971;0;0;0;0;0;0;0;7,05;0;0;
16982;0;0;0;0;0;0;0;7,25;0;0;
16991;0;0;0;0;0;0;0;7,3;0;0;
17011;0;0;0;0;0;0;0;7,4;0;0;
17019;0;0;0;0;0;0;0;7,35;0;0;
17028;0;0;0;0;0;0;0;7,1;0;0;
17036;0;0;0;0;0;0;0;6,7;0;0;
17043;0;0;0;0;0;0;0;6,44;0;0;
17051;0;0;0;0;0;0;0;6,18;0;0;
17063;0;0;0;0;0;0;0;5,82;0;0;
17070;0;0;0;0;0;0;0;5,56;0;0;
17077;0;0;0;0;0;0;0;5,3;0;0;
17083;0;0;0;0;0;0;0;4,94;0;0;
17090;0;0;0;0;0;0;0;4,58;0;0;
17097;0;0;0;0;0;0;0;4,42;0;0;
17104;0;0;0;0;0;0;0;4,11;0;0;
17112;0;0;0;0;0;0;0;3,8;0;0;
17122;0;0;0;0;0;0;0;3,74;0;0;
17128;0;0;0;0;0;0;0;3,84;0;0;
17135;0;0;0;0;0;0;0;3,94;0;0;
17142;0;0;0;0;0;0;0;4,04;0;0;
17149;0;0;0;0;0;0;0;4,14;0;0;
17157;0;0;0;0;0;0;0;4,24;0;0;
17166;0;0;0;0;0;0;0;4,29;0;0;
17173;0;0;0;0;0;0;0;4,49;0;0;
17180;0;0;0;0;0;0;0;4,89;0;0;
17191;0;0;0;0;0;0;0;5,29;0;0;
17198;0;0;0;0;0;0;0;5,6;0;0;
17205;0;0;0;0;0;0;0;5,91;0;0;
17212;0;0;0;0;0;0;0;6,37;0;0;
17220;0;0;0;0;0;0;0;6,73;0;0;
17228;0;0;0;0;0;0;0;7,09;0;0;
17236;0;0;0;0;0;0;0;7,4;0;0;
17243;0;0;0;0;0;0;0;7,71;0;0;
17253;0;0;0;0;0;0;0;8,02;0;0;
17260;0;0;0;0;0;0;0;8,28;0;0;
17267;0;0;0;0;0;0;0;8,54;0;0;
17278;0;0;0;0;0;0;0;8,6;0;0;
17287;0;0;0;0;0;0;0;8,5;0;0;
17297;0;0;0;0;0;0;0;8,4;0;0;
17305;0;0;0;0;0;0;0;8,4;0;0;
17312;0;0;0;0;0;0;0;8,3;0;0;
17319;0;0;0;0;0;0;0;8,35;0;0;
17327;0;0;0;0;0;0;0;8,4;0;0;
17335;0;0;0;0;0;0;0;8,3;0;0;
17343;0;0;0;0;0;0;0;8,1;0;0;
17355;0;0;0;0;0;0;0;7,9;0;0;
17363;0;0;0;0;0;0;0;7,39;0;0;
17370;0;0;0;0;0;0;0;6,88;0;0;
17378;0;0;0;0;0;0;0;6,22;0;0;
17385;0;0;0;0;0;0;0;5,81;0;0;
17392;0;0;0;0;0;0;0;5,4;0;0;
17399;0;0;0;0;0;0;0;5,14;0;0;
17407;0;0;0;0;0;0;0;4,88;0;0;
17415;0;0;0;0;0;0;0;4,62;0;0;
17423;0;0;0;0;0;0;0;4,56;0;0;
17431;0;0;0;0;0;0;0;4,35;0;0;
17439;0;0;0;0;0;0;0;4,34;0;0;
17446;0;0;0;0;0;0;0;4,29;0;0;
17453;0;0;0;0;0;0;0;4,24;0;0;
17462;0;0;0;0;0;0;0;4,09;0;0;
17470;0;0;0;0;0;0;0;4,14;0;0;
17479;0;0;0;0;0;0;0;4,04;0;0;
17488;0;0;0;0;0;0;0;3,94;0;0;
17495;0;0;0;0;0;0;0;3,99;0;0;
17502;0;0;0;0;0;0;0;4,14;0;0;
17509;0;0;0;0;0;0;0;4,44;0;0;
17517;0;0;0;0;0;0;0;5;0;0;
17526;0;0;0;0;0;0;0;5,56;0;0;
17533;0;0;0;0;0;0;0;6,27;0;0;
17541;0;0;0;0;0;0;0;6,73;0;0;
17550;0;0;0;0;0;0;0;7,19;1;0;
17559;0;0;0;0;0;0;0;7,65;1;0;
17567;0;0;0;0;0;0;0;8,11;1;0;
17574;0;0;0;0;0;0;0;8,37;1;0;
17581;0;0;0;0;0;0;0;8,63;1;0;
17589;0;0;0;0;0;0;0;9,04;1;0;
17597;0;0;0;0;0;0;0;9,25;1;0;
17606;0;0;0;0;0;0;0;9,5;1;0;
17614;0;0;0;0;0;0;0;9,75;1;0;
17620;0;0;0;0;0;0;0;9,9;1;0;
17627;0;0;0;0;0;0;0;9,85;1;0;
17636;0;0;0;0;0;0;0;9,8;1;0;
17642;0;0;0;0;0;0;0;9,9;1;0;
17650;0;0;0;0;0;0;0;9,85;1;0;
17658;0;0;0;0;0;0;0;9,8;1;0;
17666;0;0;0;0;0;0;0;9,6;1;0;
17673;0;0;0;0;0;0;0;9,4;1;0;
17684;0;0;0;0;0;0;0;9;1;0;
17691;0;0;0;0;0;0;0;8,45;1;0;
17699;0;0;0;0;0;0;0;7,9;1;0;
17707;0;0;0;0;0;0;0;7,24;1;0;
17715;0;0;0;0;0;0;0;6,58;1;0;
17722;0;0;0;0;0;0;0;6,02;1;0;
17730;0;0;0;0;0;0;0;5,66;1;0;
17739;0;0;0;0;0;0;0;5,3;1;0;
17745;0;0;0;0;0;0;0;4,79;1;0;
17753;0;0;0;0;0;0;0;4,48;1;0;
17761;0;0;0;0;0;0;0;4,17;1;0;
17769;0;0;0;0;0;0;0;3,97;1;0;
17776;0;0;0;0;0;0;0;3,87;1;0;
17785;0;0;0;0;0;0;0;3,77;1;0;
17793;0;0;0;0;0;0;0;3,87;1;0;
17801;0;0;0;0;0;0;0;3,82;1;0;
17808;0;0;0;0;0;0;0;3,92;1;0;
17815;0;0;0;0;0;0;0;4,02;1;0;
17824;0;0;0;0;0;0;0;4,12;1;0;
17832;0;0;0;0;0;0;0;4,37;1;0;
17838;0;0;0;0;0;0;0;4,82;1;0;
17847;0;0;0;0;0;0;0;5,27;1;0;
17854;0;0;0;0;0;0;0;5,77;1;0;
17866;0;0;0;0;0;0;0;6,38;1;0;
17875;0;0;0;0;0;0;0;7,14;1;0;
17885;0;0;0;0;0;0;0;7,8;0;0;
17893;0;0;0;0;0;0;0;8,46;0;0;
17901;0;0;0;0;0;0;0;8,97;0;0;
17914;0;0;0;0;0;0;0;9,63;0;0;
17921;0;0;0;0;0;0;0;10,04;0;0;
17930;0;0;0;0;0;0;0;10,45;0;0;
17937;0;0;0;0;0;0;0;10,65;0;0;
17946;0;0;0;0;0;0;0;10,85;0;0;
17956;0;0;0;0;0;0;0;11,05;0;0;
17965;0;0;0;0;0;0;0;11,1;0;0;
17974;0;0;0;0;0;0;0;11,15;0;0;
17981;0;0;0;0;0;0;0;18,74;0;0;
17988;0;0;0;0;0;0;0;26,33;0;0;
17998;0;0;0;0;0;0;0;33,92;0;0;
18006;0;0;0;0;0;0;0;53,11;0;0;
18013;0;0;0;0;0;0;0;72,3;0;0;
18021;0;0;0;0;0;0;0;99,59;0;0;
18028;0;0;0;0;0;0;0;126,83;0;0;
18038;0;0;0;0;0;0;0;154,07;0;0;
18046;0;0;0;0;0;0;0;186,66;0;0;
18054;0;0;0;0;0;0;0;219,25;0;0;
18061;0;0;0;0;0;0;0;251,84;0;0;
18069;0;0;0;0;0;0;0;288,38;0;0;
18076;0;0;0;0;0;0;0;324,92;0;0;
18086;0;0;0;0;0;0;0;364,26;0;0;
18096;0;0;0;0;0;0;0;403,6;0;0;
18106;0;0;0;0;0;0;0;443,04;0;0;
18114;0;0;0;0;0;0;0;484,28;0;0;
18121;0;0;0;0;0;0;0;525,52;0;0;
18128;0;0;0;0;0;0;0;567,11;0;0;
18136;0;0;0;0;0;0;0;608,7;0;0;
18144;0;0;0;0;0;0;0;642,6;0;0;
18152;0;0;0;0;0;0;0;676,5;0;0;
18159;0;0;0;0;0;0;0;710,4;0;0;
18168;0;0;0;0;0;0;0;732,55;0;0;
18175;0;0;0;0;0;0;0;754,7;0;0;
18182;0;0;0;0;0;0;0;768,75;0;0;
18191;0;0;0;0;0;0;0;782,8;0;0;
18199;0;0;0;0;0;0;0;790,55;0;0;
18207;0;0;0;0;0;0;0;792,8;0;0;
18215;0;0;0;0;0;0;0;787,75;0;0;
18223;0;0;0;0;0;0;0;782,7;0;0;
18233;0;0;0;0;0;0;0;773,85;0;0;
18240;0;0;0;0;0;0;0;770,35;0;0;
18249;0;0;0;0;0;0;0;764,3;0;0;
18257;0;0;0;0;0;0;0;759,55;0;0;
18264;0;0;0;0;0;0;0;754,8;0;0;
18271;0;0;0;0;0;0;0;748,25;0;0;
18278;0;0;0;0;0;0;0;744,7;0;0;
18289;0;0;0;0;0;0;0;740,75;0;0;
18298;0;0;0;0;0;0;0;739,1;0;0;
18304;0;0;0;0;0;0;0;737,45;0;0;
18315;0;0;0;0;0;0;0;735,8;0;0;
18322;0;0;0;0;0;0;0;735,8;0;0;
18329;0;0;0;0;0;0;0;735,8;0;0;
18337;0;0;0;0;0;0;0;735,8;0;0;
18345;0;0;0;0;0;0;0;735,8;0;0;
18355;0;0;0;0;0;0;0;735,8;0;0;
18363;0;0;0;0;0;0;0;742,1;0;0;
18376;0;0;0;0;0;0;0;748,4;0;0;
18384;0;0;0;0;0;0;0;762;0;0;
18393;0;0;0;0;0;0;0;775,6;0;0;
18402;0;0;0;0;0;0;0;789,2;0;0;
18410;0;0;0;0;0;0;0;797,45;0;0;
18418;0;0;0;0;0;0;0;805,7;0;0;
18426;0;0;0;0;0;0;0;809,4;0;0;
18435;0;0;0;0;0;0;0;813,1;0;0;
18445;0;0;0;0;0;0;0;816,8;0;0;
18451;0;0;0;0;0;0;0;805,1;0;0;
18458;0;0;0;0;0;0;0;793,4;0;0;
18464;0;0;0;0;0;0;0;779,4;0;0;
18470;0;0;0;0;0;0;0;756,9;0;0;
18476;0;0;0;0;0;0;0;734,4;0;0;
18483;0;0;0;0;0;0;0;710,25;0;0;
18494;0;0;0;0;0;0;0;680,15;0;0;
18500;0;0;0;0;0;0;0;650,05;0;0;
18509;0;0;0;0;0;0;0;619,95;0;0;
18517;0;0;0;0;0;0;0;585,75;0;0;
18522;0;0;0;0;0;0;0;551,55;0;0;
18531;0;0;0;0;0;0;0;517,35;0;0;
18538;0;0;0;0;0;0;0;480,45;0;0;
18546;0;0;0;0;0;0;0;443,55;0;0;
18553;0;0;0;0;0;0;0;406,65;0;0;
18560;0;0;0;0;0;0;0;368,05;0;0;
18567;0;0;0;0;0;0;0;329,45;0;0;
18574;0;0;0;0;0;0;0;302,3;0;0;
18582;0;0;0;0;0;0;0;275,15;0;0;
18590;0;0;0;0;0;0;0;248;0;0;
18597;0;0;0;0;0;0;0;243,9;0;0;
18604;0;0;0;0;0;0;0;239,8;0;0;
18612;0;0;0;0;0;0;0;235,7;0;0;
18619;0;0;0;0;0;0;0;247,4;0;0;
18627;0;0;0;0;0;0;0;259,1;0;0;
18636;0;0;0;0;0;0;0;270,8;0;0;
18642;0;0;0;0;0;0;0;293,4;0;0;
18649;0;0;0;0;0;0;0;316;0;0;
18659;0;0;0;0;0;0;0;338,6;0;0;
18667;0;0;0;0;0;0;0;368,95;0;0;
18674;0;0;0;0;0;0;0;399,3;0;0;
18682;0;0;0;0;0;0;0;432,3;0;0;
18690;0;0;0;0;0;0;0;468;0;0;
18702;0;0;0;0;0;0;0;503,7;0;0;
18710;0;0;0;0;0;0;0;540,6;0;0;
18718;0;0;0;0;0;0;0;579,2;0;0;
18725;0;0;0;0;0;0;0;617,8;0;0;
18732;0;0;0;0;0;0;0;648,2;0;0;
18739;0;0;0;0;0;0;0;678,6;0;0;
18747;0;0;0;0;0;0;0;709;0;0;
18754;0;0;0;0;0;0;0;728,75;0;0;
18762;0;0;0;0;0;0;0;748,5;0;0;
18769;0;0;0;0;0;0;0;768,25;0;0;
18776;0;0;0;0;0;0;0;780,7;0;0;
18784;0;0;0;0;0;0;0;793,15;0;0;
18791;0;0;0;0;0;0;0;805,6;0;0;
18797;0;0;0;0;0;0;0;813,1;0;0;
18807;0;0;0;0;0;0;0;820,6;0;0;
18814;0;0;0;0;0;0;0;828,1;0;0;
18822;0;0;0;0;0;0;0;831,95;0;0;
18830;0;0;0;0;0;0;0;835,8;0;0;
18839;0;0;0;0;0;0;0;837;0;0;
18847;0;0;0;0;0;0;0;838,2;0;0;
18854;0;0;0;0;0;0;0;839,4;0;0;
18860;0;0;0;0;0;0;0;839,4;0;0;
18876;0;0;0;0;0;0;0;839,4;0;0;
18885;0;0;0;0;0;0;0;839,4;0;0;
18892;0;0;0;0;0;0;0;839,4;0;0;
18900;0;0;0;0;0;0;0;839,4;0;0;
18906;0;0;0;0;0;0;0;839,4;0;0;
18914;0;0;0;0;0;0;0;839,4;0;0;
18922;0;0;0;0;0;0;0;839,4;0;0;
18929;0;0;0;0;0;0;0;839,4;0;0;
18938;0;0;0;0;0;0;0;839,4;0;0;
18945;0;0;0;0;0;0;0;839,4;0;0;
18952;0;0;0;0;0;0;0;839,4;0;0;
18959;0;0;0;0;0;0;0;838,35;0;0;
18966;0;0;0;0;0;0;0;837,3;0;0;
18976;0;0;0;0;0;0;0;836,25;0;0;
18983;0;0;0;0;0;0;0;830,95;0;0;
18991;0;0;0;0;0;0;0;825,65;0;0;
18999;0;0;0;0;0;0;0;820,35;0;0;
19007;0;0;0;0;0;0;0;818,3;0;0;
19015;0;0;0;0;0;0;0;816,25;0;0;
19023;0;0;0;0;0;0;0;814,2;0;0;
19030;0;0;0;0;0;0;0;814,2;0;0;
19037;0;0;0;0;0;0;0;814,2;0;0;
19046;0;0;0;0;0;0;0;814,2;0;0;
19054;0;0;0;0;0;0;0;814,2;0;0;
19062;0;0;0;0;0;0;0;814,2;0;0;
19070;0;0;0;0;0;0;0;814,2;0;0;
19078;0;0;0;0;0;0;0;814,2;0;0;
19086;0;0;0;0;0;0;0;814,2;0;0;
19094;0;0;0;0;0;0;0;814,2;0;0;
19102;0;0;0;0;0;0;0;814,2;0;0;
19109;0;0;0;0;0;0;0;814,2;0;0;
19116;0;0;0;0;0;0;0;815,25;0;0;
19126;0;0;0;0;0;0;0;816,3;0;0;
19134;0;0;0;0;0;0;0;817,35;0;0;
19141;0;0;0;0;0;0;0;822,65;0;0;
19150;0;0;0;0;0;0;0;827,95;0;0;
19157;0;0;0;0;0;0;0;833,25;0;0;
19166;0;0;0;0;0;0;0;835,3;0;0;
19175;0;0;0;0;0;0;0;837,35;0;0;
19182;0;0;0;0;0;0;0;839,4;0;0;
19191;0;0;0;0;0;0;0;839,4;0;0;
19198;0;0;0;0;0;0;0;839,4;0;0;
19205;0;0;0;0;0;0;0;839,4;0;0;
19213;0;0;0;0;0;0;0;839,4;0;0;
19220;0;0;0;0;0;0;0;839,4;0;0;
19227;0;0;0;0;0;0;0;839,4;0;0;
19237;0;0;0;0;0;0;0;839,4;0;0;
19243;0;0;0;0;0;0;0;839,4;0;0;
19249;0;0;0;0;0;0;0;839,4;0;0;
19257;0;0;0;0;0;0;0;839,4;0;0;
19265;0;0;0;0;0;0;0;839,4;0;0;
19271;0;0;0;0;0;0;0;839,4;0;0;
19280;0;0;0;0;0;0;0;839,4;0;0;
19288;0;0;0;0;0;0;0;839,4;0;0;
19296;0;0;0;0;0;0;0;839,4;0;0;
19305;0;0;0;0;0;0;0;839,4;1;0;
19312;0;0;0;0;0;0;0;839,4;1;0;
19320;0;0;0;0;0;0;0;839,4;1;0;
19328;0;0;0;0;0;0;0;839,4;1;0;
19335;0;0;0;0;0;0;0;839,4;1;0;
19345;0;0;0;0;0;0;0;839,4;1;0;
19355;0;0;0;0;0;0;0;839,4;1;0;
19363;0;0;0;0;0;0;0;839,4;1;0;
19372;0;0;0;0;0;0;0;839,4;1;0;
19382;0;0;0;0;0;0;0;839,4;1;0;
19396;0;0;0;0;0;0;0;839,4;1;0;
19407;0;0;0;0;0;0;0;839,4;1;0;
19415;0;0;0;0;0;0;0;839,4;1;0;
19423;0;0;0;0;0;0;0;839,4;1;0;
19430;0;0;0;0;0;0;0;839,4;1;0;
19437;0;0;0;0;0;0;0;839,4;1;0;
19444;0;0;0;0;0;0;0;839,4;1;0;
19451;0;0;0;0;0;0;0;839,4;1;0;
19457;0;0;0;0;0;0;0;839,4;1;0;
19463;0;0;0;0;0;0;0;839,4;1;0;
19471;0;0;0;0;0;0;0;839,4;1;0;
19478;0;0;0;0;0;0;0;839,4;1;0;
19485;0;0;0;0;0;0;0;839,4;1;0;
19493;0;0;0;0;0;0;0;839,4;1;0;
19500;0;0;0;0;0;0;0;839,4;1;0;
19508;0;0;0;0;0;0;0;839,4;1;0;
19515;0;0;0;0;0;0;0;839,4;1;0;
19521;0;0;0;0;0;0;0;839,4;1;0;
19529;0;0;0;0;0;0;0;839,4;1;0;
19537;0;0;0;0;0;0;0;839,4;1;0;
19543;0;0;0;0;0;0;0;839,4;1;0;
19551;0;0;0;0;0;0;0;839,4;1;0;
19558;0;0;0;0;0;0;0;839,4;1;0;
19565;0;0;0;0;0;0;0;839,4;1;0;
19572;0;0;0;0;0;0;0;839,4;1;0;
19578;0;0;0;0;0;0;0;839,4;1;0;
19584;0;0;0;0;0;0;0;839,4;1;0;
19593;0;0;0;0;0;0;0;839,4;1;0;
19599;0;0;0;0;0;0;0;839,4;1;0;
19607;0;0;0;0;0;0;0;839,4;1;0;
19616;0;0;0;0;0;0;0;839,4;1;0;
19625;0;0;0;0;0;0;0;839,4;1;0;
19634;0;0;0;0;0;0;0;839,4;1;0;
19642;0;0;0;0;0;0;0;839,4;1;0;
19650;0;0;0;0;0;0;0;839,4;0;0;
19657;0;0;0;0;0;0;0;839,4;0;0;
19666;0;0;0;0;0;0;0;839,4;0;0;
19674;0;0;0;0;0;0;0;839,4;0;0;
19680;0;0;0;0;0;0;0;839,4;0;0;
19688;0;0;0;0;0;0;0;839,4;0;0;
19695;0;0;0;0;0;0;0;839,4;0;0;
19702;0;0;0;0;0;0;0;839,4;0;0;
19711;0;0;0;0;0;0;0;839,4;0;0;
19722;0;0;0;0;0;0;0;839,4;0;0;
19732;0;0;0;0;0;0;0;839,4;0;0;
19742;0;0;0;0;0;0;0;839,4;0;0;
19754;0;0;0;0;0;0;0;839,4;0;0;
19763;0;0;0;0;0;0;0;839,4;0;0;
19771;0;0;0;0;0;0;0;839,4;0;0;
19780;0;0;0;0;0;0;0;839,4;0;0;
19789;0;0;0;0;0;0;0;839,4;0;0;
19797;0;0;0;0;0;0;0;839,4;0;0;
19812;0;0;0;0;0;0;0;839,4;0;0;
19823;0;0;0;0;0;0;0;839,4;0;0;
19830;0;0;0;0;0;0;0;839,4;0;0;
19841;0;0;0;0;0;0;0;839,4;0;0;
19847;0;0;0;0;0;0;0;839,4;0;0;
19855;0;0;0;0;0;0;0;839,4;0;0;
19861;0;0;0;0;0;0;0;839,4;0;0;
19869;0;0;0;0;0;0;0;839,4;0;0;
19876;0;0;0;0;0;0;0;839,4;0;0;
19888;0;0;0;0;0;0;0;839,4;0;0;
19895;0;0;0;0;0;0;0;839,4;0;0;
19903;0;0;0;0;0;0;0;839,4;0;0;
19912;0;0;0;0;0;0;0;839,4;0;0;
19920;0;0;0;0;0;0;0;839,4;0;0;
19926;0;0;0;0;0;0;0;839,4;0;0;
19934;0;0;0;0;0;0;0;839,4;0;0;
19942;0;0;0;0;0;0;0;839,4;0;0;
19949;0;0;0;0;0;0;0;839,4;0;0;
19957;0;0;0;0;0;0;0;839,4;0;0;
19963;0;0;0;0;0;0;0;839,4;0;0;
19969;0;0;0;0;0;0;0;839,4;0;0;
19977;0;0;0;0;0;0;0;839,4;0;0;
19985;0;0;0;0;0;0;0;839,4;0;0;
19992;0;0;0;0;0;0;0;839,4;0;0;
19999;0;0;0;0;0;0;0;839,4;0;0;
20007;0;0;0;0;0;0;0;839,4;0;0;
20014;0;0;0;0;0;0;0;839,4;0;0;
20020;0;0;0;0;0;0;0;839,4;0;0;
20027;0;0;0;0;0;0;0;839,4;0;0;
20035;0;0;0;0;0;0;0;839,4;0;0;
20043;0;0;0;0;0;0;0;839,4;0;0;
20051;0;0;0;0;0;0;0;839,4;0;0;
20060;0;0;0;0;0;0;0;839,4;0;0;
20068;0;0;0;0;0;0;0;839,4;0;0;
20076;0;0;0;0;0;0;0;839,4;0;0;
20083;0;0;0;0;0;0;0;839,4;0;0;
20092;0;0;0;0;0;0;0;839,4;0;0;
20100;0;0;0;0;0;0;0;839,4;0;0;
20106;0;0;0;0;0;0;0;839,4;0;0;
20117;0;0;0;0;0;0;0;839,4;0;0;
20123;0;0;0;0;0;0;0;839,4;0;0;
20133;0;0;0;0;0;0;0;839,4;0;0;
20139;0;0;0;0;0;0;0;839,4;0;0;
20146;0;0;0;0;0;0;0;839,4;0;0;
20154;0;0;0;0;0;0;0;839,4;0;0;
20161;0;0;0;0;0;0;0;839,4;0;0;
20168;0;0;0;0;0;0;0;839,4;0;0;
20175;0;0;0;0;0;0;0;839,4;0;0;
20182;0;0;0;0;0;0;0;839,4;0;0;
20190;0;0;0;0;0;0;0;839,4;0;0;
20199;0;0;0;0;0;0;0;839,4;0;0;
20206;0;0;0;0;0;0;0;839,4;0;0;
20213;0;0;0;0;0;0;0;839,4;0;0;
20220;0;0;0;0;0;0;0;839,4;0;0;
20228;0;0;0;0;0;0;0;839,4;0;0;
20237;0;0;0;0;0;0;0;839,4;0;0;
20244;0;0;0;0;0;0;0;839,4;0;0;
20251;0;0;0;0;0;0;0;839,4;0;0;
20261;0;0;0;0;0;0;0;839,4;0;0;
20268;0;0;0;0;0;0;0;839,4;0;0;
20276;0;0;0;0;0;0;0;839,4;0;0;
20283;0;0;0;0;0;0;0;839,4;0;0;
20290;0;0;0;0;0;0;0;839,4;0;0;
20297;0;0;0;0;0;0;0;839,4;0;0;
20307;0;0;0;0;0;0;0;839,4;0;0;
20316;0;0;0;0;0;0;0;839,4;0;0;
20322;0;0;0;0;0;0;0;839,4;0;0;
20328;0;0;0;0;0;0;0;839,4;0;0;
20335;0;0;0;0;0;0;0;839,4;0;0;
20342;0;0;0;0;0;0;0;839,4;0;0;
20351;0;0;0;0;0;0;0;839,4;0;0;
20359;0;0;0;0;0;0;0;839,4;0;0;
20367;0;0;0;0;0;0;0;839,4;0;0;
20374;0;0;0;0;0;0;0;839,4;0;0;
20385;0;0;0;0;0;0;0;839,4;0;0;
20394;0;0;0;0;0;0;0;839,4;0;0;
20406;0;0;0;0;0;0;0;839,4;0;0;
20413;0;0;0;0;0;0;0;839,4;0;0;
20418;0;0;0;0;0;0;0;839,4;0;0;
20425;0;0;0;0;0;0;0;839,4;0;0;
20432;0;0;0;0;0;0;0;839,4;0;0;
20438;0;0;0;0;0;0;0;839,4;0;0;
20446;0;0;0;0;0;0;0;839,4;0;0;
20455;0;0;0;0;0;0;0;839,4;0;0;
20463;0;0;0;0;0;0;0;839,4;0;0;
20470;0;0;0;0;0;0;0;839,4;0;0;
20478;0;0;0;0;0;0;0;839,4;0;0;
20485;0;0;0;0;0;0;0;839,4;0;0;
20493;0;0;0;0;0;0;0;839,4;0;0;
20500;0;0;0;0;0;0;0;839,4;0;0;
20507;0;0;0;0;0;0;0;839,4;0;0;
20515;0;0;0;0;0;0;0;839,4;0;0;
20526;0;0;0;0;0;0;0;839,4;0;0;
20533;0;0;0;0;0;0;0;839,4;0;0;
20540;0;0;0;0;0;0;0;839,4;0;0;
20547;0;0;0;0;0;0;0;839,4;0;0;
20556;0;0;0;0;0;0;0;839,4;0;0;
20562;0;0;0;0;0;0;0;839,4;0;0;
20571;0;0;0;0;0;0;0;839,4;0;0;
20578;0;0;0;0;0;0;0;839,4;0;0;
20586;0;0;0;0;0;0;0;839,4;0;0;
20594;0;0;0;0;0;0;0;839,4;0;0;
20602;0;0;0;0;0;0;0;839,4;0;0;
20610;0;0;0;0;0;0;0;839,4;0;0;
20618;0;0;0;0;0;0;0;839,4;0;0;
20626;0;0;0;0;0;0;0;839,4;0;0;
20634;0;0;0;0;0;0;0;839,4;0;0;
20641;0;0;0;0;0;0;0;839,4;0;0;
20649;0;0;0;0;0;0;0;839,4;0;0;
20655;0;0;0;0;0;0;0;839,4;0;0;
20666;0;0;0;0;0;0;0;839,4;0;0;
20673;0;0;0;0;0;0;0;839,4;0;0;
20679;0;0;0;0;0;0;0;839,4;0;0;
20687;0;0;0;0;0;0;0;839,4;0;0;
20695;0;0;0;0;0;0;0;839,4;0;0;
20701;0;0;0;0;0;0;0;839,4;0;0;
20711;0;0;0;0;0;0;0;839,4;0;0;
20722;0;0;0;0;0;0;0;839,4;0;0;
20734;0;0;0;0;0;0;0;839,4;0;0;
20743;0;0;0;0;0;0;0;839,4;0;0;
20752;0;0;0;0;0;0;0;839,4;0;0;
20763;0;0;0;0;0;0;0;839,4;0;0;
20771;0;0;0;0;0;0;0;839,4;0;0;
20779;0;0;0;0;0;0;0;839,4;0;0;
20791;0;0;0;0;0;0;0;839,4;0;0;
20799;0;0;0;0;0;0;0;839,4;0;0;
20808;0;0;0;0;0;0;0;839,4;0;0;
20817;0;0;0;0;0;0;0;839,4;0;0;
20823;0;0;0;0;0;0;0;839,4;0;0;
20830;0;0;0;0;0;0;0;839,4;0;0;
20840;0;0;0;0;0;0;0;839,4;0;0;
20850;0;0;0;0;0;0;0;839,4;0;0;
20856;0;0;0;0;0;0;0;839,4;0;0;
20863;0;0;0;0;0;0;0;839,4;0;0;
20869;0;0;0;0;0;0;0;839,4;0;0;
20878;0;0;0;0;0;0;0;839,4;0;0;
20885;0;0;0;0;0;0;0;839,4;0;0;
20892;0;0;0;0;0;0;0;839,4;0;0;
20898;0;0;0;0;0;0;0;839,4;0;0;
20904;0;0;0;0;0;0;0;839,4;0;0;
20912;0;0;0;0;0;0;0;839,4;0;0;
20921;0;0;0;0;0;0;0;839,4;0;0;
20936;0;0;0;0;0;0;0;839,4;0;0;
20944;0;0;0;0;0;0;0;839,4;0;0;
20951;0;0;0;0;0;0;0;839,4;0;0;
20957;0;0;0;0;0;0;0;839,4;0;0;
20965;0;0;0;0;0;0;0;839,4;0;0;
20974;0;0;0;0;0;0;0;839,4;0;0;
20982;0;0;0;0;0;0;0;839,4;0;0;
20990;0;0;0;0;0;0;0;839,4;0;0;
20997;0;0;0;0;0;0;0;839,4;0;0;
21007;0;0;0;0;0;0;0;839,4;0;0;
21014;0;0;0;0;0;0;0;839,4;0;0;
21022;0;0;0;0;0;0;0;839,4;0;0;
21031;0;0;0;0;0;0;0;839,4;0;0;
21039;0;0;0;0;0;0;0;839,4;0;0;
21046;0;0;0;0;0;0;0;839,4;0;0;
21054;0;0;0;0;0;0;0;839,4;0;0;
21061;0;0;0;0;0;0;0;839,4;0;0;
21068;0;0;0;0;0;0;0;839,4;0;0;
21077;0;0;0;0;0;0;0;839,4;0;0;
21085;0;0;0;0;0;0;0;839,4;0;0;
21094;0;0;0;0;0;0;0;839,4;0;0;
21104;0;0;0;0;0;0;0;839,4;0;0;
21115;0;0;0;0;0;0;0;839,4;0;0;
21129;0;0;0;0;0;0;0;839,4;0;0;
21141;0;0;0;0;0;0;0;839,4;0;0;
21150;0;0;0;0;0;0;0;839,4;0;0;
21168;0;0;0;0;0;0;0;839,4;1;0;
21177;0;0;0;0;0;0;0;839,4;1;0;
21184;0;0;0;0;0;0;0;839,4;1;0;
21194;0;0;0;0;0;0;0;839,4;1;0;
21202;0;0;0;0;0;0;0;839,4;1;0;
21207;0;0;0;0;0;0;0;839,4;1;0;
21214;0;0;0;0;0;0;0;839,4;1;0;
21221;0;0;0;0;0;0;0;839,4;1;0;
21225;0;0;0;0;0;0;0;839,4;1;0;
21232;0;0;0;0;0;0;0;839,4;1;0;
21237;0;0;0;0;0;0;0;839,4;1;0;
21242;0;0;0;0;0;0;0;839,4;1;0;
21249;0;0;0;0;0;0;0;839,4;1;0;
21255;0;0;0;0;0;0;0;839,4;1;0;
21264;0;0;0;0;0;0;0;839,4;1;0;
21271;0;0;0;0;0;0;0;839,4;1;0;
21277;0;0;0;0;0;0;0;839,4;1;0;
21287;0;0;0;0;0;0;0;839,4;1;0;
21295;0;0;0;0;0;0;0;839,4;1;0;
21301;0;0;0;0;0;0;0;839,4;1;0;
21309;0;0;0;0;0;0;0;839,4;1;0;
21317;0;0;0;0;0;0;0;839,4;1;0;
21326;0;0;0;0;0;0;0;839,4;1;0;
21333;0;0;0;0;0;0;0;839,4;1;0;
21342;0;0;0;0;0;0;0;839,4;1;0;
21352;0;0;0;0;0;0;0;839,4;1;0;
21359;0;0;0;0;0;0;0;839,4;1;0;
21366;0;0;0;0;0;0;0;839,4;1;0;
21375;0;0;0;0;0;0;0;839,4;1;0;
21382;0;0;0;0;0;0;0;839,4;1;0;
21390;0;0;0;0;0;0;0;839,4;1;0;
21397;0;0;0;0;0;0;0;839,4;1;0;
21406;0;0;0;0;0;0;0;839,4;1;0;
21415;0;0;0;0;0;0;0;839,4;1;0;
21424;0;0;0;0;0;0;0;839,4;1;0;
21437;0;0;0;0;0;0;0;839,4;1;0;
21446;0;0;0;0;0;0;0;839,4;1;0;
21452;0;0;0;0;0;0;0;839,4;1;0;
21458;0;0;0;0;0;0;0;839,4;1;0;
21465;0;0;0;0;0;0;0;839,4;1;0;
21471;0;0;0;0;0;0;0;839,4;1;0;
21479;0;0;0;0;0;0;0;839,4;1;0;
21486;0;0;0;0;0;0;0;839,4;1;0;
21494;0;0;0;0;0;0;0;839,4;1;0;
21501;0;0;0;0;0;0;0;839,4;1;0;
21510;0;0;0;0;0;0;0;839,4;0;0;
21518;0;0;0;0;0;0;0;839,4;0;0;
21526;0;0;0;0;0;0;0;839,4;0;0;
21533;0;0;0;0;0;0;0;839,4;0;0;
21543;0;0;0;0;0;0;0;839,4;0;0;
21550;0;0;0;0;0;0;0;839,4;0;0;
21558;0;0;0;0;0;0;0;839,4;0;0;
21567;0;0;0;0;0;0;0;839,4;0;0;
21574;0;0;0;0;0;0;0;839,4;0;0;
21581;0;0;0;0;0;0;0;839,4;0;0;
21588;0;0;0;0;0;0;0;839,4;0;0;
21598;0;0;0;0;0;0;0;839,4;0;0;
21605;0;0;0;0;0;0;0;839,4;0;0;
21615;0;0;0;0;0;0;0;839,4;0;0;
21626;0;0;0;0;0;0;0;839,4;0;0;
21636;0;0;0;0;0;0;0;839,4;0;0;
21643;0;0;0;0;0;0;0;839,4;0;0;
21653;0;0;0;0;0;0;0;839,4;0;0;
21661;0;0;0;0;0;0;0;839,4;0;0;
21670;0;0;0;0;0;0;0;839,4;0;0;
21677;0;0;0;0;0;0;0;839,4;0;0;
21686;0;0;0;0;0;0;0;839,4;0;0;
21698;0;0;0;0;0;0;0;839,4;0;0;
21706;0;0;0;0;0;0;0;839,4;0;0;
21717;0;0;0;0;0;0;0;839,4;0;0;
21726;0;0;0;0;0;0;0;839,4;0;0;
21734;0;0;0;0;0;0;0;839,4;0;0;
21745;0;0;0;0;0;0;0;839,4;0;0;
21754;0;0;0;0;0;0;0;839,4;0;0;
21760;0;0;0;0;0;0;0;839,4;0;0;
21768;0;0;0;0;0;0;0;839,4;0;0;
21777;0;0;0;0;0;0;0;839,4;0;0;
21789;0;0;0;0;0;0;0;839,4;0;0;
21797;0;0;0;0;0;0;0;839,4;0;0;
21803;0;0;0;0;0;0;0;839,4;0;0;
21810;0;0;0;0;0;0;0;839,4;0;0;
21818;0;0;0;0;0;0;0;839,4;0;0;
21826;0;0;0;0;0;0;0;839,4;0;0;
21834;0;0;0;0;0;0;0;839,4;0;0;
21842;0;0;0;0;0;0;0;839,4;0;0;
21849;0;0;0;0;0;0;0;839,4;0;0;
21856;0;0;0;0;0;0;0;839,4;0;0;
21865;0;0;0;0;0;0;0;839,4;0;0;
21873;0;0;0;0;0;0;0;839,4;0;0;
21881;0;0;0;0;0;0;0;839,4;0;0;
21888;0;0;0;0;0;0;0;839,4;0;0;
21895;0;0;0;0;0;0;0;839,4;0;0;
21904;0;0;0;0;0;0;0;839,4;0;0;
21912;0;0;0;0;0;0;0;839,4;0;0;
21920;0;0;0;0;0;0;0;839,4;0;0;
21935;0;0;0;0;0;0;0;839,4;0;0;
21947;0;0;0;0;0;0;0;839,4;0;0;
21956;0;0;0;0;0;0;0;839,4;0;0;
21962;0;0;0;0;0;0;0;839,4;0;0;
21970;0;0;0;0;0;0;0;839,4;0;0;
21978;0;0;0;0;0;0;0;839,4;0;0;
21985;0;0;0;0;0;0;0;839,4;0;0;
21993;0;0;0;0;0;0;0;839,4;0;0;
22001;0;0;0;0;0;0;0;839,4;0;0;
22009;0;0;0;0;0;0;0;839,4;0;0;
22018;0;0;0;0;0;0;0;839,4;0;0;
22024;0;0;0;0;0;0;0;839,3;0;0;
22031;0;0;0;0;0;0;0;839,2;0;0;
22039;0;0;0;0;0;0;0;838,95;0;0;
22048;0;0;0;0;0;0;0;838,7;0;0;
22057;0;0;0;0;0;0;0;838,45;0;0;
22065;0;0;0;0;0;0;0;838,15;0;0;
22074;0;0;0;0;0;0;0;837,85;0;0;
22081;0;0;0;0;0;0;0;837,8;0;0;
22091;0;0;0;0;0;0;0;837,75;0;0;
22099;0;0;0;0;0;0;0;837,7;0;0;
22107;0;0;0;0;0;0;0;837,7;0;0;
22114;0;0;0;0;0;0;0;837,7;0;0;
22122;0;0;0;0;0;0;0;837,7;0;0;
22130;0;0;0;0;0;0;0;837,7;0;0;
22139;0;0;0;0;0;0;0;837,7;0;0;
22146;0;0;0;0;0;0;0;837,7;0;0;
22156;0;0;0;0;0;0;0;837,7;0;0;
22166;0;0;0;0;0;0;0;837,7;0;0;
22173;0;0;0;0;0;0;0;837,7;0;0;
22181;0;0;0;0;0;0;0;837,7;0;0;
22190;0;0;0;0;0;0;0;837,8;0;0;
22198;0;0;0;0;0;0;0;837,9;0;0;
22207;0;0;0;0;0;0;0;838,15;0;0;
22216;0;0;0;0;0;0;0;838,4;0;0;
22227;0;0;0;0;0;0;0;838,65;0;0;
22236;0;0;0;0;0;0;0;838,95;0;0;
22243;0;0;0;0;0;0;0;839,25;0;0;
22253;0;0;0;0;0;0;0;839,3;0;0;
22260;0;0;0;0;0;0;0;839,35;0;0;
22270;0;0;0;0;0;0;0;839,4;0;0;
22278;0;0;0;0;0;0;0;839,4;0;0;
22286;0;0;0;0;0;0;0;839,4;0;0;
22294;0;0;0;0;0;0;0;839,4;0;0;
22300;0;0;0;0;0;0;0;839,4;0;0;
22309;0;0;0;0;0;0;0;839,4;0;0;
22316;0;0;0;0;0;0;0;839,2;0;0;
22325;0;0;0;0;0;0;0;839;0;0;
22334;0;0;0;0;0;0;0;838,8;0;0;
22341;0;0;0;0;0;0;0;838,3;0;0;
22349;0;0;0;0;0;0;0;837,8;0;0;
22362;0;0;0;0;0;0;0;837,3;0;0;
22371;0;0;0;0;0;0;0;836,85;0;0;
22379;0;0;0;0;0;0;0;836,4;0;0;
22387;0;0;0;0;0;0;0;836,05;0;0;
22395;0;0;0;0;0;0;0;835,7;0;0;
22402;0;0;0;0;0;0;0;835,55;0;0;
22409;0;0;0;0;0;0;0;835,4;0;0;
22422;0;0;0;0;0;0;0;835,25;0;0;
22432;0;0;0;0;0;0;0;835,25;0;0;
22441;0;0;0;0;0;0;0;835,25;0;0;
22447;0;0;0;0;0;0;0;835,25;0;0;
22453;0;0;0;0;0;0;0;835,25;0;0;
22461;0;0;0;0;0;0;0;835,25;0;0;
22468;0;0;0;0;0;0;0;835,25;0;0;
22476;0;0;0;0;0;0;0;835,25;0;0;
22489;0;0;0;0;0;0;0;835,45;0;0;
22496;0;0;0;0;0;0;0;835,65;0;0;
22509;0;0;0;0;0;0;0;835,85;0;0;
22518;0;0;0;0;0;0;0;836,35;0;0;
22527;0;0;0;0;0;0;0;836,85;0;0;
22534;0;0;0;0;0;0;0;837,35;0;0;
22541;0;0;0;0;0;0;0;837,8;0;0;
22551;0;0;0;0;0;0;0;838,25;0;0;
22562;0;0;0;0;0;0;0;838,6;0;0;
22572;0;0;0;0;0;0;0;838,95;0;0;
22580;0;0;0;0;0;0;0;839,1;0;0;
22588;0;0;0;0;0;0;0;839,25;0;0;
22593;0;0;0;0;0;0;0;839,4;0;0;
22598;0;0;0;0;0;0;0;839,4;0;0;
22604;0;0;0;0;0;0;0;839,4;0;0;
22610;0;0;0;0;0;0;0;839,4;0;0;
22616;0;0;0;0;0;0;0;839,4;0;0;
22621;0;0;0;0;0;0;0;839,4;0;0;
22627;0;0;0;0;0;0;0;839,4;0;0;
22638;0;0;0;0;0;0;0;839,4;0;0;
22644;0;0;0;0;0;0;0;839,4;0;0;
22654;0;0;0;0;0;0;0;839,4;0;0;
22661;0;0;0;0;0;0;0;839,35;0;0;
22669;0;0;0;0;0;0;0;839,3;0;0;
22679;0;0;0;0;0;0;0;839,25;0;0;
22687;0;0;0;0;0;0;0;839,15;0;0;
22697;0;0;0;0;0;0;0;839,05;0;0;
22705;0;0;0;0;0;0;0;839,05;0;0;
22712;0;0;0;0;0;0;0;839,05;0;0;
22720;0;0;0;0;0;0;0;839,05;0;0;
22732;0;0;0;0;0;0;0;839,05;0;0;
22739;0;0;0;0;0;0;0;839,05;0;0;
22747;0;0;0;0;0;0;0;839,05;0;0;
22753;0;0;0;0;0;0;0;839,05;0;0;
22766;0;0;0;0;0;0;0;839,05;0;0;
22774;0;0;0;0;0;0;0;839,05;0;0;
22785;0;0;0;0;0;0;0;839,05;0;0;
22795;0;0;0;0;0;0;0;839,05;0;0;
22803;0;0;0;0;0;0;0;839,05;0;0;
22809;0;0;0;0;0;0;0;839,05;0;0;
22816;0;0;0;0;0;0;0;839,05;0;0;
22823;0;0;0;0;0;0;0;839,05;0;0;
22830;0;0;0;0;0;0;0;839,1;0;0;
22839;0;0;0;0;0;0;0;839,15;0;0;
22850;0;0;0;0;0;0;0;839,2;0;0;
22857;0;0;0;0;0;0;0;839,3;0;0;
22863;0;0;0;0;0;0;0;839,4;0;0;
22871;0;0;0;0;0;0;0;839,4;0;0;
22877;0;0;0;0;0;0;0;839,4;0;0;
22887;0;0;0;0;0;0;0;839,4;0;0;
22894;0;0;0;0;0;0;0;839,4;0;0;
22902;0;0;0;0;0;0;0;839,4;0;0;
22909;0;0;0;0;0;0;0;839,4;1;0;
22917;0;0;0;0;0;0;0;839,4;1;0;
22924;0;0;0;0;0;0;0;839,4;1;0;
22934;0;0;0;0;0;0;0;839,4;1;0;
22941;0;0;0;0;0;0;0;839,4;1;0;
22953;0;0;0;0;0;0;0;839,4;1;0;
22959;0;0;0;0;0;0;0;839,15;1;0;
22967;0;0;0;0;0;0;0;838,9;1;0;
22977;0;0;0;0;0;0;0;838,65;1;0;
22984;0;0;0;0;0;0;0;838,15;1;0;
22993;0;0;0;0;0;0;0;837,65;1;0;
23000;0;0;0;0;0;0;0;837;1;0;
23008;0;0;0;0;0;0;0;836,35;1;0;
23018;0;0;0;0;0;0;0;835,7;1;0;
23025;0;0;0;0;0;0;0;834,95;1;0;
23033;0;0;0;0;0;0;0;834,2;1;0;
23042;0;0;0;0;0;0;0;833,45;1;0;
23051;0;0;0;0;0;0;0;832,9;1;0;
23058;0;0;0;0;0;0;0;832,35;1;0;
23065;0;0;0;0;0;0;0;831,9;1;0;
23074;0;0;0;0;0;0;0;831,45;1;0;
23084;0;0;0;0;0;0;0;831;1;0;
23093;0;0;0;0;0;0;0;830,5;1;0;
23101;0;0;0;0;0;0;0;830;1;0;
23110;0;0;0;0;0;0;0;829,45;1;0;
23119;0;0;0;0;0;0;0;828,9;1;0;
23128;0;0;0;0;0;0;0;828,6;1;0;
23136;0;0;0;0;0;0;0;828,05;1;0;
23143;0;0;0;0;0;0;0;827,5;1;0;
23151;0;0;0;0;0;0;0;827,2;1;0;
23158;0;0;0;0;0;0;0;826,9;1;0;
23168;0;0;0;0;0;0;0;826,75;1;0;
23177;0;0;0;0;0;0;0;826,55;1;0;
23186;0;0;0;0;0;0;0;826,35;1;0;
23193;0;0;0;0;0;0;0;826,1;1;0;
23199;0;0;0;0;0;0;0;825,85;1;0;
23208;0;0;0;0;0;0;0;825,6;1;0;
23214;0;0;0;0;0;0;0;825,2;1;0;
23221;0;0;0;0;0;0;0;824,8;1;0;
23231;0;0;0;0;0;0;0;824,3;1;0;
23240;0;0;0;0;0;0;0;823,55;1;0;
23248;0;0;0;0;0;0;0;822,8;0;0;
23257;0;0;0;0;0;0;0;821,95;0;0;
23265;0;0;0;0;0;0;0;821,1;0;0;
23277;0;0;0;0;0;0;0;820,3;0;0;
23284;0;0;0;0;0;0;0;819,45;0;0;
23294;0;0;0;0;0;0;0;818,6;0;0;
23301;0;0;0;0;0;0;0;818;0;0;
23310;0;0;0;0;0;0;0;817,4;0;0;
23318;0;0;0;0;0;0;0;816,8;0;0;
23327;0;0;0;0;0;0;0;816,25;0;0;
23334;0;0;0;0;0;0;0;815,7;0;0;
23342;0;0;0;0;0;0;0;815,45;0;0;
23349;0;0;0;0;0;0;0;815,2;0;0;
23358;0;0;0;0;0;0;0;815,1;0;0;
23366;0;0;0;0;0;0;0;815,2;0;0;
23373;0;0;0;0;0;0;0;815,3;0;0;
23384;0;0;0;0;0;0;0;815,35;0;0;
23392;0;0;0;0;0;0;0;815,55;0;0;
23400;0;0;0;0;0;0;0;815,75;0;0;
23407;0;0;0;0;0;0;0;816,25;0;0;
23416;0;0;0;0;0;0;0;816,75;0;0;
23426;0;0;0;0;0;0;0;817,4;0;0;
23434;0;0;0;0;0;0;0;818;0;0;
23442;0;0;0;0;0;0;0;818,6;0;0;
23452;0;0;0;0;0;0;0;819,25;0;0;
23465;0;0;0;0;0;0;0;819,9;0;0;
23477;0;0;0;0;0;0;0;820,45;0;0;
23485;0;0;0;0;0;0;0;821;0;0;
23495;0;0;0;0;0;0;0;821,45;0;0;
23502;0;0;0;0;0;0;0;821,85;0;0;
23512;0;0;0;0;0;0;0;822,25;0;0;
23519;0;0;0;0;0;0;0;822,35;0;0;
23529;0;0;0;0;0;0;0;822,45;0;0;
23540;0;0;0;0;0;0;0;822,45;0;0;
23553;0;0;0;0;0;0;0;822,25;0;0;
23562;0;0;0;0;0;0;0;821,95;0;0;
23571;0;0;0;0;0;0;0;821,65;0;0;
23579;0;0;0;0;0;0;0;821,3;0;0;
23589;0;0;0;0;0;0;0;820,95;0;0;
23597;0;0;0;0;0;0;0;820,55;0;0;
23603;0;0;0;0;0;0;0;820,2;0;0;
23609;0;0;0;0;0;0;0;819,85;0;0;
23617;0;0;0;0;0;0;0;819,55;0;0;
23623;0;0;0;0;0;0;0;819,4;0;0;
23632;0;0;0;0;0;0;0;819,25;0;0;
23641;0;0;0;0;0;0;0;819,3;0;0;
23650;0;0;0;0;0;0;0;819,45;0;0;
23659;0;0;0;0;0;0;0;819,6;0;0;
23666;0;0;0;0;0;0;0;819,95;0;0;
23673;0;0;0;0;0;0;0;820,3;0;0;
23682;0;0;0;0;0;0;0;820,65;0;0;
23691;0;0;0;0;0;0;0;821,25;0;0;
23701;0;0;0;0;0;0;0;821,85;0;0;
23708;0;0;0;0;0;0;0;822,55;0;0;
23716;0;0;0;0;0;0;0;823,25;0;0;
23727;0;0;0;0;0;0;0;824,05;0;0;
23734;0;0;0;0;0;0;0;824,8;0;0;
23744;0;0;0;0;0;0;0;825,45;0;0;
23752;0;0;0;0;0;0;0;826,05;0;0;
23760;0;0;0;0;0;0;0;826,65;0;0;
23769;0;0;0;0;0;0;0;827,2;0;0;
23776;0;0;0;0;0;0;0;827,6;0;0;
23784;0;0;0;0;0;0;0;828;0;0;
23794;0;0;0;0;0;0;0;828,2;0;0;
23808;0;0;0;0;0;0;0;828,4;0;0;
23817;0;0;0;0;0;0;0;828,3;0;0;
23824;0;0;0;0;0;0;0;828,2;0;0;
23835;0;0;0;0;0;0;0;828,1;0;0;
23845;0;0;0;0;0;0;0;827,75;0;0;
23852;0;0;0;0;0;0;0;827,4;0;0;
23858;0;0;0;0;0;0;0;826,85;0;0;
23868;0;0;0;0;0;0;0;826,1;0;0;
23878;0;0;0;0;0;0;0;825,25;0;0;
23886;0;0;0;0;0;0;0;824,4;0;0;
23896;0;0;0;0;0;0;0;823,55;0;0;
23904;0;0;0;0;0;0;0;822,5;0;0;
23912;0;0;0;0;0;0;0;821,5;0;0;
23920;0;0;0;0;0;0;0;820,5;0;0;
23929;0;0;0;0;0;0;0;819,55;0;0;
23938;0;0;0;0;0;0;0;818,6;0;0;
23947;0;0;0;0;0;0;0;817,75;0;0;
23956;0;0;0;0;0;0;0;817,05;0;0;
23965;0;0;0;0;0;0;0;816,45;0;0;
23971;0;0;0;0;0;0;0;815,9;0;0;
23979;0;0;0;0;0;0;0;815,35;0;0;
23987;0;0;0;0;0;0;0;815,2;0;0;
23995;0;0;0;0;0;0;0;815,05;0;0;
24003;0;0;0;0;0;0;0;815,05;0;0;
24011;0;0;0;0;0;0;0;815,2;0;0;
24020;0;0;0;0;0;0;0;815,35;0;0;
24027;0;0;0;0;0;0;0;815,8;0;0;
24035;0;0;0;0;0;0;0;816,25;0;0;
24043;0;0;0;0;0;0;0;816,8;0;0;
24050;0;0;0;0;0;0;0;817,35;0;0;
24056;0;0;0;0;0;0;0;817,9;0;0;
24065;0;0;0;0;0;0;0;818,65;0;0;
24073;0;0;0;0;0;0;0;819,35;0;0;
24080;0;0;0;0;0;0;0;820,05;0;0;
24089;0;0;0;0;0;0;0;820,75;0;0;
24099;0;0;0;0;0;0;0;821,4;0;0;
24107;0;0;0;0;0;0;0;821,95;0;0;
24117;0;0;0;0;0;0;0;822,6;0;0;
24126;0;0;0;0;0;0;0;823,15;0;0;
24134;0;0;0;0;0;0;0;823,65;0;0;
24142;0;0;0;0;0;0;0;824,15;0;0;
24150;0;0;0;0;0;0;0;824,35;0;0;
24158;0;0;0;0;0;0;0;824,3;0;0;
24171;0;0;0;0;0;0;0;824,1;0;0;
24179;0;0;0;0;0;0;0;823,9;0;0;
24187;0;0;0;0;0;0;0;823,7;0;0;
24198;0;0;0;0;0;0;0;823,4;0;0;
24206;0;0;0;0;0;0;0;823,4;0;0;
24212;0;0;0;0;0;0;0;823,4;0;0;
24218;0;0;0;0;0;0;0;823,85;0;0;
24224;0;0;0;0;0;0;0;824,3;0;0;
24232;0;0;0;0;0;0;0;824,75;0;0;
24238;0;0;0;0;0;0;0;825,5;0;0;
24247;0;0;0;0;0;0;0;826,25;0;0;
24255;0;0;0;0;0;0;0;827;0;0;
24262;0;0;0;0;0;0;0;827,8;0;0;
24270;0;0;0;0;0;0;0;828,6;0;0;
24279;0;0;0;0;0;0;0;829,3;0;0;
24287;0;0;0;0;0;0;0;830;0;0;
24295;0;0;0;0;0;0;0;830,75;0;0;
24304;0;0;0;0;0;0;0;831,5;0;0;
24313;0;0;0;0;0;0;0;832,25;0;0;
24321;0;0;0;0;0;0;0;833,25;0;0;
24330;0;0;0;0;0;0;0;834,25;0;0;
24340;0;0;0;0;0;0;0;835,25;0;0;
24351;0;0;0;0;0;0;0;836,25;0;0;
24359;0;0;0;0;0;0;0;837,25;0;0;
24370;0;0;0;0;0;0;0;837,95;0;0;
24377;0;0;0;0;0;0;0;838,65;0;0;
24386;0;0;0;0;0;0;0;838,9;0;0;
24394;0;0;0;0;0;0;0;839,15;0;0;
24406;0;0;0;0;0;0;0;839,4;0;0;
24413;0;0;0;0;0;0;0;839,4;0;0;
24420;0;0;0;0;0;0;0;839,4;0;0;
24429;0;0;0;0;0;0;0;839,4;0;0;
24437;0;0;0;0;0;0;0;839,4;0;0;
24443;0;0;0;0;0;0;0;839,4;0;0;
24452;0;0;0;0;0;0;0;839,4;0;0;
24464;0;0;0;0;0;0;0;839,4;0;0;
24471;0;0;0;0;0;0;0;839,4;0;0;
24477;0;0;0;0;0;0;0;839,4;0;0;
24483;0;0;0;0;0;0;0;839,4;0;0;
24491;0;0;0;0;0;0;0;839,4;0;0;
24498;0;0;0;0;0;0;0;839,4;0;0;
24505;0;0;0;0;0;0;0;839,4;0;0;
24515;0;0;0;0;0;0;0;839,4;0;0;
24522;0;0;0;0;0;0;0;839,4;0;0;
24529;0;0;0;0;0;0;0;839,4;0;0;
24537;0;0;0;0;0;0;0;839,4;0;0;
24544;0;0;0;0;0;0;0;839,4;0;0;
24551;0;0;0;0;0;0;0;839,4;0;0;
24560;0;0;0;0;0;0;0;839,4;0;0;
24570;0;0;0;0;0;0;0;839,4;0;0;
24584;0;0;0;0;0;0;0;839,4;0;0;
24591;0;0;0;0;0;0;0;839,4;0;0;
24600;0;0;0;0;0;0;0;839,4;0;0;
24611;0;0;0;0;0;0;0;839,4;0;0;
24618;0;0;0;0;0;0;0;839,4;0;0;
24625;0;0;0;0;0;0;0;839,4;0;0;
24633;0;0;0;0;0;0;0;839,4;0;0;
24642;0;0;0;0;0;0;0;839,4;0;0;
24651;0;0;0;0;0;0;0;839,4;0;0;
24659;0;0;0;0;0;0;0;839,4;0;0;
24666;0;0;0;0;0;0;0;839,4;0;0;
24674;0;0;0;0;0;0;0;839,4;0;0;
24686;0;0;0;0;0;0;0;839,4;0;0;
24694;0;0;0;0;0;0;0;839,4;0;0;
24702;0;0;0;0;0;0;0;839,4;0;0;
24710;0;0;0;0;0;0;0;839,4;1;0;
24718;0;0;0;0;0;0;0;839,4;1;0;
24727;0;0;0;0;0;0;0;839,4;1;0;
24735;0;0;0;0;0;0;0;839,4;1;0;
24743;0;0;0;0;0;0;0;839,4;1;0;
24752;0;0;0;0;0;0;0;839,4;1;0;
24759;0;0;0;0;0;0;0;839,4;1;0;
24768;0;0;0;0;0;0;0;839,4;1;0;
24778;0;0;0;0;0;0;0;839,4;1;0;
24785;0;0;0;0;0;0;0;839,4;1;0;
24794;0;0;0;0;0;0;0;839,4;1;0;
24801;0;0;0;0;0;0;0;839,4;1;0;
24818;0;0;0;0;0;0;0;839,4;1;0;
24827;0;0;0;0;0;0;0;839,4;1;0;
24836;0;0;0;0;0;0;0;839,4;1;0;
24843;0;0;0;0;0;0;0;839,4;1;0;
24852;0;0;0;0;0;0;0;839,4;1;0;
24860;0;0;0;0;0;0;0;839,4;1;0;
24868;0;0;0;0;0;0;0;839,4;1;0;
24877;0;0;0;0;0;0;0;839,4;1;0;
24887;0;0;0;0;0;0;0;839,4;1;0;
24894;0;0;0;0;0;0;0;839,4;1;0;
24910;0;0;0;0;0;0;0;839,4;1;0;
24923;0;0;0;0;0;0;0;839,4;1;0;
24936;0;0;0;0;0;0;0;839,4;1;0;
24945;0;0;0;0;0;0;0;839,4;1;0;
24953;0;0;0;0;0;0;0;839,4;1;0;
24960;0;0;0;0;0;0;0;839,4;1;0;
24968;0;0;0;0;0;0;0;839,4;1;0;
24975;0;0;0;0;0;0;0;839,4;1;0;
24983;0;0;0;0;0;0;0;839,4;1;0;
24990;0;0;0;0;0;0;0;838,95;1;0;
24997;0;0;0;0;0;0;0;838,5;1;0;
25006;0;0;0;0;0;0;0;838,05;1;0;
25015;0;0;0;0;0;0;0;836,75;1;0;
25023;0;0;0;0;0;0;0;835,45;1;0;
25031;0;0;0;0;0;0;0;833,45;1;0;
25039;0;0;0;0;0;0;0;831,45;1;0;
25047;0;0;0;0;0;0;0;829,45;1;0;
25058;0;0;0;0;0;0;0;828,35;1;0;
25067;0;0;0;0;0;0;0;827,25;0;0;
25076;0;0;0;0;0;0;0;827;0;0;
25087;0;0;0;0;0;0;0;826,75;0;0;
25095;0;0;0;0;0;0;0;826,7;0;0;
25104;0;0;0;0;0;0;0;826,65;0;0;
26010;0;0;0;0;0;0;0;826,6;0;0;
26027;0;0;0;0;0;0;0;826,6;0;0;
26038;0;0;0;0;0;0;0;826,6;0;0;
26049;0;0;0;0;0;0;0;826,6;0;0;
26061;0;0;0;0;0;0;0;826,6;0;0;
26072;0;0;0;0;0;0;0;826,6;0;0;
26080;0;0;0;0;0;0;0;827,05;0;0;
26090;0;0;0;0;0;0;0;827,5;0;0;
26098;0;0;0;0;0;0;0;827,95;0;0;
26109;0;0;0;0;0;0;0;829,25;0;0;
26116;0;0;0;0;0;0;0;830,55;0;0;
26126;0;0;0;0;0;0;0;832,55;0;0;
26136;0;0;0;0;0;0;0;834,55;0;0;
26144;0;0;0;0;0;0;0;836,55;0;0;
26154;0;0;0;0;0;0;0;837,65;0;0;
26162;0;0;0;0;0;0;0;838,75;0;0;
26171;0;0;0;0;0;0;0;839;0;0;
26182;0;0;0;0;0;0;0;839,25;0;0;
26189;0;0;0;0;0;0;0;839,3;0;0;
26197;0;0;0;0;0;0;0;839,35;0;0;
26203;0;0;0;0;0;0;0;839,4;0;0;
26209;0;0;0;0;0;0;0;839,4;0;0;
26217;0;0;0;0;0;0;0;839,4;0;0;
26223;0;0;0;0;0;0;0;839,4;0;0;
26229;0;0;0;0;0;0;0;839,4;0;0;
26234;0;0;0;0;0;0;0;839,4;0;0;
26240;0;0;0;0;0;0;0;839,4;0;0;
26246;0;0;0;0;0;0;0;839,4;0;0;
26253;0;0;0;0;0;0;0;839,4;0;0;
26259;0;0;0;0;0;0;0;839,4;0;0;
26265;0;0;0;0;0;0;0;839,4;0;0;
26271;0;0;0;0;0;0;0;839,4;0;0;
26275;0;0;0;0;0;0;0;839,4;0;0;
26281;0;0;0;0;0;0;0;839,4;0;0;
26287;0;0;0;0;0;0;0;839,4;0;0;
26294;0;0;0;0;0;0;0;839,4;0;0;
26305;0;0;0;0;0;0;0;839,4;0;0;
26312;0;0;0;0;0;0;0;839,4;0;0;
26319;0;0;0;0;0;0;0;839,4;0;0;
26324;0;0;0;0;0;0;0;839,4;0;0;
26330;0;0;0;0;0;0;0;839,4;0;0;
26336;0;0;0;0;0;0;0;839,4;0;0;
26342;0;0;0;0;0;0;0;839,4;0;0;
26350;0;0;0;0;0;0;0;839,4;0;0;
26357;0;0;0;0;0;0;0;839,4;0;0;
26363;0;0;0;0;0;0;0;839,4;0;0;
26373;0;0;0;0;0;0;0;839,4;0;0;
26379;0;0;0;0;0;0;0;839,4;0;0;
26388;0;0;0;0;0;0;0;839,4;0;0;
26394;0;0;0;0;0;0;0;839,4;0;0;
26400;0;0;0;0;0;0;0;839,4;0;0;
26407;0;0;0;0;0;0;0;839,4;0;0;
26413;0;0;0;0;0;0;0;839,4;0;0;
26421;0;0;0;0;0;0;0;839,4;0;0;
26427;0;0;0;0;0;0;0;839,4;0;0;
26435;0;0;0;0;0;0;0;839,4;0;0;
26441;0;0;0;0;0;0;0;839,4;0;0;
26450;0;0;0;0;0;0;0;839,4;0;0;
26458;0;0;0;0;0;0;0;839,4;0;0;
26467;0;0;0;0;0;0;0;839,4;0;0;
26476;0;0;0;0;0;0;0;839,4;0;0;
26485;0;0;0;0;0;0;0;839,4;0;0;
26493;0;0;0;0;0;0;0;839,4;0;0;
26499;0;0;0;0;0;0;0;839,4;0;0;
26506;0;0;0;0;0;0;0;839,4;0;0;
26516;0;0;0;0;0;0;0;839,4;0;0;
26523;0;0;0;0;0;0;0;839,4;0;0;
26532;0;0;0;0;0;0;0;839,4;0;0;
26541;0;0;0;0;0;0;0;839,4;0;0;
26550;0;0;0;0;0;0;0;839,4;0;0;
26559;0;0;0;0;0;0;0;839,4;0;0;
26567;0;0;0;0;0;0;0;839,4;0;0;
26575;0;0;0;0;0;0;0;839,4;0;0;
26581;0;0;0;0;0;0;0;839,4;0;0;
26588;0;0;0;0;0;0;0;839,4;0;0;
26595;0;0;0;0;0;0;0;839,4;0;0;
26605;0;0;0;0;0;0;0;839,4;0;0;
26613;0;0;0;0;0;0;0;839,4;0;0;
26625;0;0;0;0;0;0;0;839,4;0;0;
26636;0;0;0;0;0;0;0;839,4;0;0;
26645;0;0;0;0;0;0;0;839,4;0;0;
26652;0;0;0;0;0;0;0;839,4;0;0;
26659;0;0;0;0;0;0;0;839,4;0;0;
26668;0;0;0;0;0;0;0;839,4;0;0;
26674;0;0;0;0;0;0;0;839,4;0;0;
26682;0;0;0;0;0;0;0;839,4;0;0;
26688;0;0;0;0;0;0;0;839,4;0;0;
26700;0;0;0;0;0;0;0;839,4;0;0;
26706;0;0;0;0;0;0;0;839,4;0;0;
26712;0;0;0;0;0;0;0;839,4;0;0;
26718;0;0;0;0;0;0;0;839,4;0;0;
26725;0;0;0;0;0;0;0;839,4;0;0;
26732;0;0;0;0;0;0;0;839,4;0;0;
26739;0;0;0;0;0;0;0;839,4;0;0;
26747;0;0;0;0;0;0;0;839,4;0;0;
26753;0;0;0;0;0;0;0;839,4;0;0;
26760;0;0;0;0;0;0;0;839,4;0;0;
26767;0;0;0;0;0;0;0;839,4;0;0;
26776;0;0;0;0;0;0;0;839,4;0;0;
26784;0;0;0;0;0;0;0;839,4;0;0;
26794;0;0;0;0;0;0;0;839,4;0;0;
26801;0;0;0;0;0;0;0;839,4;0;0;
26808;0;0;0;0;0;0;0;839,4;0;0;
26815;0;0;0;0;0;0;0;839,4;0;0;
26825;0;0;0;0;0;0;0;839,4;0;0;
26833;0;0;0;0;0;0;0;839,4;0;0;
26840;0;0;0;0;0;0;0;839,4;0;0;
26847;0;0;0;0;0;0;0;839,4;0;0;
26855;0;0;0;0;0;0;0;839,4;0;0;
26862;0;0;0;0;0;0;0;839,4;0;0;
26870;0;0;0;0;0;0;0;839,4;0;0;
26878;0;0;0;0;0;0;0;839,4;0;0;
26886;0;0;0;0;0;0;0;839,4;0;0;
26894;0;0;0;0;0;0;0;839,4;0;0;
26901;0;0;0;0;0;0;0;839,4;0;0;
26908;0;0;0;0;0;0;0;839,4;0;0;
26916;0;0;0;0;0;0;0;839,4;0;0;
26922;0;0;0;0;0;0;0;839,4;0;0;
26930;0;0;0;0;0;0;0;839,4;0;0;
26938;0;0;0;0;0;0;0;839,4;0;0;
26950;0;0;0;0;0;0;0;839,4;0;0;
26957;0;0;0;0;0;0;0;839,4;0;0;
26965;0;0;0;0;0;0;0;839,4;0;0;
26972;0;0;0;0;0;0;0;839,4;0;0;
26980;0;0;0;0;0;0;0;839,4;0;0;
26987;0;0;0;0;0;0;0;839,4;0;0;
26995;0;0;0;0;0;0;0;839,4;0;0;
27002;0;0;0;0;0;0;0;839,4;0;0;
27011;0;0;0;0;0;0;0;839,4;0;0;
27019;0;0;0;0;0;0;0;839,4;0;0;
27032;0;0;0;0;0;0;0;839,4;0;0;
27039;0;0;0;0;0;0;0;839,4;0;0;
27047;0;0;0;0;0;0;0;839,4;0;0;
27056;0;0;0;0;0;0;0;839,4;0;0;
27066;0;0;0;0;0;0;0;839,4;0;0;
27076;0;0;0;0;0;0;0;839,4;0;0;
27086;0;0;0;0;0;0;0;839,4;0;0;
27096;0;0;0;0;0;0;0;839,4;0;0;
27103;0;0;0;0;0;0;0;839,4;0;0;
27110;0;0;0;0;0;0;0;839,4;0;0;
27122;0;0;0;0;0;0;0;839,4;0;0;
27133;0;0;0;0;0;0;0;839,4;0;0;
27141;0;0;0;0;0;0;0;839,4;0;0;
27150;0;0;0;0;0;0;0;839,4;0;0;
27157;0;0;0;0;0;0;0;839,4;0;0;
27164;0;0;0;0;0;0;0;839,4;0;0;
27171;0;0;0;0;0;0;0;839,4;0;0;
27179;0;0;0;0;0;0;0;839,4;0;0;
27185;0;0;0;0;0;0;0;839,4;0;0;
27193;0;0;0;0;0;0;0;839,4;0;0;
27201;0;0;0;0;0;0;0;839,4;0;0;
27207;0;0;0;0;0;0;0;839,4;0;0;
27214;0;0;0;0;0;0;0;839,4;0;0;
27220;0;0;0;0;0;0;0;839,4;0;0;
27227;0;0;0;0;0;0;0;839,4;0;0;
27234;0;0;0;0;0;0;0;839,4;0;0;
27239;0;0;0;0;0;0;0;839,4;0;0;
27246;0;0;0;0;0;0;0;839,4;0;0;
27252;0;0;0;0;0;0;0;839,4;0;0;
27258;0;0;0;0;0;0;0;839,4;0;0;
27264;0;0;0;0;0;0;0;839,4;0;0;
27270;0;0;0;0;0;0;0;839,4;1;0;
27278;0;0;0;0;0;0;0;839,4;1;0;
27286;0;0;0;0;0;0;0;839,4;1;0;
27295;0;0;0;0;0;0;0;839,4;1;0;
27302;0;0;0;0;0;0;0;839,4;1;0;
27309;0;0;0;0;0;0;0;839,4;1;0;
27318;0;0;0;0;0;0;0;839,4;1;0;
27326;0;0;0;0;0;0;0;839,4;1;0;
27335;0;0;0;0;0;0;0;839,4;1;0;
27341;0;0;0;0;0;0;0;839,4;1;0;
27349;0;0;0;0;0;0;0;839,4;1;0;
27358;0;0;0;0;0;0;0;839,4;1;0;
27366;0;0;0;0;0;0;0;839,4;1;0;
27374;0;0;0;0;0;0;0;839,4;1;0;
27382;0;0;0;0;0;0;0;839,4;1;0;
27389;0;0;0;0;0;0;0;839,4;1;0;
27397;0;0;0;0;0;0;0;839,4;1;0;
27404;0;0;0;0;0;0;0;839,4;1;0;
27414;0;0;0;0;0;0;0;839,4;1;0;
27420;0;0;0;0;0;0;0;839,4;1;0;
27431;0;0;0;0;0;0;0;839,4;1;0;
27438;0;0;0;0;0;0;0;839,4;1;0;
27445;0;0;0;0;0;0;0;839,4;1;0;
27453;0;0;0;0;0;0;0;839,4;1;0;
27461;0;0;0;0;0;0;0;839,4;1;0;
27469;0;0;0;0;0;0;0;839,4;1;0;
27477;0;0;0;0;0;0;0;839,4;1;0;
27483;0;0;0;0;0;0;0;839,4;1;0;
27491;0;0;0;0;0;0;0;839,4;1;0;
27498;0;0;0;0;0;0;0;839,4;1;0;
27506;0;0;0;0;0;0;0;839,4;1;0;
27514;0;0;0;0;0;0;0;839,4;1;0;
27522;0;0;0;0;0;0;0;839,4;1;0;
27529;0;0;0;0;0;0;0;839,4;1;0;
27538;0;0;0;0;0;0;0;839,4;1;0;
27545;0;0;0;0;0;0;0;839,4;1;0;
27554;0;0;0;0;0;0;0;839,4;1;0;
27561;0;0;0;0;0;0;0;839,4;1;0;
27569;0;0;0;0;0;0;0;839,4;1;0;
27576;0;0;0;0;0;0;0;839,4;1;0;
27583;0;0;0;0;0;0;0;839,4;1;0;
27590;0;0;0;0;0;0;0;839,4;1;0;
27597;0;0;0;0;0;0;0;839,4;1;0;
27603;0;0;0;0;0;0;0;839,4;1;0;
27611;0;0;0;0;0;0;0;839,4;1;0;
27620;0;0;0;0;0;0;0;839,4;1;0;
27632;0;0;0;0;0;0;0;839,4;0;0;
27650;0;0;0;0;0;0;0;839,4;0;0;
27657;0;0;0;0;0;0;0;839,4;0;0;
27663;0;0;0;0;0;0;0;839,4;0;0;
27670;0;0;0;0;0;0;0;839,4;0;0;
27678;0;0;0;0;0;0;0;839,4;0;0;
27684;0;0;0;0;0;0;0;839,4;0;0;
27691;0;0;0;0;0;0;0;839,4;0;0;
27698;0;0;0;0;0;0;0;839,4;0;0;
27706;0;0;0;0;0;0;0;839,4;0;0;
27714;0;0;0;0;0;0;0;839,4;0;0;
27721;0;0;0;0;0;0;0;839,4;0;0;
27730;0;0;0;0;0;0;0;839,4;0;0;
27738;0;0;0;0;0;0;0;839,4;0;0;
27745;0;0;0;0;0;0;0;839,4;0;0;
27753;0;0;0;0;0;0;0;839,4;0;0;
27759;0;0;0;0;0;0;0;839,4;0;0;
27770;0;0;0;0;0;0;0;839,4;0;0;
27778;0;0;0;0;0;0;0;839,4;0;0;
27787;0;0;0;0;0;0;0;839,4;0;0;
27797;0;0;0;0;0;0;0;839,4;0;0;
27804;0;0;0;0;0;0;0;839,4;0;0;
27812;0;0;0;0;0;0;0;839,4;0;0;
27819;0;0;0;0;0;0;0;839,4;0;0;
27826;0;0;0;0;0;0;0;839,4;0;0;
27837;0;0;0;0;0;0;0;839,4;0;0;
27843;0;0;0;0;0;0;0;839,4;0;0;
27851;0;0;0;0;0;0;0;839,4;0;0;
27859;0;0;0;0;0;0;0;839,4;0;0;
27867;0;0;0;0;0;0;0;839,4;0;0;
27874;0;0;0;0;0;0;0;839,4;0;0;
27882;0;0;0;0;0;0;0;839,4;0;0;
27890;0;0;0;0;0;0;0;839,4;0;0;
27898;0;0;0;0;0;0;0;839,4;0;0;
27906;0;0;0;0;0;0;0;839,4;0;0;
27914;0;0;0;0;0;0;0;839,4;0;0;
27921;0;0;0;0;0;0;0;839,4;0;0;
27929;0;0;0;0;0;0;0;839,4;0;0;
27937;0;0;0;0;0;0;0;839,4;0;0;
27944;0;0;0;0;0;0;0;839,4;0;0;
27951;0;0;0;0;0;0;0;839,4;0;0;
27960;0;0;0;0;0;0;0;839,4;0;0;
27969;0;0;0;0;0;0;0;839,4;0;0;
27978;0;0;0;0;0;0;0;839,4;0;0;
27986;0;0;0;0;0;0;0;839,4;0;0;
27995;0;0;0;0;0;0;0;839,4;0;0;
28002;0;0;0;0;0;0;0;839,4;0;0;
28009;0;0;0;0;0;0;0;839,4;0;0;
28018;0;0;0;0;0;0;0;839,4;0;0;
28026;0;0;0;0;0;0;0;839,4;0;0;
28034;0;0;0;0;0;0;0;839,4;0;0;
28044;0;0;0;0;0;0;0;839,4;0;0;
28051;0;0;0;0;0;0;0;839,4;0;0;
28059;0;0;0;0;0;0;0;839,4;0;0;
28066;0;0;0;0;0;0;0;839,4;0;0;
28074;0;0;0;0;0;0;0;839,4;0;0;
28084;0;0;0;0;0;0;0;839,4;0;0;
28091;0;0;0;0;0;0;0;839,4;0;0;
28099;0;0;0;0;0;0;0;839,4;0;0;
28106;0;0;0;0;0;0;0;839,4;0;0;
28114;0;0;0;0;0;0;0;839,4;0;0;
28120;0;0;0;0;0;0;0;839,4;0;0;
28129;0;0;0;0;0;0;0;839,4;0;0;
28136;0;0;0;0;0;0;0;839,4;0;0;
28145;0;0;0;0;0;0;0;839,4;0;0;
28157;0;0;0;0;0;0;0;839,4;0;0;
28163;0;0;0;0;0;0;0;839,4;0;0;
28169;0;0;0;0;0;0;0;839,4;0;0;
28176;0;0;0;0;0;0;0;839,4;0;0;
28182;0;0;0;0;0;0;0;839,4;0;0;
28189;0;0;0;0;0;0;0;839,4;0;0;
28196;0;0;0;0;0;0;0;839,4;0;0;
28202;0;0;0;0;0;0;0;839,4;0;0;
28208;0;0;0;0;0;0;0;839,4;0;0;
28216;0;0;0;0;0;0;0;839,4;0;0;
28222;0;0;0;0;0;0;0;839,4;0;0;
28229;0;0;0;0;0;0;0;839,4;0;0;
28237;0;0;0;0;0;0;0;839,4;0;0;
28247;0;0;0;0;0;0;0;839,4;0;0;
28257;0;0;0;0;0;0;0;839,4;0;0;
28267;0;0;0;0;0;0;0;839,4;0;0;
28279;0;0;0;0;0;0;0;839,4;0;0;
28290;0;0;0;0;0;0;0;839,4;0;0;
28299;0;0;0;0;0;0;0;839,4;0;0;
28308;0;0;0;0;0;0;0;839,4;0;0;
28316;0;0;0;0;0;0;0;839,4;0;0;
28322;0;0;0;0;0;0;0;839,4;0;0;
28329;0;0;0;0;0;0;0;839,4;0;0;
28336;0;0;0;0;0;0;0;839,4;0;0;
28342;0;0;0;0;0;0;0;839,4;0;0;
28349;0;0;0;0;0;0;0;839,4;0;0;
28357;0;0;0;0;0;0;0;839,4;0;0;
28363;0;0;0;0;0;0;0;839,4;0;0;
28371;0;0;0;0;0;0;0;839,4;0;0;
28378;0;0;0;0;0;0;0;839,4;0;0;
28390;0;0;0;0;0;0;0;839,4;0;0;
28402;0;0;0;0;0;0;0;839,4;0;0;
28408;0;0;0;0;0;0;0;839,4;0;0;
28417;0;0;0;0;0;0;0;839,4;0;0;
28423;0;0;0;0;0;0;0;839,4;0;0;
28430;0;0;0;0;0;0;0;839,4;0;0;
28438;0;0;0;0;0;0;0;839,4;0;0;
28448;0;0;0;0;0;0;0;839,4;0;0;
28456;0;0;0;0;0;0;0;839,4;0;0;
28462;0;0;0;0;0;0;0;839,4;0;0;
28469;0;0;0;0;0;0;0;839,4;0;0;
28476;0;0;0;0;0;0;0;839,4;0;0;
28485;0;0;0;0;0;0;0;839,4;0;0;
28494;0;0;0;0;0;0;0;839,4;0;0;
28502;0;0;0;0;0;0;0;839,4;0;0;
28509;0;0;0;0;0;0;0;839,4;0;0;
28518;0;0;0;0;0;0;0;839,4;0;0;
28525;0;0;0;0;0;0;0;839,4;0;0;
28534;0;0;0;0;0;0;0;839,4;0;0;
28541;0;0;0;0;0;0;0;839,4;0;0;
28549;0;0;0;0;0;0;0;839,4;0;0;
28558;0;0;0;0;0;0;0;839,4;0;0;
28566;0;0;0;0;0;0;0;839,4;0;0;
28575;0;0;0;0;0;0;0;839,4;0;0;
28581;0;0;0;0;0;0;0;839,4;0;0;
28587;0;0;0;0;0;0;0;839,4;0;0;
28601;0;0;0;0;0;0;0;839,4;0;0;
28609;0;0;0;0;0;0;0;839,4;0;0;
28616;0;0;0;0;0;0;0;839,4;0;0;
28623;0;0;0;0;0;0;0;839,4;0;0;
28630;0;0;0;0;0;0;0;839,4;0;0;
28638;0;0;0;0;0;0;0;839,4;0;0;
28647;0;0;0;0;0;0;0;839,4;0;0;
28654;0;0;0;0;0;0;0;839,4;0;0;
28662;0;0;0;0;0;0;0;839,4;0;0;
28671;0;0;0;0;0;0;0;839,4;0;0;
28682;0;0;0;0;0;0;0;839,4;0;0;
28692;0;0;0;0;0;0;0;839,4;0;0;
28698;0;0;0;0;0;0;0;839,4;0;0;
28705;0;0;0;0;0;0;0;839,4;0;0;
28713;0;0;0;0;0;0;0;839,4;0;0;
28719;0;0;0;0;0;0;0;839,4;0;0;
28725;0;0;0;0;0;0;0;839,4;0;0;
28733;0;0;0;0;0;0;0;839,4;0;0;
28739;0;0;0;0;0;0;0;839,4;0;0;
28747;0;0;0;0;0;0;0;839,4;0;0;
28755;0;0;0;0;0;0;0;839,4;0;0;
28761;0;0;0;0;0;0;0;839,4;0;0;
28770;0;0;0;0;0;0;0;839,4;0;0;
28778;0;0;0;0;0;0;0;839,4;0;0;
28784;0;0;0;0;0;0;0;839,4;0;0;
28792;0;0;0;0;0;0;0;839,4;0;0;
28800;0;0;0;0;0;0;0;839,4;0;0;
28809;0;0;0;0;0;0;0;839,4;0;0;
28817;0;0;0;0;0;0;0;839,4;0;0;
28823;0;0;0;0;0;0;0;839,4;0;0;
28832;0;0;0;0;0;0;0;839,4;0;0;
28840;0;0;0;0;0;0;0;839,4;0;0;
28850;0;0;0;0;0;0;0;839,4;0;0;
28857;0;0;0;0;0;0;0;839,4;0;0;
28863;0;0;0;0;0;0;0;839,4;0;0;
28872;0;0;0;0;0;0;0;839,4;0;0;
28880;0;0;0;0;0;0;0;839,4;0;0;
28889;0;0;0;0;0;0;0;839,4;0;0;
28896;0;0;0;0;0;0;0;839,4;0;0;
28903;0;0;0;0;0;0;0;839,4;0;0;
28910;0;0;0;0;0;0;0;839,4;0;0;
28922;0;0;0;0;0;0;0;839,4;0;0;
28929;0;0;0;0;0;0;0;839,4;0;0;
28936;0;0;0;0;0;0;0;839,4;0;0;
28943;0;0;0;0;0;0;0;839,4;0;0;
28952;0;0;0;0;0;0;0;839,4;0;0;
28961;0;0;0;0;0;0;0;839,4;0;0;
28969;0;0;0;0;0;0;0;839,4;0;0;
28977;0;0;0;0;0;0;0;839,4;0;0;
28987;0;0;0;0;0;0;0;839,4;0;0;
28994;0;0;0;0;0;0;0;839,4;0;0;
29003;0;0;0;0;0;0;0;839,4;0;0;
29012;0;0;0;0;0;0;0;839,4;0;0;
29020;0;0;0;0;0;0;0;839,4;0;0;
29029;0;0;0;0;0;0;0;839,4;0;0;
29037;0;0;0;0;0;0;0;839,4;0;0;
29046;0;0;0;0;0;0;0;839,4;1;0;
29056;0;0;0;0;0;0;0;839,4;1;0;
29063;0;0;0;0;0;0;0;839,4;1;0;
29070;0;0;0;0;0;0;0;839,4;1;0;
29078;0;0;0;0;0;0;0;839,4;1;0;
29086;0;0;0;0;0;0;0;839,4;1;0;
29094;0;0;0;0;0;0;0;839,4;1;0;
29100;0;0;0;0;0;0;0;839,4;1;0;
29109;0;0;0;0;0;0;0;839,4;1;0;
29118;0;0;0;0;0;0;0;839,4;1;0;
29126;0;0;0;0;0;0;0;839,4;1;0;
29136;0;0;0;0;0;0;0;839,4;1;0;
29144;0;0;0;0;0;0;0;839,4;1;0;
29152;0;0;0;0;0;0;0;839,4;1;0;
29160;0;0;0;0;0;0;0;839,4;1;0;
29167;0;0;0;0;0;0;0;839,4;1;0;
29177;0;0;0;0;0;0;0;839,4;1;0;
29188;0;0;0;0;0;0;0;839,35;1;0;
29196;0;0;0;0;0;0;0;839,3;1;0;
29202;0;0;0;0;0;0;0;838,95;1;0;
29208;0;0;0;0;0;0;0;838,6;1;0;
29216;0;0;0;0;0;0;0;838,25;1;0;
29223;0;0;0;0;0;0;0;837,8;1;0;
29230;0;0;0;0;0;0;0;837,35;1;0;
29240;0;0;0;0;0;0;0;836,9;1;0;
29248;0;0;0;0;0;0;0;836,45;1;0;
29258;0;0;0;0;0;0;0;836;1;0;
29265;0;0;0;0;0;0;0;835,6;1;0;
29276;0;0;0;0;0;0;0;835,2;1;0;
29284;0;0;0;0;0;0;0;834,8;1;0;
29293;0;0;0;0;0;0;0;834,4;1;0;
29302;0;0;0;0;0;0;0;834;1;0;
29311;0;0;0;0;0;0;0;833,85;1;0;
29320;0;0;0;0;0;0;0;833,7;1;0;
29329;0;0;0;0;0;0;0;833,6;1;0;
29338;0;0;0;0;0;0;0;833,5;1;0;
29345;0;0;0;0;0;0;0;833,4;1;0;
29354;0;0;0;0;0;0;0;833,3;1;0;
29361;0;0;0;0;0;0;0;833,2;1;0;
29370;0;0;0;0;0;0;0;833,4;1;0;
29377;0;0;0;0;0;0;0;833,6;1;0;
29390;0;0;0;0;0;0;0;833,8;1;0;
29399;0;0;0;0;0;0;0;834;1;0;
29407;0;0;0;0;0;0;0;834,2;0;0;
29414;0;0;0;0;0;0;0;834,35;0;0;
29421;0;0;0;0;0;0;0;834,5;0;0;
29433;0;0;0;0;0;0;0;834,65;0;0;
29440;0;0;0;0;0;0;0;834,7;0;0;
29449;0;0;0;0;0;0;0;834,75;0;0;
29459;0;0;0;0;0;0;0;834,65;0;0;
29467;0;0;0;0;0;0;0;834,55;0;0;
29477;0;0;0;0;0;0;0;834,45;0;0;
29483;0;0;0;0;0;0;0;833,9;0;0;
29492;0;0;0;0;0;0;0;833,35;0;0;
29500;0;0;0;0;0;0;0;832,6;0;0;
29510;0;0;0;0;0;0;0;831,85;0;0;
29519;0;0;0;0;0;0;0;831,1;0;0;
29527;0;0;0;0;0;0;0;830,3;0;0;
29535;0;0;0;0;0;0;0;829,5;0;0;
29542;0;0;0;0;0;0;0;828,5;0;0;
29552;0;0;0;0;0;0;0;827,5;0;0;
29562;0;0;0;0;0;0;0;826,5;0;0;
29571;0;0;0;0;0;0;0;825;0;0;
29578;0;0;0;0;0;0;0;823,5;0;0;
29586;0;0;0;0;0;0;0;821,45;0;0;
29598;0;0;0;0;0;0;0;819,4;0;0;
29606;0;0;0;0;0;0;0;816,65;0;0;
29613;0;0;0;0;0;0;0;813,95;0;0;
29622;0;0;0;0;0;0;0;811,25;0;0;
29630;0;0;0;0;0;0;0;808,05;0;0;
29638;0;0;0;0;0;0;0;804,85;0;0;
29647;0;0;0;0;0;0;0;801,65;0;0;
29653;0;0;0;0;0;0;0;798,15;0;0;
29664;0;0;0;0;0;0;0;794,65;0;0;
29672;0;0;0;0;0;0;0;790,95;0;0;
29681;0;0;0;0;0;0;0;787,25;0;0;
29693;0;0;0;0;0;0;0;783,55;0;0;
29706;0;0;0;0;0;0;0;779,95;0;0;
29713;0;0;0;0;0;0;0;776,35;0;0;
29719;0;0;0;0;0;0;0;772,45;0;0;
29727;0;0;0;0;0;0;0;768,55;0;0;
29733;0;0;0;0;0;0;0;764,6;0;0;
29740;0;0;0;0;0;0;0;761,25;0;0;
29749;0;0;0;0;0;0;0;757,9;0;0;
29757;0;0;0;0;0;0;0;754,95;0;0;
29764;0;0;0;0;0;0;0;752;0;0;
29774;0;0;0;0;0;0;0;749,75;0;0;
29782;0;0;0;0;0;0;0;747,5;0;0;
29790;0;0;0;0;0;0;0;745,25;0;0;
29798;0;0;0;0;0;0;0;743,6;0;0;
29806;0;0;0;0;0;0;0;741,95;0;0;
29814;0;0;0;0;0;0;0;740,3;0;0;
29821;0;0;0;0;0;0;0;739;0;0;
29828;0;0;0;0;0;0;0;737,7;0;0;
29838;0;0;0;0;0;0;0;736,75;0;0;
29845;0;0;0;0;0;0;0;735,8;0;0;
29853;0;0;0;0;0;0;0;734,85;0;0;
29860;0;0;0;0;0;0;0;734;0;0;
29869;0;0;0;0;0;0;0;733,15;0;0;
29877;0;0;0;0;0;0;0;732,8;0;0;
29886;0;0;0;0;0;0;0;732,55;0;0;
29894;0;0;0;0;0;0;0;732,35;0;0;
29904;0;0;0;0;0;0;0;732,4;0;0;
29912;0;0;0;0;0;0;0;732,45;0;0;
29920;0;0;0;0;0;0;0;732,7;0;0;
29927;0;0;0;0;0;0;0;733,15;0;0;
29935;0;0;0;0;0;0;0;733,6;0;0;
29943;0;0;0;0;0;0;0;734,05;0;0;
29951;0;0;0;0;0;0;0;734,65;0;0;
29961;0;0;0;0;0;0;0;735,3;0;0;
29968;0;0;0;0;0;0;0;736,05;0;0;
29976;0;0;0;0;0;0;0;736,8;0;0;
29983;0;0;0;0;0;0;0;737,7;0;0;
29991;0;0;0;0;0;0;0;738,55;0;0;
29998;0;0;0;0;0;0;0;739,4;0;0;
30006;0;0;0;0;0;0;0;740,25;0;0;
30015;0;0;0;0;0;0;0;741,1;0;0;
30022;0;0;0;0;0;0;0;741,85;0;0;
30030;0;0;0;0;0;0;0;742,6;0;0;
30037;0;0;0;0;0;0;0;743,25;0;0;
30045;0;0;0;0;0;0;0;743,8;0;0;
30054;0;0;0;0;0;0;0;744,25;0;0;
30061;0;0;0;0;0;0;0;744,45;0;0;
30072;0;0;0;0;0;0;0;744,65;0;0;
30080;0;0;0;0;0;0;0;744,8;0;0;
30088;0;0;0;0;0;0;0;744,75;0;0;
30098;0;0;0;0;0;0;0;744,6;0;0;
30107;0;0;0;0;0;0;0;744,45;0;0;
30115;0;0;0;0;0;0;0;744,15;0;0;
30123;0;0;0;0;0;0;0;743,65;0;0;
30132;0;0;0;0;0;0;0;743,05;0;0;
30143;0;0;0;0;0;0;0;742,25;0;0;
30153;0;0;0;0;0;0;0;741,45;0;0;
30160;0;0;0;0;0;0;0;740,45;0;0;
30169;0;0;0;0;0;0;0;739,45;0;0;
30178;0;0;0;0;0;0;0;738,45;0;0;
30186;0;0;0;0;0;0;0;737,25;0;0;
30195;0;0;0;0;0;0;0;736,05;0;0;
30209;0;0;0;0;0;0;0;734,9;0;0;
30220;0;0;0;0;0;0;0;733,85;0;0;
30227;0;0;0;0;0;0;0;732,85;0;0;
30235;0;0;0;0;0;0;0;731,95;0;0;
30245;0;0;0;0;0;0;0;731,2;0;0;
30252;0;0;0;0;0;0;0;730,45;0;0;
30261;0;0;0;0;0;0;0;729,75;0;0;
30272;0;0;0;0;0;0;0;729,25;0;0;
30280;0;0;0;0;0;0;0;728,85;0;0;
30289;0;0;0;0;0;0;0;728,55;0;0;
30296;0;0;0;0;0;0;0;728,25;0;0;
30306;0;0;0;0;0;0;0;728,15;0;0;
30315;0;0;0;0;0;0;0;728,1;0;0;
30323;0;0;0;0;0;0;0;728,25;0;0;
30331;0;0;0;0;0;0;0;728,4;0;0;
30341;0;0;0;0;0;0;0;728,8;0;0;
30352;0;0;0;0;0;0;0;729,2;0;0;
30360;0;0;0;0;0;0;0;729,55;0;0;
30368;0;0;0;0;0;0;0;730,1;0;0;
30378;0;0;0;0;0;0;0;730,75;0;0;
30386;0;0;0;0;0;0;0;731,35;0;0;
30394;0;0;0;0;0;0;0;732;0;0;
30401;0;0;0;0;0;0;0;732,6;0;0;
30410;0;0;0;0;0;0;0;733,2;0;0;
30418;0;0;0;0;0;0;0;733,6;0;0;
30426;0;0;0;0;0;0;0;734;0;0;
30437;0;0;0;0;0;0;0;734,4;0;0;
30446;0;0;0;0;0;0;0;734,65;0;0;
30455;0;0;0;0;0;0;0;734,9;0;0;
30462;0;0;0;0;0;0;0;735,05;0;0;
30475;0;0;0;0;0;0;0;735,2;0;0;
30483;0;0;0;0;0;0;0;735,2;0;0;
30490;0;0;0;0;0;0;0;735,15;0;0;
30501;0;0;0;0;0;0;0;735,1;0;0;
30510;0;0;0;0;0;0;0;735,05;0;0;
30519;0;0;0;0;0;0;0;735;0;0;
30527;0;0;0;0;0;0;0;735;0;0;
30536;0;0;0;0;0;0;0;735,05;0;0;
30543;0;0;0;0;0;0;0;735,15;0;0;
30551;0;0;0;0;0;0;0;735,15;0;0;
30563;0;0;0;0;0;0;0;735,15;0;0;
30571;0;0;0;0;0;0;0;735,35;0;0;
30578;0;0;0;0;0;0;0;735,55;0;0;
30585;0;0;0;0;0;0;0;736;0;0;
30594;0;0;0;0;0;0;0;736,5;0;0;
30604;0;0;0;0;0;0;0;737;0;0;
30613;0;0;0;0;0;0;0;737,6;0;0;
30620;0;0;0;0;0;0;0;738,15;0;0;
30633;0;0;0;0;0;0;0;738,7;0;0;
30641;0;0;0;0;0;0;0;739,25;0;0;
30649;0;0;0;0;0;0;0;739,8;0;0;
30657;0;0;0;0;0;0;0;740,5;0;0;
30669;0;0;0;0;0;0;0;741,2;0;0;
30678;0;0;0;0;0;0;0;741,9;0;0;
30687;0;0;0;0;0;0;0;742,6;0;0;
30696;0;0;0;0;0;0;0;743,25;0;0;
30707;0;0;0;0;0;0;0;743,85;0;0;
30721;0;0;0;0;0;0;0;744,4;0;0;
30731;0;0;0;0;0;0;0;744,9;0;0;
30739;0;0;0;0;0;0;0;745,25;0;0;
30746;0;0;0;0;0;0;0;745,6;0;0;
30755;0;0;0;0;0;0;0;745,7;0;0;
30762;0;0;0;0;0;0;0;745,65;0;0;
30772;0;0;0;0;0;0;0;745,35;0;0;
30780;0;0;0;0;0;0;0;744,5;0;0;
30787;0;0;0;0;0;0;0;743,65;0;0;
30798;0;0;0;0;0;0;0;742,7;0;0;
30804;0;0;0;0;0;0;0;741,55;0;0;
30812;0;0;0;0;0;0;0;740,4;0;0;
30820;0;0;0;0;0;0;0;739,05;0;0;
30828;0;0;0;0;0;0;0;737,7;0;0;
30837;0;0;0;0;0;0;0;736,35;0;0;
30846;0;0;0;0;0;0;0;734,8;1;0;
30853;0;0;0;0;0;0;0;733,25;1;0;
30863;0;0;0;0;0;0;0;731,65;1;0;
30870;0;0;0;0;0;0;0;730,1;1;0;
30882;0;0;0;0;0;0;0;728,55;1;0;
30890;0;0;0;0;0;0;0;727,25;1;0;
30897;0;0;0;0;0;0;0;725,95;1;0;
30906;0;0;0;0;0;0;0;724,95;1;0;
30913;0;0;0;0;0;0;0;723,95;1;0;
30925;0;0;0;0;0;0;0;722,95;1;0;
30933;0;0;0;0;0;0;0;722,3;1;0;
30940;0;0;0;0;0;0;0;721,65;1;0;
30947;0;0;0;0;0;0;0;721,55;1;0;
30955;0;0;0;0;0;0;0;721,45;1;0;
30968;0;0;0;0;0;0;0;721,35;1;0;
30979;0;0;0;0;0;0;0;721,55;1;0;
30987;0;0;0;0;0;0;0;721,75;1;0;
30997;0;0;0;0;0;0;0;722,3;1;0;
31004;0;0;0;0;0;0;0;722,85;1;0;
31012;0;0;0;0;0;0;0;723,55;1;0;
31019;0;0;0;0;0;0;0;724,45;1;0;
31028;0;0;0;0;0;0;0;725,35;1;0;
31036;0;0;0;0;0;0;0;726,45;1;0;
31042;0;0;0;0;0;0;0;727,55;1;0;
31052;0;0;0;0;0;0;0;728,65;1;0;
31060;0;0;0;0;0;0;0;728,85;1;0;
31067;0;0;0;0;0;0;0;729,05;1;0;
31075;0;0;0;0;0;0;0;728,45;1;0;
31085;0;0;0;0;0;0;0;727,85;1;0;
31093;0;0;0;0;0;0;0;727,25;1;0;
31102;0;0;0;0;0;0;0;726,25;1;0;
31109;0;0;0;0;0;0;0;725,25;1;0;
31117;0;0;0;0;0;0;0;723,85;1;0;
31124;0;0;0;0;0;0;0;722,45;1;0;
31131;0;0;0;0;0;0;0;721,05;1;0;
31139;0;0;0;0;0;0;0;718,95;1;0;
31147;0;0;0;0;0;0;0;716,85;1;0;
31157;0;0;0;0;0;0;0;714,6;1;0;
31165;0;0;0;0;0;0;0;712,75;1;0;
31173;0;0;0;0;0;0;0;710,75;1;0;
31182;0;0;0;0;0;0;0;709,1;1;0;
31189;0;0;0;0;0;0;0;707,45;1;0;
31199;0;0;0;0;0;0;0;705,65;1;0;
31206;0;0;0;0;0;0;0;704,15;0;0;
31216;0;0;0;0;0;0;0;702,65;0;0;
31226;0;0;0;0;0;0;0;702,2;0;0;
31236;0;0;0;0;0;0;0;701,75;0;0;
31243;0;0;0;0;0;0;0;701,95;0;0;
31249;0;0;0;0;0;0;0;702,4;0;0;
31256;0;0;0;0;0;0;0;702,85;0;0;
31267;0;0;0;0;0;0;0;703,5;0;0;
31276;0;0;0;0;0;0;0;704,4;0;0;
31286;0;0;0;0;0;0;0;705,7;0;0;
31293;0;0;0;0;0;0;0;707,1;0;0;
31300;0;0;0;0;0;0;0;708,5;0;0;
31307;0;0;0;0;0;0;0;710,5;0;0;
31313;0;0;0;0;0;0;0;712,5;0;0;
31318;0;0;0;0;0;0;0;714,5;0;0;
31326;0;0;0;0;0;0;0;716,1;0;0;
31331;0;0;0;0;0;0;0;717,7;0;0;
31337;0;0;0;0;0;0;0;718,95;0;0;
31343;0;0;0;0;0;0;0;720,2;0;0;
31350;0;0;0;0;0;0;0;721,45;0;0;
31356;0;0;0;0;0;0;0;722,3;0;0;
31364;0;0;0;0;0;0;0;723,15;0;0;
31372;0;0;0;0;0;0;0;723,65;0;0;
31382;0;0;0;0;0;0;0;724,15;0;0;
31390;0;0;0;0;0;0;0;724,65;0;0;
31400;0;0;0;0;0;0;0;724,8;0;0;
31407;0;0;0;0;0;0;0;724,95;0;0;
31415;0;0;0;0;0;0;0;725;0;0;
31423;0;0;0;0;0;0;0;724,8;0;0;
31436;0;0;0;0;0;0;0;724,6;0;0;
31444;0;0;0;0;0;0;0;724,1;0;0;
31452;0;0;0;0;0;0;0;723,6;0;0;
31459;0;0;0;0;0;0;0;722,9;0;0;
31467;0;0;0;0;0;0;0;722,2;0;0;
31477;0;0;0;0;0;0;0;721,5;0;0;
31487;0;0;0;0;0;0;0;720,7;0;0;
31494;0;0;0;0;0;0;0;719,9;0;0;
31501;0;0;0;0;0;0;0;719,15;0;0;
31510;0;0;0;0;0;0;0;718,4;0;0;
31520;0;0;0;0;0;0;0;717,65;0;0;
31528;0;0;0;0;0;0;0;717;0;0;
31536;0;0;0;0;0;0;0;716,35;0;0;
31544;0;0;0;0;0;0;0;715,95;0;0;
31552;0;0;0;0;0;0;0;715,55;0;0;
31562;0;0;0;0;0;0;0;715,15;0;0;
31570;0;0;0;0;0;0;0;715,3;0;0;
31577;0;0;0;0;0;0;0;715,45;0;0;
31585;0;0;0;0;0;0;0;715,7;0;0;
31591;0;0;0;0;0;0;0;716,3;0;0;
31599;0;0;0;0;0;0;0;716,9;0;0;
31606;0;0;0;0;0;0;0;717,95;0;0;
31614;0;0;0;0;0;0;0;719;0;0;
31624;0;0;0;0;0;0;0;720,25;0;0;
31633;0;0;0;0;0;0;0;721,65;0;0;
31646;0;0;0;0;0;0;0;723,05;0;0;
31655;0;0;0;0;0;0;0;724,7;0;0;
31664;0;0;0;0;0;0;0;726,35;0;0;
31674;0;0;0;0;0;0;0;727,95;0;0;
31681;0;0;0;0;0;0;0;729,55;0;0;
31695;0;0;0;0;0;0;0;731,15;0;0;
31705;0;0;0;0;0;0;0;732,75;0;0;
31714;0;0;0;0;0;0;0;734,35;0;0;
31723;0;0;0;0;0;0;0;735,6;0;0;
31733;0;0;0;0;0;0;0;736,85;0;0;
31743;0;0;0;0;0;0;0;738,1;0;0;
31750;0;0;0;0;0;0;0;738,9;0;0;
31758;0;0;0;0;0;0;0;739,65;0;0;
31766;0;0;0;0;0;0;0;740,4;0;0;
31774;0;0;0;0;0;0;0;740,8;0;0;
31781;0;0;0;0;0;0;0;741,1;0;0;
31789;0;0;0;0;0;0;0;741,15;0;0;
31798;0;0;0;0;0;0;0;741,2;0;0;
31804;0;0;0;0;0;0;0;741,1;0;0;
31811;0;0;0;0;0;0;0;740,85;0;0;
31821;0;0;0;0;0;0;0;740,45;0;0;
31828;0;0;0;0;0;0;0;739,9;0;0;
31840;0;0;0;0;0;0;0;739,35;0;0;
31848;0;0;0;0;0;0;0;738,8;0;0;
31856;0;0;0;0;0;0;0;738,25;0;0;
31863;0;0;0;0;0;0;0;737,75;0;0;
31870;0;0;0;0;0;0;0;737,25;0;0;
31878;0;0;0;0;0;0;0;736,75;0;0;
31886;0;0;0;0;0;0;0;736,45;0;0;
31896;0;0;0;0;0;0;0;736,15;0;0;
31903;0;0;0;0;0;0;0;735,85;0;0;
31910;0;0;0;0;0;0;0;735,55;0;0;
31917;0;0;0;0;0;0;0;735,3;0;0;
31927;0;0;0;0;0;0;0;735,05;0;0;
31935;0;0;0;0;0;0;0;734,95;0;0;
31943;0;0;0;0;0;0;0;734,95;0;0;
31950;0;0;0;0;0;0;0;735,1;0;0;
31957;0;0;0;0;0;0;0;735,25;0;0;
31966;0;0;0;0;0;0;0;735,55;0;0;
31973;0;0;0;0;0;0;0;735,85;0;0;
31981;0;0;0;0;0;0;0;736,3;0;0;
31991;0;0;0;0;0;0;0;736,75;0;0;
31998;0;0;0;0;0;0;0;737,25;0;0;
32006;0;0;0;0;0;0;0;737,75;0;0;
32013;0;0;0;0;0;0;0;738,35;0;0;
32020;0;0;0;0;0;0;0;738,9;0;0;
32027;0;0;0;0;0;0;0;739,45;0;0;
32034;0;0;0;0;0;0;0;739,9;0;0;
32041;0;0;0;0;0;0;0;740,25;0;0;
32049;0;0;0;0;0;0;0;740,6;0;0;
32056;0;0;0;0;0;0;0;741,15;0;0;
32066;0;0;0;0;0;0;0;741,7;0;0;
32073;0;0;0;0;0;0;0;742,25;0;0;
32081;0;0;0;0;0;0;0;742,9;0;0;
32088;0;0;0;0;0;0;0;743,4;0;0;
32101;0;0;0;0;0;0;0;743,9;0;0;
32108;0;0;0;0;0;0;0;744,35;0;0;
32115;0;0;0;0;0;0;0;744,8;0;0;
32122;0;0;0;0;0;0;0;745,2;0;0;
32131;0;0;0;0;0;0;0;745,6;0;0;
32142;0;0;0;0;0;0;0;746;0;0;
32154;0;0;0;0;0;0;0;746,35;0;0;
32163;0;0;0;0;0;0;0;746,65;0;0;
32172;0;0;0;0;0;0;0;746,95;0;0;
32181;0;0;0;0;0;0;0;747,15;0;0;
32195;0;0;0;0;0;0;0;747,2;0;0;
32202;0;0;0;0;0;0;0;747,25;0;0;
32211;0;0;0;0;0;0;0;747,5;0;0;
32222;0;0;0;0;0;0;0;747,75;0;0;
32229;0;0;0;0;0;0;0;748,25;0;0;
32238;0;0;0;0;0;0;0;748,55;0;0;
32253;0;0;0;0;0;0;0;749,05;0;0;
32260;0;0;0;0;0;0;0;749,55;0;0;
32268;0;0;0;0;0;0;0;750,15;0;0;
32275;0;0;0;0;0;0;0;750,75;0;0;
32284;0;0;0;0;0;0;0;751,35;0;0;
32291;0;0;0;0;0;0;0;751,95;0;0;
32302;0;0;0;0;0;0;0;752,55;0;0;
32311;0;0;0;0;0;0;0;753,2;0;0;
32319;0;0;0;0;0;0;0;753,85;0;0;
32330;0;0;0;0;0;0;0;754,5;0;0;
32346;0;0;0;0;0;0;0;755,35;0;0;
32355;0;0;0;0;0;0;0;756,2;0;0;
32362;0;0;0;0;0;0;0;757,15;0;0;
32369;0;0;0;0;0;0;0;758,1;0;0;
32378;0;0;0;0;0;0;0;759,25;0;0;
32386;0;0;0;0;0;0;0;760,4;0;0;
32395;0;0;0;0;0;0;0;761,5;0;0;
32405;0;0;0;0;0;0;0;762,6;0;0;
32414;0;0;0;0;0;0;0;763,45;0;0;
32422;0;0;0;0;0;0;0;764,25;0;0;
32430;0;0;0;0;0;0;0;764,85;0;0;
32440;0;0;0;0;0;0;0;765,5;0;0;
32447;0;0;0;0;0;0;0;765,95;0;0;
32457;0;0;0;0;0;0;0;766,4;0;0;
32468;0;0;0;0;0;0;0;766,65;0;0;
32477;0;0;0;0;0;0;0;766,8;0;0;
32486;0;0;0;0;0;0;0;766,95;0;0;
32494;0;0;0;0;0;0;0;767,1;0;0;
32504;0;0;0;0;0;0;0;767,4;0;0;
32510;0;0;0;0;0;0;0;767,7;0;0;
32519;0;0;0;0;0;0;0;767,85;0;0;
32527;0;0;0;0;0;0;0;768,05;0;0;
32535;0;0;0;0;0;0;0;768,15;0;0;
32543;0;0;0;0;0;0;0;768,25;0;0;
32552;0;0;0;0;0;0;0;768,45;0;0;
32561;0;0;0;0;0;0;0;768,65;0;0;
32571;0;0;0;0;0;0;0;769;0;0;
32578;0;0;0;0;0;0;0;769,35;0;0;
32591;0;0;0;0;0;0;0;769,7;0;0;
32599;0;0;0;0;0;0;0;770,2;0;0;
32608;0;0;0;0;0;0;0;770,7;0;0;
32616;0;0;0;0;0;0;0;771,2;0;0;
32625;0;0;0;0;0;0;0;771,7;0;0;
32633;0;0;0;0;0;0;0;772,2;0;0;
32640;0;0;0;0;0;0;0;772,9;0;0;
32650;0;0;0;0;0;0;0;773,6;1;0;
32657;0;0;0;0;0;0;0;774,25;1;0;
32665;0;0;0;0;0;0;0;774,9;1;0;
32674;0;0;0;0;0;0;0;775,35;1;0;
32684;0;0;0;0;0;0;0;775,8;1;0;
32700;0;0;0;0;0;0;0;776,25;1;0;
32709;0;0;0;0;0;0;0;776,65;1;0;
32720;0;0;0;0;0;0;0;777,05;1;0;
32729;0;0;0;0;0;0;0;777,4;1;0;
32738;0;0;0;0;0;0;0;777,6;1;0;
32753;0;0;0;0;0;0;0;777,8;1;0;
32763;0;0;0;0;0;0;0;777,8;1;0;
32770;0;0;0;0;0;0;0;777,75;1;0;
32776;0;0;0;0;0;0;0;777,7;1;0;
32783;0;0;0;0;0;0;0;777,35;1;0;
32791;0;0;0;0;0;0;0;777;1;0;
32800;0;0;0;0;0;0;0;776,6;1;0;
32809;0;0;0;0;0;0;0;776,15;1;0;
32816;0;0;0;0;0;0;0;775,7;1;0;
32824;0;0;0;0;0;0;0;775,25;1;0;
32832;0;0;0;0;0;0;0;774,8;1;0;
32843;0;0;0;0;0;0;0;774,4;1;0;
32850;0;0;0;0;0;0;0;774,05;1;0;
32856;0;0;0;0;0;0;0;773,75;1;0;
32863;0;0;0;0;0;0;0;773,65;1;0;
32871;0;0;0;0;0;0;0;773,55;1;0;
32880;0;0;0;0;0;0;0;773,45;1;0;
32887;0;0;0;0;0;0;0;773,45;1;0;
32893;0;0;0;0;0;0;0;773,5;1;0;
32904;0;0;0;0;0;0;0;773,55;1;0;
32912;0;0;0;0;0;0;0;773,65;1;0;
32922;0;0;0;0;0;0;0;773,75;1;0;
32929;0;0;0;0;0;0;0;774;1;0;
32937;0;0;0;0;0;0;0;774,25;1;0;
32947;0;0;0;0;0;0;0;774,7;1;0;
32956;0;0;0;0;0;0;0;774,95;1;0;
32963;0;0;0;0;0;0;0;775,2;1;0;
32971;0;0;0;0;0;0;0;775,55;1;0;
32979;0;0;0;0;0;0;0;775,9;1;0;
32989;0;0;0;0;0;0;0;776,25;1;0;
32996;0;0;0;0;0;0;0;776,6;1;0;
33003;0;0;0;0;0;0;0;776,95;1;0;
33011;0;0;0;0;0;0;0;777,25;0;0;
33021;0;0;0;0;0;0;0;777,55;0;0;
33029;0;0;0;0;0;0;0;777,65;0;0;
33036;0;0;0;0;0;0;0;777,7;0;0;
33042;0;0;0;0;0;0;0;777,75;0;0;
33050;0;0;0;0;0;0;0;777,7;0;0;
33057;0;0;0;0;0;0;0;777,6;0;0;
33065;0;0;0;0;0;0;0;777,5;0;0;
33074;0;0;0;0;0;0;0;777,35;0;0;
33082;0;0;0;0;0;0;0;777,15;0;0;
33092;0;0;0;0;0;0;0;776,85;0;0;
33099;0;0;0;0;0;0;0;776,35;0;0;
33107;0;0;0;0;0;0;0;775,85;0;0;
33117;0;0;0;0;0;0;0;775,55;0;0;
33127;0;0;0;0;0;0;0;775,1;0;0;
33136;0;0;0;0;0;0;0;774,6;0;0;
33143;0;0;0;0;0;0;0;774;0;0;
33150;0;0;0;0;0;0;0;773,4;0;0;
33159;0;0;0;0;0;0;0;772,8;0;0;
33167;0;0;0;0;0;0;0;772,1;0;0;
33174;0;0;0;0;0;0;0;771,4;0;0;
33182;0;0;0;0;0;0;0;770,7;0;0;
33189;0;0;0;0;0;0;0;770,1;0;0;
33196;0;0;0;0;0;0;0;769,55;0;0;
33205;0;0;0;0;0;0;0;769,2;0;0;
33213;0;0;0;0;0;0;0;768,85;0;0;
33221;0;0;0;0;0;0;0;768,55;0;0;
33233;0;0;0;0;0;0;0;768,35;0;0;
33241;0;0;0;0;0;0;0;768,15;0;0;
33255;0;0;0;0;0;0;0;768;0;0;
33263;0;0;0;0;0;0;0;767,85;0;0;
33270;0;0;0;0;0;0;0;767,95;0;0;
33277;0;0;0;0;0;0;0;768,05;0;0;
33287;0;0;0;0;0;0;0;768,15;0;0;
33294;0;0;0;0;0;0;0;768,5;0;0;
33302;0;0;0;0;0;0;0;768,85;0;0;
33309;0;0;0;0;0;0;0;769,3;0;0;
33317;0;0;0;0;0;0;0;769,65;0;0;
33327;0;0;0;0;0;0;0;770;0;0;
33334;0;0;0;0;0;0;0;771,05;0;0;
33343;0;0;0;0;0;0;0;772,1;0;0;
33353;0;0;0;0;0;0;0;773,15;0;0;
33363;0;0;0;0;0;0;0;774,45;0;0;
33370;0;0;0;0;0;0;0;775,75;0;0;
33376;0;0;0;0;0;0;0;777,05;0;0;
33382;0;0;0;0;0;0;0;778,35;0;0;
33389;0;0;0;0;0;0;0;779,65;0;0;
33396;0;0;0;0;0;0;0;781,15;0;0;
33402;0;0;0;0;0;0;0;782,65;0;0;
33411;0;0;0;0;0;0;0;784,15;0;0;
33419;0;0;0;0;0;0;0;785,6;0;0;
33426;0;0;0;0;0;0;0;787;0;0;
33434;0;0;0;0;0;0;0;788,4;0;0;
33440;0;0;0;0;0;0;0;789,65;0;0;
33446;0;0;0;0;0;0;0;790,8;0;0;
33455;0;0;0;0;0;0;0;791,95;0;0;
33462;0;0;0;0;0;0;0;792,85;0;0;
33469;0;0;0;0;0;0;0;793,85;0;0;
33478;0;0;0;0;0;0;0;794,85;0;0;
33486;0;0;0;0;0;0;0;795,2;0;0;
33495;0;0;0;0;0;0;0;795,55;0;0;
33503;0;0;0;0;0;0;0;795,9;0;0;
33510;0;0;0;0;0;0;0;795,9;0;0;
33519;0;0;0;0;0;0;0;795,9;0;0;
33530;0;0;0;0;0;0;0;795,75;0;0;
33537;0;0;0;0;0;0;0;795,6;0;0;
33545;0;0;0;0;0;0;0;795,45;0;0;
33554;0;0;0;0;0;0;0;795,15;0;0;
33561;0;0;0;0;0;0;0;794,85;0;0;
33569;0;0;0;0;0;0;0;794,75;1;0;
33577;0;0;0;0;0;0;0;794,7;1;0;
33587;0;0;0;0;0;0;0;794,65;1;0;
33595;0;0;0;0;0;0;0;794,65;1;0;
33602;0;0;0;0;0;0;0;794,8;1;0;
33610;0;0;0;0;0;0;0;794,95;1;0;
33621;0;0;0;0;0;0;0;795,1;1;0;
33631;0;0;0;0;0;0;0;795,5;1;0;
33641;0;0;0;0;0;0;0;796;1;0;
33649;0;0;0;0;0;0;0;796,5;1;0;
33656;0;0;0;0;0;0;0;797,05;1;0;
33663;0;0;0;0;0;0;0;797,6;1;0;
33671;0;0;0;0;0;0;0;798,15;1;0;
33678;0;0;0;0;0;0;0;798,65;1;0;
33686;0;0;0;0;0;0;0;799,15;1;0;
33699;0;0;0;0;0;0;0;799,6;1;0;
33707;0;0;0;0;0;0;0;800,05;1;0;
33714;0;0;0;0;0;0;0;800,5;1;0;
33721;0;0;0;0;0;0;0;800,8;1;0;
33731;0;0;0;0;0;0;0;801,1;1;0;
33739;0;0;0;0;0;0;0;801,1;1;0;
33749;0;0;0;0;0;0;0;801,1;1;0;
33756;0;0;0;0;0;0;0;801,1;1;0;
33762;0;0;0;0;0;0;0;800,95;1;0;
33769;0;0;0;0;0;0;0;800,8;1;0;
33776;0;0;0;0;0;0;0;800,65;1;0;
33782;0;0;0;0;0;0;0;800,3;1;0;
33789;0;0;0;0;0;0;0;799,95;1;0;
33797;0;0;0;0;0;0;0;799,5;1;0;
33806;0;0;0;0;0;0;0;799;1;0;
33814;0;0;0;0;0;0;0;798,5;1;0;
33821;0;0;0;0;0;0;0;798;1;0;
33829;0;0;0;0;0;0;0;797,55;1;0;
33837;0;0;0;0;0;0;0;797,15;1;0;
33843;0;0;0;0;0;0;0;796,75;1;0;
33850;0;0;0;0;0;0;0;796,35;1;0;
33858;0;0;0;0;0;0;0;795,95;1;0;
33865;0;0;0;0;0;0;0;795,55;1;0;
33872;0;0;0;0;0;0;0;795,4;1;0;
33879;0;0;0;0;0;0;0;795,25;1;0;
33888;0;0;0;0;0;0;0;795,45;1;0;
33896;0;0;0;0;0;0;0;795,65;1;0;
33907;0;0;0;0;0;0;0;795,85;1;0;
33915;0;0;0;0;0;0;0;796,25;1;0;
33926;0;0;0;0;0;0;0;796,65;0;0;
33937;0;0;0;0;0;0;0;796,9;0;0;
33944;0;0;0;0;0;0;0;797,35;0;0;
33953;0;0;0;0;0;0;0;797,55;0;0;
33967;0;0;0;0;0;0;0;797,75;0;0;
