Time; EMG1; EMG2; EMG3; EMG4; EMG1_F; EMG2_F; EMG3_F; EMG4_F;Note_R;Note_V;;Level 3;Joueur;Notes hit;% Reussite R;Offset EMG1;Onset EMG1;% Reussite V;Offset EMG2;Onset EMG2
11;-34,12626;-6,912985;-24,85122;-41,62288;1,357653;1,697263;1,055244;2,033399;0;0;;;1;171;80,80808;-24,58163;49,69818;91,91919;-7,892421;74,04939
29;-36,58499;-8,871559;-24,69364;-41,10189;1,365495;1,757602;1,030093;2,069778;0;0;;;2;191;96,9697;-34,04007;295,8381;95,95959;-7,892421;45,0808
49;-32,17532;-7,029001;-24,38543;-41,17535;1,526903;1,665932;1,027916;2,002549;0;0;
75;-32,07355;-10,90477;-28,80494;-35,79301;1,601424;1,859391;1,215931;2,171723;0;0;
93;-33,73821;-8,198626;-24,47745;-43,43463;1,611729;1,777833;1,35121;1,899074;0;0;
109;-36,02348;-9,009637;-25,49063;-36,46556;1,575987;1,712655;1,396985;2,028245;0;0;
126;-36,44027;-5,76695;-28,79704;-44,35579;1,500564;1,798934;1,397269;2,556524;0;0;
145;-33,31008;-10,72748;-26,18266;-41,89138;1,451819;1,761218;1,6602;2,745038;0;0;
162;-33,31008;-10,72748;-26,18266;-41,89138;1,456655;1,69662;1,789933;3,104433;0;0;
179;-34,48945;-3,977884;-23,78469;-38,75944;1,374235;1,617005;1,774091;3,315948;0;0;
197;-37,77309;-8,237609;-23,6979;-35,23745;1,404673;1,867409;1,656131;3,317523;0;0;
216;-33,54949;-7,796239;-25,18063;-40,80747;1,386591;1,945249;1,48798;3,155235;0;0;
233;-32,62242;-5,549576;-22,53033;-45,29145;1,349335;1,877567;1,31074;2,665127;0;0;
254;-33,52312;-6,495441;-23,52037;-43,14469;1,28079;2,165756;1,136226;2,410317;0;0;
272;-34,00589;-7,04383;-26,3477;-41,30157;1,32205;2,348844;1,063448;2,135752;0;0;
294;-37,96566;-4,989171;-24,01605;-37,26027;1,348419;2,198868;1,054875;2,159589;0;0;
311;-37,3718;-5,349637;-24,22482;-40,25545;1,292237;2,104856;1,080487;2,210314;0;0;
330;-31,56758;-10,57188;-21,90298;-40,07585;1,435735;2,18511;1,153157;2,006824;0;0;
348;-34,86766;-6,427463;-26,04232;-42,33355;1,409315;2,069503;1,115566;1,924256;0;0;
366;-32,71512;-11,09048;-24,81358;-51,30976;1,408538;1,806137;1,011841;2,099465;0;0;
383;-32,71512;-11,09048;-24,81358;-51,30976;1,48615;1,83411;0,9627447;2,334321;0;0;
401;-31,62044;-9,607725;-23,15117;-37,94474;1,512094;1,657192;0,9952936;1,89149;0;0;
419;-33,77664;0,1856301;-24,87524;-39,81371;1,409268;1,777956;1,12087;1,961364;0;0;
437;-35,60236;-10,95493;-25,36534;-37,93491;1,383436;1,787228;1,11068;1,978086;0;0;
459;-33,64771;-7,402578;-27,9078;-42,79749;1,459091;1,867656;1,414872;2,048388;0;0;
477;-30,207;-8,08454;-24,9974;-35,8606;1,498765;1,865531;1,681801;1,837695;0;0;
497;-32,98802;-4,109003;-23,04859;-40,31762;1,406364;1,835491;1,791583;1,979554;0;0;
515;-34,25469;-7,563526;-26,49109;-41,48309;1,416065;1,90792;1,741384;2,043168;0;0;
532;-31,8301;-9,398803;-24,87345;-39,66043;1,337593;1,716703;1,546315;2,136472;0;0;
550;-37,58221;-4,892092;-26,29797;-41,01121;1,428158;1,782714;1,486321;1,865601;0;0;
568;-32,53809;-8,745995;-24,78068;-37,18034;1,478123;1,508419;1,246749;2,005535;0;0;
585;-31,23333;-8,747128;-25,13294;-44,55438;1,446474;1,472663;1,262745;2,422627;0;0;
602;-31,23333;-8,747128;-25,13294;-44,55438;1,393569;1,376449;1,404912;2,682895;0;0;
620;-34,60247;-9,019574;-25,17208;-37,59513;1,466902;1,477473;1,406287;2,97037;0;0;
636;-33,77319;-9,727285;-26,47726;-37,65201;1,515858;1,444531;1,434384;3,132504;0;0;
655;-33,9011;-11,52828;-26,47748;-40,88467;1,317276;1,525897;1,337249;3,239037;0;0;
672;-37,2384;-6,80902;-26,47369;-46,02135;1,307817;1,510709;1,328893;2,892549;0;0;
691;-33,33624;-6,427163;-24,0388;-39,17245;1,344436;1,59944;1,214327;2,504003;0;0;
709;-32,99911;-3,170055;-26,59749;-44,28896;1,365973;1,755736;1,080575;2,237491;0;0;
728;-34,81626;-11,88436;-24,92874;-34,88665;1,42179;1,910593;1,100982;2,428101;0;0;
746;-34,97205;-4,721908;-25,16033;-39,2773;1,469387;1,860557;1,126277;2,471521;0;0;
764;-37,21117;-10,70159;-26,39723;-40,71009;1,471855;1,871766;1,104846;2,499218;0;0;
784;-36,74941;-9,133405;-24,98234;-37,75338;1,450219;1,85903;1,222827;2,304803;0;0;
802;-36,74941;-9,133405;-24,98234;-37,75338;1,305393;1,895307;1,327338;2,133635;0;0;
822;-35,71059;-9,778907;-20,29926;-36,46283;1,288483;1,686993;1,449772;1,923347;0;0;
840;-33,62638;-5,680661;-22,99228;-40,25352;1,161726;1,685153;1,568363;1,606389;0;0;
858;-32,62729;-5,708885;-25,76932;-41,62478;1,143792;1,668668;1,526178;1,673778;0;0;
875;-36,10031;-7,509442;-25,28964;-40,56903;1,296097;1,836434;1,64723;1,692554;0;0;
893;-35,95757;-6,19967;-23,41147;-39,4463;1,272275;1,816326;1,69027;1,624269;0;0;
910;-32,42397;-7,425427;-22,16021;-46,85658;1,246781;1,767888;1,559954;1,986043;0;0;
927;-33,62767;-5,522297;-23,79025;-35,60322;1,333857;1,772941;1,355646;2,003782;0;0;
945;-32,92552;-9,61431;-23,65038;-39,35446;1,364615;1,622925;1,303603;2,537114;0;0;
965;-36,60629;-4,790818;-22,60043;-44,95334;1,24786;1,753494;1,394856;2,343704;0;0;
982;-36,60629;-4,790818;-22,60043;-44,95334;1,161359;1,860943;1,336777;2,483602;0;0;
1001;-32,16312;-5,700536;-22,45659;-42,98736;1,147808;1,925489;1,772611;2,595384;0;0;
1019;-36,57299;-6,416797;-24,37029;-41,59448;1,211503;1,878512;1,737535;2,476708;0;0;
1036;-33,41768;-5,323723;-23,59713;-40,56214;1,309517;1,844144;1,740783;2,120344;0;0;
1055;-33,03458;-7,500385;-24,9944;-36,97295;1,414295;1,922935;1,70767;1,937644;0;0;
1073;-36,95596;-8,465246;-27,36715;-35,95416;1,558915;1,808404;1,664451;2,239933;0;0;
1090;-33,54275;-3,10027;-24,50543;-40,80385;1,413342;2,089067;1,363677;2,132124;0;0;
1108;-33,7536;-8,503985;-26,02976;-37,91766;1,50153;2,195716;1,024054;1,676686;0;0;
1125;-34,88966;-5,159708;-24,50136;-42,08484;1,291715;2,299785;1,150181;1,551885;0;0;
1141;-34,88966;-5,159708;-24,50136;-42,08484;1,246835;2,16221;1,248472;1,628307;0;0;
1159;-32,54723;-4,462525;-24,75165;-38,78637;1,094652;2,34075;1,165195;1,595569;0;0;
1175;-35,06277;-7,655871;-23,26455;-41,86034;1,109289;2,210356;1,198761;1,50637;0;0;
1192;-35,25601;-8,883349;-22,17538;-36,43657;1,154173;1,956303;1,304492;1,693853;0;0;
1210;-31,28467;-6,65922;-25,01147;-42,0477;1,223612;2,026609;1,166952;1,87754;0;0;
1228;-35,73341;-9,755445;-25,70772;-33,65776;1,184011;1,944584;1,125006;1,993967;0;0;
1248;-32,06797;-4,363734;-24,81778;-42,96042;1,160716;1,914464;1,140523;2,081645;0;0;
1265;-34,69968;-7,531065;-25,86223;-42,42609;1,105438;1,651172;1,231514;2,084591;0;0;
1284;-34,69968;-7,531065;-25,86223;-42,42609;1,109536;1,556404;1,161168;2,193545;0;0;
1301;-37,70791;-6,821639;-24,51177;-37,65575;1,250306;1,64003;1,26841;2,089006;0;0;
1320;-36,30353;-8,631431;-25,15767;-38,12812;1,227125;1,626818;1,20586;2,149351;0;0;
1336;-35,62333;-10,10145;-25,68272;-38,88472;1,275559;1,817367;1,247193;1,748671;0;0;
1354;-32,75432;-4,365443;-28,67739;-43,49296;1,279552;1,847493;1,339892;1,729832;0;0;
1372;-37,7129;-11,28174;-22,80985;-41,28896;1,420266;1,957851;1,449997;1,631134;0;0;
1390;-34,84216;-12,40538;-25,16692;-34,77032;1,433938;2,080664;1,630618;1,985878;0;0;
1411;-34,26268;-6,068182;-26,14452;-39,6487;1,432688;2,05764;1,733833;1,988628;0;0;
1434;-36,49682;-3,868991;-24,63616;-42,92647;1,621669;2,013556;1,685562;2,084245;0;0;
1452;-36,10814;-10,7213;-25,08782;-44,22482;1,605671;1,986163;1,70357;2,299648;0;0;
1475;-35,91805;-9,597231;-25,72526;-40,60128;1,717632;1,694372;1,570289;2,522492;0;0;
1495;-36,96442;-8,418818;-25,66256;-39,59569;1,662425;1,759013;1,377983;2,28955;0;0;
1512;-33,71125;-6,602655;-24,50112;-39,77678;1,655373;1,747819;1,226413;2,306563;0;0;
1530;-37,1886;-10,38182;-24,11139;-43,30368;1,459489;1,673103;1,22157;2,385128;0;0;
1549;-33,61708;-4,353777;-25,4189;-39,30478;1,457225;1,652966;1,21084;2,337476;0;0;
1568;-35,41842;-9,103211;-22,31319;-40,62668;1,506562;1,652804;1,285885;1,999868;0;0;
1586;-33,56875;-4,23002;-25,87145;-38,42184;1,447067;1,590271;1,345006;2,142686;0;0;
1606;-31,78907;-13,0132;-21,76424;-40,64248;1,400467;1,725818;1,352689;1,789222;0;0;
1626;-37,2404;-6,688373;-26,92452;-41,78906;1,4261;1,768966;1,584239;1,906226;0;0;
1642;-37,2404;-6,688373;-26,92452;-41,78906;1,392599;1,774118;1,735438;1,866949;0;0;
1661;-30,58046;-8,711404;-21,9878;-39,64845;1,310939;1,897102;1,763878;2,102132;0;0;
1679;-33,52645;-4,539614;-25,37313;-41,30032;1,148585;1,920744;1,637963;1,941766;0;0;
1699;-35,59023;-7,354595;-25,10215;-40,25125;1,213347;1,708738;1,575011;1,817181;0;0;
1717;-34,27128;-8,868302;-26,23893;-43,82486;1,158108;1,529131;1,532769;1,751381;0;0;
1736;-33,21402;-7,429344;-24,06181;-35,96439;1,145652;1,493902;1,27749;1,762103;0;0;
1754;-32,90931;-5,225912;-24,3178;-39,89843;1,267668;1,641998;1,07822;1,709413;0;0;
1775;-38,78482;-11,20291;-23,70484;-42,73225;1,303224;1,754982;1,119462;1,862756;0;0;
1793;-33,28959;-6,858079;-23,99907;-39,13504;1,3006;1,721707;1,098623;1,927312;0;0;
1811;-36,78521;-9,963602;-25,67514;-42,03939;1,420571;1,905215;1,214599;2,161016;0;0;
1828;-36,10032;-8,8305;-22,19589;-37,78643;1,563441;2,036196;1,249287;2,089039;0;0;
1844;-34,14408;-6,629287;-25,85685;-38,65247;1,429958;1,851193;1,390779;1,750134;0;0;
1862;-34,14408;-6,629287;-25,85685;-38,65247;1,429246;1,573313;1,411503;1,806818;0;0;
1879;-30,24151;-8,867315;-19,48658;-39,29077;1,503673;1,488939;1,502764;1,657643;0;0;
1899;-37,0779;-9,751416;-24,50272;-35,58538;1,771687;1,375301;1,436057;1,888677;0;0;
1916;-32,76001;-1,744832;-23,90071;-45,41868;1,573719;1,575487;1,441855;1,998843;0;0;
1933;-34,73098;-8,401266;-23,52285;-40,76737;1,65036;1,679816;1,321247;2,063888;0;0;
1951;-33,15334;-10,1195;-25,57999;-38,67653;1,720213;1,667459;1,224116;2,10125;0;0;
1969;-35,24718;-4,395304;-22,02277;-41,96714;1,633569;1,775683;1,216038;2,181885;0;0;
1989;-35,24485;-10,36114;-26,8416;-37,6104;1,674294;1,906105;1,118143;2,246603;0;0;
2007;-36,31732;-6,200307;-24,86491;-37,93705;1,447757;2,128288;1,144654;2,027496;0;0;
2025;-33,54431;-6,434089;-24,69605;-38,27645;1,482841;1,877215;1,047279;1,89728;0;0;
2041;-33,54431;-6,434089;-24,69605;-38,27645;1,570014;1,909581;1,037516;2,109393;0;0;
2059;-32,89857;-8,350538;-25,11098;-39,63673;1,531005;1,887311;1,025982;2,068608;0;0;
2077;-34,72189;-5,684606;-23,3937;-38,27633;1,657928;2,043811;1,067308;2,021985;0;0;
2096;-31,57001;-6,872189;-26,45778;-38,92099;1,527779;1,681193;1,067964;2,17145;0;0;
2113;-34,44719;-6,669023;-24,51299;-41,92456;1,452306;1,63877;1,059864;2,060732;0;0;
2130;-32,54929;-5,843537;-22,16669;-37,92204;1,406068;1,821297;1,29331;2,049656;0;0;
2147;-32,16877;-7,953993;-25,84487;-42,94303;1,385087;1,998198;1,398188;2,097818;0;0;
2166;-33,00782;-5,375423;-24,23969;-42,15968;1,40749;1,93361;1,240682;1,982419;0;0;
2183;-33,00782;-5,375423;-24,23969;-42,15968;1,382023;1,874934;1,262638;1,954777;0;0;
2200;-32,74282;-11,81431;-23,51989;-39,57116;1,330015;2,060654;1,274579;2,079074;0;0;
2220;-36,90479;-6,795876;-26,72079;-39,50546;1,322485;1,737;1,342394;1,829587;0;0;
2238;-33,51628;-4,226402;-22,99444;-39,64726;1,29438;2,028859;1,284592;1,86065;0;0;
2255;-33,79662;-3,96669;-27,86591;-39,02026;1,562905;2,11431;1,360586;1,79615;0;0;
2273;-32,86914;-12,06313;-23,64952;-40,74657;1,490826;2,279664;1,394568;1,71336;0;0;
2291;-34,51757;-5,702114;-24,62262;-39,17545;1,456768;2,388074;1,423146;1,704364;0;0;
2308;-36,22242;-9,009905;-22,85724;-37,88984;1,450314;2,207232;1,411345;1,558955;0;0;
2326;-31,19384;-7,073245;-23,77156;-41,48025;1,492857;2,242083;1,20682;1,788254;0;0;
2344;-35,07647;-7,218971;-26,82372;-45,46631;1,423324;1,699039;1,286767;2,004591;0;0;
2362;-35,07647;-7,218971;-26,82372;-45,46631;1,255539;1,412311;1,272083;2,256077;0;0;
2380;-35,73872;-4,322525;-23,21439;-40,4833;1,277274;1,318321;1,24656;2,261133;0;0;
2397;-33,52377;-8,428264;-26,01085;-40,24305;1,552198;1,413382;1,295009;2,273616;0;0;
2414;-35,24235;-5,702244;-24,12874;-43,3436;1,488275;1,410695;1,240093;2,337047;0;0;
2432;-34,13298;-6,499206;-29,58669;-34,60134;1,430527;1,536818;1,386637;2,264125;0;0;
2449;-35,24263;-3,027791;-27,3345;-35,74004;1,586503;1,996071;1,451984;2,183259;0;0;
2469;-31,08715;-6,783737;-23,52251;-43,28672;1,701204;2,121368;1,483726;2,453997;0;0;
2487;-32,79243;-7,236758;-29,16174;-40,88027;1,566476;1,920517;1,407453;2,484059;0;0;
2508;-35,25735;-9,381734;-22,51189;-39,32098;1,329857;2,010949;1,4452;2,251984;0;0;
2523;-35,25735;-9,381734;-22,51189;-39,32098;1,296854;2,10596;1,465035;2,16552;0;0;
2542;-35,42026;-4,048177;-24,76163;-41,61138;1,363284;2,103661;1,257429;1,794452;0;0;
2559;-33,89592;-7,079554;-25,48993;-33,38962;1,219218;1,696129;1,079048;1,559901;0;0;
2579;-33,96508;-4,236278;-27,35095;-40,88297;1,184738;1,74125;1,081835;1,322734;0;0;
2598;-31,569;-4,354591;-21,68213;-37,35354;1,154889;1,858071;1,288905;1,351886;0;0;
2617;-33,99414;-8,035114;-24,82446;-39,97002;1,215151;1,79768;1,335229;1,415454;0;0;
2633;-32,91016;-5,684215;-24,67737;-40,25384;1,327952;1,674417;1,305666;1,353605;0;0;
2650;-30,78866;-8,83921;-26,24379;-41,85475;1,315147;1,671143;1,360228;1,580984;0;0;
2668;-34,76915;-5,723703;-26,83527;-41,35504;1,273666;1,755184;1,323835;1,604756;0;0;
2686;-33,8987;-11,64071;-23,51584;-35,4952;1,250069;1,577866;1,263562;1,922002;0;0;
2704;-33,8987;-11,64071;-23,51584;-35,4952;1,300286;1,491261;1,222267;2,010409;0;0;
2724;-32,21962;-8,550178;-23,37856;-40,03421;1,416819;1,528086;1,237539;2,067724;0;0;
2741;-35,67376;-7,15379;-26,46119;-37,9024;1,503243;1,314747;1,318716;2,039228;0;0;
2760;-32,54294;-4,915768;-26,10097;-41,78653;1,51766;1,392353;1,40007;1,98015;0;0;
2778;-36,24382;-4,793067;-24,12535;-50,69203;1,51474;1,340756;1,306738;2,13592;0;0;
2796;-34,66925;-9,073654;-22,85436;-36,45591;1,608083;1,330995;1,291167;2,212105;0;0;
2815;-34,89364;-5,492623;-22,42148;-38,88939;1,578356;1,384155;1,440603;2,104453;0;0;
2832;-35,24883;-7,850011;-25,36902;-36,83645;1,433218;1,400259;1,449716;2,147689;0;0;
2849;-33,71289;-9,752186;-24,51354;-42,95443;1,233045;1,41466;1,397672;2,13532;0;0;
2866;-38,55725;-10,11329;-26,21953;-40,97795;1,275615;1,442922;1,283274;2,075719;0;0;
2890;-32,56364;-11,06837;-24,57775;-38,41851;1,284154;1,410924;1,238764;1,765466;0;0;
2909;-33,00381;-2,892334;-24,51243;-41,01715;1,192087;1,575714;1,123167;2,05846;0;0;
2926;-34,51598;-4,833998;-19,36211;-40,26688;1,21589;1,790985;1,041703;2,122324;0;0;
2943;-34,51598;-4,833998;-19,36211;-40,26688;1,1929;2,08607;1,082153;2,009901;0;0;
2960;-32,54915;-5,648174;-23,67749;-44,55499;1,21626;2,48178;1,21996;2,189683;0;0;
2978;-35,96825;-9,059698;-26,81135;-41,11689;1,394346;2,573756;1,317962;1,837838;0;0;
2993;-34,73943;-7,14893;-26,12222;-34,36548;1,707627;2,429426;1,35179;1,703722;0;0;
3013;-35,42548;-9,710823;-24,15346;-38,85379;1,873117;2,162794;1,352638;1,931955;0;0;
3030;-30,68336;-10,04537;-24,49847;-41,50727;2,001154;2,118513;1,272798;2,124001;0;0;
3047;-34,25206;-7,047491;-24,58442;-39,74071;2,00405;1,933297;1,346785;1,946388;0;0;
3065;-33,0421;-10,35439;-26,11625;-38,54166;1,6874;1,815333;1,299298;1,785985;0;0;
3083;-33,0421;-10,35439;-26,11625;-38,54166;1,403922;1,991127;1,253262;1,801835;0;0;
3101;-34,95951;-6,166355;-23,29993;-36,10137;1,282328;1,893308;1,313771;1,719032;0;0;
3118;-36,43202;-3,90615;-25,35037;-42,42301;1,193082;1,919551;1,273162;1,686927;0;0;
3134;-36,94603;-10,11248;-25,36834;-40,00211;1,261823;1,739108;1,336619;1,878323;0;0;
3152;-32,02346;-8,38304;-25,90054;-43,9416;1,368556;1,795544;1,452652;1,878255;0;0;
3170;-31,65244;-6,84832;-26,91439;-37,75789;1,497787;1,625829;1,670923;2,094136;0;0;
3186;-36,49071;-8,388535;-27,21654;-40,56434;1,523762;1,598161;1,58988;2,028848;0;0;
3203;-36,49071;-8,388535;-27,21654;-40,56434;1,490121;1,595613;1,523548;2,198455;0;0;
3222;-36,42755;-10,18928;-22,66765;-40,09954;1,520745;1,538761;1,439913;2,139727;0;0;
3240;-31,89106;-8,755548;-25,33176;-38,79331;1,55932;1,464827;1,465196;2,339648;0;0;
3258;-35,60554;-9,086055;-24,50624;-40,34506;1,595845;1,336967;1,275704;2,065565;0;0;
3277;-34,14645;-2,635721;-22,78921;-44,05519;1,555709;1,466194;1,120615;2,216092;0;0;
3295;-34,89009;-8,181422;-27,18777;-38,41391;1,707584;1,542807;1,208121;2,28237;0;0;
3315;-32,07745;-6,729156;-22,40732;-39,51215;1,698889;1,739516;1,205931;1,937621;0;0;
3333;-35,35755;-6,127623;-24,495;-40,05191;1,584247;1,878304;1,16888;2,234293;0;0;
3351;-33,70961;-9,717423;-25,1482;-40,80389;1,346675;1,832924;1,337411;2,38012;0;0;
3367;-32,79117;-6,836726;-23,0361;-37,57772;2,783522;2,592981;1,356384;2,430589;0;0;
3387;-34,65684;-14,14457;-24,00731;-37,91997;2,937225;2,691956;1,375121;2,027723;0;0;
3405;-37,93482;-9,476258;-20,49842;-41,54631;3,052274;2,74975;1,375962;2,273461;0;0;
3422;-37,93482;-9,476258;-20,49842;-41,54631;3,171625;2,747519;1,464803;2,528182;0;0;
3439;-34,76805;-8,493198;-25,57546;-44,28785;3,121664;2,787058;1,711208;2,220759;0;0;
3456;-34,76883;-6,266921;-24,5182;-38,41941;2,732169;2,677394;1,600145;2,046591;0;0;
3474;-33,90729;-8,385226;-24,22496;-42,56819;1,466408;2,083848;1,515272;2,225751;0;0;
3494;-32,9038;-7,535336;-26,18516;-38,2907;1,358062;1,798638;1,539957;2,366433;0;0;
3511;-36,91009;-7,038148;-22,76766;-38,77627;1,283491;1,711317;1,517611;2,159645;0;0;
3529;-32,20847;-7,494764;-25,0527;-40,82916;1,252276;1,499388;1,316563;1,820443;0;0;
3548;-34,05651;-9,259257;-28,00966;-39,62583;1,47829;1,532027;1,23615;1,782728;0;0;
3567;-30,46418;-8,423931;-23,52847;-38,16121;1,51819;1,421656;1,290244;1,631356;0;0;
3585;-40,40041;-4,980239;-24,83579;-40,9888;1,723534;1,398043;1,28458;1,536402;0;0;
3603;-40,40041;-4,980239;-24,83579;-40,9888;1,882537;1,264009;1,219141;1,273537;0;0;
3622;-33,52169;-6,054941;-23,9701;-40,23773;1,690488;1,303804;1,305103;1,347069;0;0;
3642;-35,60752;-7,41556;-23,51837;-48,82897;1,613331;1,333774;1,292012;1,572825;0;0;
3660;-32,5452;-3,606389;-24,68913;-34,05315;1,573122;1,353209;1,121298;1,758927;0;0;
3679;-30,7107;-8,563647;-23,66339;-37,75262;1,590079;1,692304;1,135619;2,162079;0;0;
3696;-35,62302;-4,219882;-23,31001;-39,25389;1,417589;1,882438;1,222077;2,542945;0;0;
3714;-34,82751;-9,232435;-24,86889;-38,86832;1,334578;1,848658;1,193495;2,56762;0;0;
3731;-33,52998;-8,392512;-23,54205;-42,50825;1,321929;1,811986;1,238996;2,75624;0;0;
3748;-36,4784;-6,05886;-24,49429;-43,08684;1,422705;1,991506;1,243315;2,412197;0;0;
3766;-33,75676;-3,029729;-25,124;-45,05857;1,338553;1,80261;1,425299;2,40507;0;0;
3786;-33,36094;-5,549901;-20,81653;-35,08587;1,644776;1,777947;1,404872;2,569181;0;0;
3807;-33,89803;-5,866776;-24,37096;-48,33635;1,619974;1,712664;1,450792;2,588495;0;0;
3822;-33,89803;-5,866776;-24,37096;-48,33635;1,700991;1,656537;1,566442;2,718875;0;0;
3840;-36,71172;-5,6752;-25,71966;-41,4745;1,6105;1,770254;1,491486;4,057405;0;0;
3857;-31,23582;-9,072732;-27,00974;-37,92889;1,664585;1,617426;1,328236;3,916747;0;0;
3876;-34,02163;-7,035986;-22,71665;-40,62737;1,480569;1,401387;1,303584;3,646192;0;0;
3896;-36,23161;-6,415193;-24,49176;-36,44732;1,566763;1,341487;1,269968;3,381886;0;0;
3913;-35,61557;-6,58436;-25,24357;-41,10103;1,697759;1,396697;1,210367;3,389654;0;0;
3931;-31,89946;-9,118807;-25,48589;-40,28257;1,801607;1,425458;1,273199;2,11362;0;0;
3948;-25,63305;-5,182809;-25,49574;-39,5134;2,248701;1,735494;1,213068;1,786794;0;0;
3968;-37,28681;-10,66273;-21,81063;-29,81982;2,645393;1,948749;1,210997;1,90439;0;0;
3986;-39,22771;-10,03751;-23,15366;-38,02334;3,506342;2,40422;1,172989;2,309503;0;0;
4005;-40,00028;-10,78848;-27,00606;-41,94552;4,294978;2,961533;1,18652;2,578037;0;0;
4024;-39,44528;-7,001419;-22,5473;-40,24867;5,368216;3,66082;1,286972;2,319786;0;0;
4042;-39,44528;-7,001419;-22,5473;-40,24867;6,381724;4,211434;1,463559;2,360783;0;0;
4059;-50,92205;7,328465;-24,5652;-40,88644;6,812057;4,343958;1,507222;2,607939;0;0;
4077;-37,95366;-9,179294;-27,41488;-35,46648;6,542115;4,393491;1,555253;2,285059;0;0;
4098;-31,10622;-8,958797;-23,20891;-36,93883;5,60861;4,130902;1,884881;1,996322;0;0;
4114;-33,99809;-9,464208;-24,02126;-42,93044;5,348519;4,677628;1,76268;1,901409;0;0;
4132;-35,75734;-9,004941;-26,08219;-49,62667;4,28498;4,141682;1,82724;2,545537;0;0;
4150;-36,83862;-8,869891;-27,02582;-32,07761;3,459044;3,718243;1,698263;2,67115;0;0;
4167;-35,72212;-7,216429;-23,77777;-41,5994;3,304225;3,343935;1,776275;2,99955;0;0;
4183;-35,72212;-7,216429;-23,77777;-41,5994;3,760693;3,336669;1,501253;3,229454;0;0;
4200;-35,35401;-5,395716;-24,95659;-46,99525;3,289913;2,58738;1,471374;3,430463;0;0;
4220;-35,5015;-12,44102;-26,64063;-39,31634;3,354419;2,275871;1,448078;3,436032;0;0;
4236;-31,73914;-4,177722;-24,15077;-42,34114;3,380446;1,94654;1,467538;2,886559;0;0;
4253;-34,80159;-11,33014;-25,71986;-48,00125;2,443066;1,806411;1,402843;2,832052;0;0;
4270;-32,92651;-10,28825;-27,64868;-36,37371;1,846803;1,752224;1,395648;2,442606;0;0;
4288;-31,38698;-8,651564;-27,54913;-47,03048;1,864602;1,8978;1,538535;2,73908;0;0;
4304;-33,20916;-9,334307;-20,0261;-43,55605;1,61609;1,79664;1,572416;2,864245;0;0;
4326;-33,54147;-6,729253;-22,97687;-36,81957;1,701344;1,812596;1,412736;2,998942;0;0;
4342;-33,54147;-6,729253;-22,97687;-36,81957;1,749467;1,807856;1,411245;3,1374;0;0;
4361;-35,01182;-6,691063;-25,13269;-35,725;1,51658;1,836798;1,42793;3,100691;0;0;
4378;-36,70012;-9,566249;-25,21389;-39,23268;1,529786;1,718913;1,446064;3,097496;0;0;
4396;-34,19894;-5,178156;-24,86684;-41,61208;1,602251;1,879093;1,403423;2,89081;0;0;
4414;-33,08453;-8,601008;-24,49734;-39,08456;1,598686;1,995617;1,356742;2,449056;0;0;
4431;-33,54559;-8,989917;-25,44537;-37,82952;1,463887;1,815184;1,308044;2,188313;0;0;
4448;-32,90326;-9,787862;-27,20268;-36,48106;1,534017;1,586772;1,369902;2,783751;0;0;
4464;-32,99396;-7,40168;-25,37201;-39,03947;1,496798;1,701781;1,363793;2,831701;0;0;
4484;-33,77655;-7,548065;-25,60846;-40,64603;1,51595;1,63425;1,156802;2,800848;0;0;
4502;-33,77655;-7,548065;-25,60846;-40,64603;1,508747;1,44002;1,1982;2,75295;0;0;
4519;-36,13961;-4,992332;-24,68253;-40,27615;1,529203;1,496871;1,093124;2,884357;0;0;
4536;-35,08436;-7,157193;-25,85159;-39,3077;1,654852;1,687724;1,267162;2,631816;0;0;
4554;-37,10706;-6,936677;-23,60621;-35,19291;1,570707;1,656266;1,165975;2,633916;0;0;
4570;-34,27217;-7,417916;-25,50665;-37,93303;1,550649;1,676903;1,206144;2,328621;0;0;
4589;-33,02762;-7,362841;-25,29736;-41,04965;1,431562;1,614696;1,235061;2,526503;0;0;
4607;-35,60633;-6,075885;-28,77728;-39,53295;1,502924;1,707988;1,288988;2,409293;0;0;
4623;-35,60633;-6,075885;-28,77728;-39,53295;1,652441;1,753981;1,314625;2,17488;0;0;
4640;-33,0934;-9,233331;-25,09721;-44,1842;1,566888;1,645668;1,260904;2,309498;0;0;
4656;-31,57713;-6,657476;-24,09761;-40,06629;1,767099;1,687335;1,376348;2,261141;0;0;
4675;-33,28212;-11,07441;-26,10851;-44,05732;1,716807;1,712372;1,380898;2,333528;0;0;
4694;-31,98058;-12,31843;-24,23245;-41,96923;1,720565;1,927281;1,357132;2,209145;0;0;
4710;-36,22876;-8,499099;-23,70608;-43,72269;1,547572;1,785929;1,386938;2,358519;0;0;
4728;-34,08892;-9,099674;-25,8129;-40,21786;1,582622;1,893991;1,43792;2,458375;0;0;
4746;-36,92956;-5,448874;-24,51286;-41,38938;1,439275;1,950326;1,379894;2,233295;0;0;
4762;-36,92956;-5,448874;-24,51286;-41,38938;1,376074;1,951199;1,433803;2,280891;0;0;
4779;-30,89093;-5,066414;-24,51228;-38,44572;1,54906;2,042349;1,353922;2,285317;0;0;
4798;-33,73187;-7,249319;-24,49065;-41,62453;1,425497;1,931076;1,351439;2,405489;0;0;
4815;-33,89043;-5,555746;-22,46218;-39,88758;1,377395;1,803953;1,283402;2,226117;0;0;
4832;-43,29242;-12,77053;-27,19592;-42,10289;1,505747;2,018367;1,32944;2,172352;0;0;
4852;-32,43387;-10,09076;-25,01094;-36,38321;1,972762;2,084843;1,417696;2,158599;0;0;
4871;-31,54679;-9,023836;-26,82427;-40,07642;1,902755;1,889486;1,485326;1,762274;0;0;
4893;-35,24664;-7,548749;-23,32105;-37,34671;2,005626;1,856032;1,499982;1,737133;0;0;
4911;-34,89345;-6,414112;-23,05197;-43,76538;1,97192;2,069127;1,459939;1,821951;0;0;
4929;-36,59613;-10,10051;-22,20351;-38,82069;2,170114;1,980535;1,442657;2,331629;0;0;
4950;-30,5724;-4,702869;-24,6298;-42,76219;1,625674;1,827533;1,383313;2,433847;0;0;
4968;-33,04544;-9,046988;-24,71305;-38,87539;1,616402;1,921732;1,420229;2,587111;0;0;
4985;-34,2569;-9,576874;-23,83558;-42,21416;1,547549;2,059614;1,361889;2,806693;0;0;
5003;-34,2569;-9,576874;-23,83558;-42,21416;1,611694;2,194066;1,440471;2,707844;0;0;
5020;-33,94177;-6,497313;-28,66237;-39,3008;1,599543;2,06372;1,496721;2,265381;0;0;
5040;-31,94522;-8,135399;-25,49771;-40,46991;1,513665;2,189804;1,457795;2,408209;0;0;
5058;-32,867;-6,528019;-22,83464;-47,25196;1,255059;2,138801;1,353386;2,56903;0;0;
5076;-38,12579;-8,890235;-26,67879;-44,22048;1,361684;2,104569;1,364403;2,711965;0;0;
5095;-34,23531;-9,128638;-25,17068;-38,90349;1,426268;2,116599;1,240723;2,787303;0;0;
5112;-31,57452;-4,619134;-23,82254;-35,81742;1,314833;2,067823;1,139703;3,005768;0;0;
5130;-33,34128;-8,051571;-23,34132;-43,77734;1,460182;1,903955;1,098204;3,221477;0;0;
5148;-34,38048;-7,277307;-25,67674;-38,36799;1,498442;1,565902;1,124664;3,252822;0;0;
5166;-33,66573;-3,529284;-25,50765;-45,18836;1,497024;1,505913;1,129547;3,37394;0;0;
5182;-33,66573;-3,529284;-25,50765;-45,18836;1,389944;1,415429;1,195039;3,31498;0;0;
5201;-36,76285;-4,976524;-24,17057;-47,04003;1,37722;1,566902;1,263566;3,716691;0;0;
5219;-36,06133;-9,748234;-25,17893;-42,33828;1,286179;1,821533;1,153466;3,576598;0;0;
5237;-31,32428;-4,920063;-22,09754;-39,90557;1,389814;1,940227;1,087472;3,654731;0;0;
5255;-38,3912;-5,956204;-24,60598;-48,88236;1,409983;2,165324;1,119191;4,119827;0;0;
5273;-35,20201;-7,994934;-29,06276;-40,7298;1,59403;2,219219;1,238855;4,083529;0;0;
5294;-35,12128;-4,221013;-17,93308;-39,16375;1,688737;2,467581;1,957546;4,171743;0;0;
5312;-31,77298;-10,0934;-23,19416;-37,17983;1,768313;2,222656;2,351667;3,711504;0;0;
5330;-35,94485;-7,673014;-24,15058;-42,77969;1,872323;2,125608;2,518913;3,442905;0;0;
5347;-32,86525;-10,23375;-26,44936;-38,05485;2,019809;2,023945;2,480852;2,926069;0;0;
5364;-36,95244;-6,546939;-26,81658;-40,632;1,969407;1,865059;2,458922;2,306808;0;1;
5381;-36,95244;-6,546939;-26,81658;-40,632;1,988599;1,719492;2,347034;2,151994;0;1;
5399;-105,5662;-25,00193;-22,43199;-33,54385;6,180197;2,902897;1,59099;2,330029;0;1;
5417;-67,44422;-48,73196;-24,3879;-37,97189;17,61113;8,573467;1,41247;2,994578;0;1;
5435;-1074,593;173,0536;-22,29067;5,009617;60,78785;21,17049;1,542565;4,5249;0;1;
5451;-38,43544;-23,35665;-16,84533;141,7388;119,7475;29,72187;1,842939;11,14689;0;1;
5471;-188,2635;-42,77488;-28,90317;-69,89771;130,1069;34,53967;2,591177;37,31124;0;1;
5488;-32,10218;-15,79069;-25,54125;-443,5207;139,3955;43,21638;3,157845;54,70269;0;1;
5508;-34,33813;2,85322;-7,153567;-133,0323;139,7805;41,51003;5,805984;74,18426;0;0;
5526;-56,69615;7,137972;-49,05138;-165,9221;120,5028;36,26965;7,878091;102,0655;0;0;
5548;-44,90493;-6,323786;-51,05153;272,1028;56,59295;23,00116;10,92337;134,0295;0;0;
5565;-38,19339;-8,82204;-38,94707;-101,3031;35,72416;17,95559;12,34447;155,8991;0;0;
5583;-38,19339;-8,82204;-38,94707;-101,3031;20,03618;11,07965;13,32698;185,6447;0;0;
5601;-27,21417;-14,65114;-33,02928;62,47016;11,30322;5,953365;12,96359;194,237;0;0;
5620;-40,87479;-42,87046;-2,728629;-48,89843;9,227697;5,678404;12,88527;212,8093;0;0;
5637;-39,86013;-11,91645;-25,47699;-267,361;4,819209;4,599844;11,33;202,443;0;0;
5656;16,1268;-10,11974;-20,28941;-63,27822;5,847016;4,536084;9,033856;162,5772;0;0;
5675;-51,0686;-3,731015;-21,82969;-35,34283;9,020638;4,525545;7,378378;120,4076;0;0;
5693;-58,67506;-5,893687;-24,9938;-55,25787;13,22439;4,371668;5,490566;74,19014;0;0;
5710;-43,3114;-13,82835;-20,87826;-34,42803;13,3734;3,687509;4,087997;52,65191;0;0;
5731;2,734832;-6,899254;-27,21314;-38,54272;17,73326;2,935241;2,576329;28,57164;0;0;
5754;-48,13476;-8,83132;-26,12554;-102,7691;20,56433;2,693083;1,644837;11,849;0;0;
5773;-32,37814;-6,074439;-19,70187;-54,26715;16,76282;2,806405;1,641758;14,14333;0;0;
5791;-31,99405;-3,556731;-23,27305;-50,54239;13,87215;2,384479;1,629103;13,45598;0;0;
5812;-31,11776;-7,58021;-27,82128;-45,03962;11,28881;2,148917;1,747079;11,75882;0;0;
5832;-33,54964;-9,116417;-22,65161;-42,87689;10,79503;1,894961;1,805398;10,87989;0;0;
5850;-30,11638;-8,896281;-23,59385;-42,65871;4,432334;1,625145;1,837737;10,60033;0;0;
5867;-30,33135;-2,69808;-23,53593;-49,18856;2,537054;1,781019;1,686106;6,500543;0;0;
5884;-51,1644;-8,88576;-24,86935;-41,86892;5,080839;1,641706;1,572901;4,877768;0;0;
5902;-51,1644;-8,88576;-24,86935;-41,86892;7,73696;1,499182;1,34166;4,319094;0;0;
5919;12,59807;-7,654829;-20,90677;-54,20198;11,56917;1,431059;1,2661;5,143425;0;0;
5939;-49,64725;-9,803912;-23,17673;-42,09764;15,43849;1,624929;1,294626;6,209254;0;0;
5959;-34,24508;-7,145272;-22,54756;-42,26064;16,36551;1,612617;1,263239;6,240991;0;0;
5976;-32,52961;-6,923244;-26,82961;-59,40199;15,19263;1,696537;1,319797;6,661525;0;0;
5994;-32,17704;-7,015047;-23,26139;-35,40124;12,61469;2,120119;1,469401;7,169575;0;0;
6012;-31,55367;-5,390385;-21,32631;-35,67101;10,74166;2,202446;1,500549;6,306378;0;0;
6032;-36,32837;-6,069649;-25,73593;-40,64085;4,82074;2,354863;1,426608;4,933752;0;0;
6049;-36,5952;-7,01564;-25,20431;-35,17816;2,159616;2,215268;1,425518;5,065374;0;0;
6066;-28,84615;-7,949621;-24,38476;-37,19345;1,927038;2,184838;1,398879;4,488188;0;0;
6084;-37,52308;-9,916351;-29,42288;-55,5441;2,02849;2,165356;1,27551;3,318365;0;0;
6102;-37,52308;-9,916351;-29,42288;-55,5441;1,881231;2,028818;1,234931;2,952324;0;0;
6120;-33,80664;-4,010837;-25,11471;-35,98439;1,859527;2,236341;1,280337;3,219498;0;0;
6140;-30,9606;-10,35991;-25,04247;-38,6819;2,041308;2,255506;1,478804;3,571219;0;0;
6158;-35,01578;-3,012901;-27,64101;-44,6884;2,172877;2,429469;1,586325;3,399821;0;0;
6176;-34,63292;-10,2685;-22,85535;-42,50009;1,958737;2,422133;1,676023;4,820478;0;0;
6195;-33,04398;-3,69888;-25,59805;-36,57727;1,763422;2,527965;1,620047;5,151815;0;0;
6214;-35,60851;-6,666505;-22,30035;-43,10884;1,52197;2,276362;1,550282;5,980623;0;0;
6232;-36,17211;-11,61038;-23,1152;-29,18649;1,614121;2,125582;1,614932;6,380456;0;0;
6248;-35,01414;-1,90575;-25,84787;-42,0363;1,456903;2,360575;1,558905;6,66103;0;0;
6267;-34,34164;-6,32499;-23,43123;-39,88257;1,310595;2,232184;1,335831;6,215344;0;0;
6285;-33,63991;-7,755327;-22,37673;-37,82638;1,335187;1,946465;1,356238;6,013304;0;0;
6302;-33,63991;-7,755327;-22,37673;-37,82638;1,436945;1,738243;1,456873;5,997227;0;0;
6320;-36,2584;-6,92531;-26,45379;-44,6591;1,483756;1,670552;1,433253;5,263364;0;0;
6337;-34,08666;-8,742025;-21,47233;-37,17857;1,466056;1,541225;1,51797;4,33856;0;0;
6358;-33,01225;-5,847165;-24,46247;-39,4331;1,349531;1,559162;1,412479;4,219287;0;0;
6377;-32,93563;-7,391856;-24,50669;-39,35528;1,320733;1,628799;1,366883;4,37568;0;0;
6393;-34,79861;-3,417461;-27,36994;-47,97385;1,35629;1,65771;1,400551;4,262896;0;0;
6412;-33,78235;-9,492391;-27,52481;-43,93139;1,404052;1,813392;1,274851;3,491559;0;0;
6431;-32,29522;-4,813566;-23,76677;-39,24221;1,390576;1,960674;1,252764;3,421569;0;0;
6449;-32,95202;-9,391352;-22,72962;-44,37605;1,294913;2,138035;1,271127;3,966363;0;0;
6465;-34,44189;-4,718064;-22,43043;-39,27051;1,326922;1,902858;1,318796;3,883068;0;0;
6482;-34,44189;-4,718064;-22,43043;-39,27051;1,306266;2,016871;1,321496;3,03597;0;0;
6502;-35,22269;-8,889938;-25,8538;-36,78675;1,32259;1,983062;1,324577;3,267737;0;0;
6521;-35,65561;-7,425235;-24,50436;-41,77434;1,272882;2,023718;1,311592;3,415184;0;0;
6540;-35,97562;-12,4307;-24,44669;-39,40797;1,281642;1,779345;1,427212;2,83279;0;0;
6557;-32,93254;-6,059259;-22,80136;-39,67148;1,345751;1,713596;1,278816;3,256217;0;0;
6574;-35,23892;-9,375683;-25,11677;-40,0611;1,364348;1,681251;1,247054;3,432731;0;0;
6592;-36,0829;-9,009872;-26,16397;-41,28077;1,496881;1,559495;1,232636;4,064999;0;0;
6611;-34,86743;-6,322325;-21,799;-36,95671;1,389668;1,504605;1,438462;3,67251;0;0;
6629;-31,82865;-9,820601;-25,72736;-37,74429;1,386464;1,569181;1,558314;3,420353;0;0;
6646;-35,32288;-6,414378;-24,14289;-44,57224;1,50722;1,55204;1,376208;3,809977;0;0;
6663;-35,32288;-6,414378;-24,14289;-44,57224;1,457619;1,48085;1,27728;3,686293;0;0;
6683;-35,18577;-7,041093;-23,52731;-37,67973;1,505801;1,530912;1,573297;4,040481;0;0;
6700;-38,04897;-8,023388;-27,01044;-45,35941;1,413925;1,547053;1,602787;4,798406;0;0;
6719;-34,25475;-7,882473;-24,95655;-35,33498;1,461475;1,427888;1,441917;4,979211;0;0;
6736;-33,53601;-6,56086;-26,04477;-39,87637;1,430459;1,455464;1,382552;4,829587;0;0;
6755;-35,61;-7,395831;-25,30904;-37,03845;1,338397;1,578969;1,536917;4,378949;0;0;
6772;-35,32115;-7,655393;-24,35772;-46,31808;1,31041;1,465269;1,574983;3,990227;0;0;
6790;-33,21491;-5,609992;-27,91338;-57,81313;1,430524;1,382545;1,457708;3,987145;0;0;
6808;-36,45855;-9,37237;-25,00053;-41,12685;1,511432;1,374291;1,345262;3,919253;0;0;
6826;-33,91897;-8,608071;-20,82222;-39,95204;1,589988;1,309623;1,399009;3,772173;0;0;
6846;-36,6103;-5,768696;-19,2967;-38,0764;1,609767;1,348797;1,396467;3,596509;0;0;
6864;-34,22152;-3,857996;-28,85409;-40,24482;1,74363;1,437166;1,717573;3,588571;0;0;
6882;-34,22152;-3,857996;-28,85409;-40,24482;1,807818;1,585585;1,879494;3,212522;0;0;
6900;-31,74895;-6,408859;-23,85463;-38,29432;1,773963;1,566576;1,879382;2,038479;0;0;
6921;-38,75103;-13,04997;-24,13972;-36,3264;1,608792;1,67327;1,812149;1,877594;0;0;
6940;-33,10209;-4,383756;-23,02067;-39,15971;1,703023;1,746758;1,977445;2,48048;0;0;
6956;-33,98006;-11,18088;-26,63843;-41,0492;1,555363;2,047161;1,946035;2,481961;0;0;
6975;-33,7361;-7,840971;-21,81593;-42,33381;1,500513;2,356345;1,748336;2,710309;0;0;
6993;-36,4092;-4,989384;-25,57412;-40,37276;1,386904;2,398676;1,492374;2,358709;0;0;
7012;-34,07738;-12,28946;-24,51246;-42,34672;1,322563;2,492265;1,383992;2,297573;0;0;
7030;-32,87949;-10,45793;-27,07034;-39,48747;1,302723;2,316249;1,426659;1,997065;0;0;
7050;-34,97996;-9,485922;-22,2043;-40,87956;1,313162;2,164863;1,424129;2,838665;0;0;
7070;-36,3802;-13,28188;-23,78765;-48,20938;1,553607;2,01407;1,417153;3,243007;0;0;
7088;-36,82709;-6,950881;-25,49581;-38,48233;1,476275;1,842123;1,537777;3,41042;0;0;
7109;-34,45569;-4,531391;-25,34337;-35,28651;1,55679;1,842427;1,582253;3,490978;0;0;
7125;-32,37943;-11,14718;-26,84484;-35,40712;1,714572;2,014434;1,586823;3,283322;0;0;
7142;-32,37943;-11,14718;-26,84484;-35,40712;1,734986;2,055113;1,486968;3,141067;0;0;
7160;-32,91657;-12,50214;-26,1001;-41,24706;1,691616;2,127502;1,331558;2,306437;0;0;
7182;-31,08448;-1,54395;-23,00346;-43,74662;1,700031;2,128649;1,339004;2,680668;0;0;
7203;-32,69231;-6,663882;-23,95217;-44,95056;1,6897;2,180948;1,299076;2,66947;0;0;
7224;-31,75325;-4,371968;-25,00286;-41,1212;1,552613;2,318044;1,30584;2,707527;0;0;
7242;-32,70525;-9,602667;-27,26104;-35,36646;1,568052;2,203225;1,275738;2,745403;0;0;
7260;-35,04396;-9,383718;-23,87342;-37,18634;1,727309;2,112335;1,332251;3,165352;0;0;
7278;-35,08144;-10,01623;-24,6837;-48,69328;1,826831;2,01348;1,304641;2,964075;0;0;
7296;-36,23311;-7,836583;-24,38806;-47,7305;1,708583;1,880931;1,307097;3,889074;0;0;
7314;-32,53588;-5,198478;-25,92081;-39,53222;1,744201;1,929606;1,217881;4,354794;0;0;
7331;-34,82206;-7,750696;-26,14705;-42,91811;1,712758;1,876917;1,171612;4,471215;0;0;
7348;-33,49245;-10,5615;-24,69009;-37,49834;1,654834;1,81619;1,192377;4,574337;0;0;
7367;-36,41505;-6,204939;-26,23215;-52,34537;1,441369;2,103399;1,312129;3,795263;0;0;
7384;-33,05;-7,521778;-25,27114;-47,80864;1,531094;1,888913;1,344727;4,306826;0;0;
7401;-33,05;-7,521778;-25,27114;-47,80864;1,543134;1,958806;1,339501;4,306418;0;0;
7422;-33,27873;-10,05513;-22,26355;-40,55436;1,523753;1,983399;1,488345;3,958268;0;0;
7439;-33,49183;-4,409624;-23,50704;-41,48494;1,392026;2,078998;1,568283;3,69497;0;0;
7455;-35,0181;-9,603342;-26,83327;-42,17733;1,443172;2,03937;1,434002;3,781789;0;0;
7473;-28,50239;-5,267403;-23,87056;-42,81396;1,497813;1,888251;1,338947;2,86697;0;0;
7493;-30,73216;-6,384421;-25,22599;-41,21833;1,557108;1,812021;1,357753;2,285319;0;0;
7511;-35,98295;-6,203961;-24,62077;-43,06237;1,71269;2,063003;1,235426;2,412153;0;0;
7528;-38,1975;-3,513081;-23,88877;-42,23678;1,786828;2,290442;1,254793;2,429904;0;0;
7546;-34,03946;-10,21364;-24,61179;-37,47934;1,872015;2,115655;1,273344;2,7952;0;0;
7562;-34,03946;-10,21364;-24,61179;-37,47934;1,840821;2,06261;1,29932;3,057112;0;0;
7582;-32,39065;-6,68764;-24,32162;-37,55071;1,693496;1,919489;1,294846;3,037995;0;0;
7600;-31,44095;-7,843791;-26,83197;-39,74055;1,524525;1,750317;1,239342;3,071532;0;0;
7619;-34,89494;-8,529317;-25,86657;-45,25673;1,389784;1,665133;1,292252;3,420376;0;0;
7637;-36,36174;-6,78853;-27,19071;-37,81928;1,365933;1,504503;1,215955;3,162741;0;0;
7653;-34,49382;-7,590595;-22,27103;-35,00212;1,241595;1,761505;1,463921;3,158994;0;0;
7670;-30,7412;-6,663053;-25,16569;-40,84417;1,468138;1,725601;1,562809;3,289091;0;0;
7689;-34,27152;-4,730625;-23,17429;-39,49237;1,492497;1,809258;1,615765;2,727226;0;0;
7707;-34,37156;-5,415507;-29,17838;-40,0131;1,533587;1,762149;1,70896;2,72137;0;0;
7725;-37,913;-9,122066;-24,12465;-42,93988;1,726479;1,822412;1,599841;2,539284;0;0;
7743;-37,913;-9,122066;-24,12465;-42,93988;1,955336;1,673496;1,472235;2,454919;0;0;
7761;-245,924;-52,62249;-19,08882;-31,35034;13,20259;8,576578;1,767509;2,768935;0;0;
7777;-424,8205;52,54981;-22,41058;12,28555;51,61414;19,57934;3,695215;7,247231;0;0;
7794;-5,171443;-103,0179;-27,14538;-47,85405;102,371;33,10694;4,077203;15,57797;0;1;
7814;-127,6601;21,45424;-23,75373;-51,27874;124,9909;47,84649;4,462657;20,71561;0;1;
7833;138,7592;69,85026;-12,39988;175,8072;167,4608;60,02686;5,861664;42,2209;0;1;
7852;22,03154;-81,36584;-13,61544;141,3834;190,6944;63,12235;7,827418;58,15046;0;1;
7871;-9,211407;-26,21189;-35,16673;159,2579;182,1113;58,73061;7,562812;73,70236;0;1;
7890;-50,13281;-6,178462;-48,46025;-36,24924;121,9766;47,15191;8,236466;83,94733;0;0;
7911;-47,4729;-14,32819;-23,23022;65,185;92,65151;32,31606;8,573009;92,29786;0;0;
7930;-38,45274;-3,142705;-24,32229;-2,032584;75,81602;22,8225;8,25106;88,69083;0;0;
7952;-19,51459;2,082927;-22,31685;201,7198;41,98454;15,41253;7,876571;90,94437;0;0;
7970;-41,08437;-24,04718;-36,75544;124,3613;16,44446;14,71212;7,543713;121,3964;0;0;
7986;-29,83747;-13,13542;-30,94744;-57,2604;11,23306;15,54132;7,935933;111,7277;0;0;
8008;-33,29939;-7,759056;-26,90856;-50,09804;8,066581;14,48039;8,943824;125,8665;0;0;
8026;-35,13529;-6,926765;-14,05774;57,89944;7,181955;14,05826;8,912388;138,8425;0;0;
8046;22,6581;-6,519751;-25,48474;-31,85593;8,659436;11,71608;8,208949;124,4622;0;0;
8063;22,6581;-6,519751;-25,48474;-31,85593;10,58605;11,15574;6,806041;89,7365;0;0;
8083;-39,35265;-14,16752;-21,70492;-47,27853;11,686;4,461637;5,262477;62,73776;0;0;
8101;-24,18946;4,935502;-19,25751;-13,92729;12,47455;3,403089;3,972561;36,46695;0;0;
8119;-21,75898;-9,343315;-24,32752;-33,49012;13,47685;3,056398;2,449209;24,06632;0;0;
8137;-32,56134;-5,157452;-30,54839;-45,67579;13,26816;3,072063;2,00596;11,3751;0;0;
8155;-28,99609;-8,125901;-24,79174;-49,34091;10,83075;3,00928;2,036731;12,78936;0;0;
8172;-32,57625;-6,681721;-30,56315;-36,21281;6,964701;2,557268;2,323252;16,46166;0;0;
8189;-33,05781;-6,849063;-25,719;-43,967;6,101557;2,259191;2,456986;18,09727;0;0;
8210;-23,58585;-8,21606;-27,90276;-23,47526;7,162945;2,031217;2,682995;19,18274;0;0;
8227;-52,2243;-7,210931;-23,63543;-30,15165;8,377328;1,672745;2,61282;20,87328;0;0;
8245;-28,66758;-7,636215;-24,13332;-42,09886;11,38098;1,642811;2,400227;22,16357;0;0;
8261;-28,66758;-7,636215;-24,13332;-42,09886;13,81782;1,619141;2,356795;21,94732;0;0;
8278;-31,22425;-5,064978;-25,35303;19,85082;14,20196;1,713531;2,148219;28,07571;0;0;
8298;-30,30856;-7,348442;-21,5715;-22,94018;14,04227;1,767525;2,036247;34,63828;0;0;
8315;-33,00884;-8,648306;-24,67105;-23,77962;10,59526;1,754772;1,946853;38,52953;0;0;
8335;-38,09051;-10,54727;-23,7687;-18,24584;7,734606;1,836329;1,795166;38,60318;0;0;
8354;-48,92065;-17,60369;-26,21673;-55,15945;4,966002;1,981622;1,777404;38,70913;0;0;
8375;-33,35478;-6,419075;-25,18039;6,410772;2,551497;2,069534;1,653848;37,78629;0;0;
8393;-31,2794;-8,3632;-24,42504;-29,5164;2,219691;1,886319;1,893702;30,85217;0;0;
8410;-33,09897;-7,183769;-22,28403;-55,72334;1,813771;1,851676;1,711903;27,58365;0;0;
8427;-34,27264;-8,499657;-25,76265;-35,98376;1,654181;1,945336;1,722293;26,51518;0;0;
8443;-34,27264;-8,499657;-25,76265;-35,98376;1,424221;2,042922;1,886202;26,03819;0;0;
8459;-54,76451;-23,71633;-23,73595;-8,63849;2,131435;2,528431;1,999282;25,7337;0;0;
8476;-40,95841;5,718582;-30,49709;-42,64108;4,156597;4,655264;2,403246;22,52928;0;0;
8492;-40,95841;5,718582;-30,49709;-42,64108;5,936656;6,72776;2,474438;19,83056;0;0;
8511;-62,28389;-58,22111;-2,245598;41,86966;9,778838;15,27687;4,704306;21,55538;0;0;
8529;-79,11846;156,2655;38,69311;-65,45903;20,57087;30,41422;12,09025;25,47008;1;0;
8548;-29,74502;-89,47112;-104,0233;-99,99172;38,2042;45,73623;20,66897;34,89528;1;0;
8572;145,7658;58,91399;-97,89977;-42,87987;99,37769;63,15448;28,9147;42,63833;1;0;
8589;168,607;60,99725;-101,0328;-49,91104;143,2062;75,15002;43,63289;51,86248;1;0;
8607;1044,535;362,7116;-13,89724;106,6959;286,976;85,41018;50,4818;58,91073;1;0;
8632;-531,1488;-115,409;-78,37435;-49,53542;356,7721;91,92371;53,11489;60,4412;0;0;
8671;-361,9457;-79,03099;-63,63136;-39,20572;378,6494;87,908;52,39812;58,34873;0;0;
8693;-770,6651;-44,46137;-35,23588;-199,6805;403,2922;77,15124;54,2073;58,47467;0;0;
8713;-10,30446;-108,7261;12,03364;-26,04139;365,2449;76,61797;43,52755;59,46508;0;0;
8734;-27,37822;-9,388793;-44,95683;-59,58673;337,6547;66,60641;36,27688;54,8668;0;0;
8754;-39,16784;-2,023473;-25,07862;-43,45564;159,2081;50,53628;34,90985;44,94664;0;0;
8774;-19,2091;-6,677505;-20,42867;-35,16294;110,4335;29,97945;26,93431;41,02436;0;0;
8792;-36,22005;-9,099655;-20,33473;-41,83736;66,48206;21,17128;18,63585;33,60823;0;0;
8809;-35,70118;-5,513423;-32,06195;-43,50133;11,56272;12,40244;11,15724;20,36482;0;0;
8832;-54,57404;-4,570696;77,74582;-37,32833;6,398263;4,745379;13,55188;12,69858;0;0;
8852;-26,86345;-6,433596;-44,09072;-43,73367;6,6215;2,682962;16,10833;8,793652;0;0;
8870;-79,63374;-11,79466;-22,32715;-43,4735;11,08814;2,2447;14,97609;6,684011;0;0;
8888;1,979476;-5,354769;-24,3154;-41,25414;17,82206;2,365336;14,86708;6,265943;0;0;
8907;-47,21416;-4,705085;-27,59807;-36,46823;20,58038;2,775614;14,82528;6,118744;0;0;
8925;14,17953;-7,568798;-26,05843;-29,90302;22,18574;2,498225;13,44692;10,47449;0;0;
8946;-53,37194;-3,224643;-24,23306;-49,16836;22,79349;2,332328;4,354478;11,18381;0;0;
8964;-53,37194;-3,224643;-24,23306;-49,16836;25,01435;2,48679;2,046525;12,14791;0;0;
8980;-32,66994;-10,36449;-23,82092;-5,450477;19,22214;2,232628;1,937729;13,21731;0;0;
8997;-33,7743;-12,43978;-25,63012;-53,55228;11,65847;1,98739;1,974667;14,10432;0;0;
9014;-32,9732;-7,87814;-26,75368;-60,96741;10,52734;1,9939;1,84049;13,67604;0;0;
9032;-36,73861;-9,148732;-23,49711;-23,45247;6,90895;2,073458;1,771865;12,3796;0;0;
9050;-25,46913;-9,408054;-21,17373;-35,06643;3,513613;2,088;1,850889;11,48954;0;0;
9067;-43,66674;-10,7094;-26,60631;-76,28193;3,479734;2,09787;2,412011;11,5931;0;0;
9085;-37,36726;-8,586134;-27,55163;-103,1569;4,462199;2,0921;2,297182;15,77554;0;0;
9103;-37,36726;-8,586134;-27,55163;-103,1569;5,545295;1,937907;2,322226;20,78241;0;0;
9122;-31,57598;-10,00939;-24,02153;-48,31601;5,052314;1,779767;2,467311;21,09948;0;0;
9140;-34,88609;-1,705068;-23,3001;-17,69527;4,915925;1,785723;2,519994;23,94728;0;0;
9158;-35,26466;-9,725638;-25,33755;-41,92006;4,47179;1,726163;2,579152;25,75937;0;0;
9176;-33,02129;-7,539676;-26,82345;-22,89985;3,412928;1,952133;2,002055;23,62468;0;0;
9193;-33,22506;-7,82715;-24,77253;4,132824;2,483103;1,927023;1,839174;20,54547;0;0;
9211;-35,25258;-6,923078;-22,78821;-47,78045;2,042797;1,935488;1,722201;17,87155;0;0;
9228;-33,7733;-7,225296;-24,13441;-27,92812;2,044708;2,098599;1,885875;22,07566;0;0;
9248;-32,19195;-6,039813;-25,20089;-28,06527;1,851476;1,879848;1,83831;18,31745;0;0;
9266;-32,7398;-8,236445;-25,46118;-28,84924;1,815499;1,7134;1,708246;18,49735;0;0;
9285;-37,41912;-11,11434;-29,49156;-41,70499;2,393804;1,654854;1,965434;20,97336;0;0;
9301;-37,41912;-11,11434;-29,49156;-41,70499;3,265187;1,653102;2,09363;22,78227;0;0;
9318;-28,51016;-5,962295;-25,37545;-65,84686;3,483014;1,733992;1,975778;21,12868;0;0;
9335;-36,58871;-8,258931;-25,04697;-41,17565;3,389947;1,634322;1,891034;18,06943;0;0;
9355;-34,08775;-9,422886;-25,7042;-33,64146;3,497311;1,726265;1,842371;16,75389;0;0;
9371;-32,29101;-6,236408;-26,21684;-83,77136;3,009059;1,811103;1,999096;18,18068;0;0;
9388;-8,88044;-4,436522;-25,2382;-64,63027;2,600631;1,74453;1,951556;20,56149;0;0;
9406;-43,46983;-9,748952;-23,76933;-31,19206;7,50724;1,831526;1,751799;19,02845;0;0;
9424;-41,50525;-7,082506;-29,17364;-15,15506;9,969866;1,86338;1,877525;18,7395;0;0;
9443;-41,50525;-7,082506;-29,17364;-15,15506;12,61279;1,934593;2,040323;20,28883;0;0;
9459;-30,27651;-10,11837;-24,50769;-36,32367;13,05601;1,837671;1,846041;20,14397;0;0;
9476;-31,55785;-10,71273;-26,65052;-60,80682;12,98703;2,01509;1,691907;17,86238;0;0;
9495;-34,63749;-5,762445;-25,41525;11,14533;8,955863;2,212843;1,879427;18,24142;0;0;
9514;-34,99755;-5,80129;-27,01819;-14,84388;5,543018;2,2135;1,972369;19,06571;0;0;
9531;-33,19247;-5,695133;-23,18879;-41,24985;3,161043;2,015513;1,713393;17,56015;0;0;
9549;-30,25428;-8,574447;-24,25319;-42,39944;2,689302;1,818009;1,603475;15,71297;0;0;
9567;-32,0673;-2,969921;-25,28697;21,72541;2,360752;1,855761;1,793787;19,09741;0;0;
9584;-36,60658;-9,602503;-29,58688;-21,96552;2,475855;1,744127;1,752529;18,77697;0;0;
9602;-36,60658;-9,602503;-29,58688;-21,96552;2,66112;1,798023;1,51234;19,35938;0;0;
9620;-34,29515;-6,07226;-27,24115;-41,72248;2,701064;1,801947;1,667993;18,94202;0;0;
9638;-23,6189;-3,829303;-25,21785;-44,4432;2,402175;2,011653;1,777161;18,81622;0;0;
9655;-35,80833;-8,566411;-25,18378;-37,16707;2,356395;2,078233;1,833023;22,15457;0;0;
9672;-34,27818;-7,250274;-25,80286;-47,17347;2,074177;2,149469;1,863382;18,06278;0;0;
9692;-37,65245;-8,380813;-26,45398;-43,391;2,012949;1,951685;2,038505;15,8663;0;0;
9711;-31,91647;-2,20351;-22,85104;6,519827;1,950721;1,790233;2,034405;14,32163;1;0;
9728;-30,61589;-6,593363;-27,33038;-40,72404;2,081754;1,820779;2,111817;15,97376;1;0;
9749;-44,30212;64,8987;-22,97705;-17,86083;6,33807;7,861188;2,037251;15,90742;1;0;
9767;-35,76834;-36,17647;-22,1519;-25,68182;17,97903;18,06812;2,294957;16,58784;1;0;
9783;-35,76834;-36,17647;-22,1519;-25,68182;29,68855;28,32367;2,279973;17,99104;1;0;
9801;17,64701;-71,85503;10,10333;-56,9338;121,1076;48,37335;6,701985;21,19311;1;0;
9818;35,10556;21,60518;-5,764239;-40,65819;225,8862;75,16409;11,59979;21,56837;1;0;
9838;678,6599;54,83403;13,95344;-21,11831;370,3725;91,69965;17,47531;25,22021;1;0;
9856;-373,8188;-56,72855;-14,95172;-73,84383;400,2458;91,99881;20,55412;24,77048;1;0;
9881;-23,11393;11,27813;-25,2356;-64,65884;508,5196;100,2127;21,51049;27,00846;1;0;
9899;-149,3928;33,21793;17,45866;-45,91005;492,5928;94,87265;22,33856;29,72988;1;0;
9916;-17,13535;81,07626;-16,08448;-18,9407;398,8527;89,32436;28,61543;32,69934;1;0;
9935;-32,28056;-28,33356;-114,1901;-6,260804;290,1331;72,70802;34,39607;32,9142;1;0;
9952;-8,964393;4,351841;-64,04939;47,55049;182,4206;56,52166;61,29279;38,15685;1;0;
9973;-25,39887;-8,653988;-15,80133;-5,529484;96,0366;44,39121;71,3084;45,36814;0;0;
9997;-36,87572;-11,18449;136,2733;-6,127408;34,42718;31,17075;80,00453;42,95814;0;0;
10017;-40,85709;-11,09513;-33,36149;32,43998;15,72177;22,14931;78,24284;43,42119;0;0;
10038;-41,7604;-0,6564542;-24,87304;-28,13159;9,169784;6,909533;67,84656;41,10829;0;0;
10057;-32,771;-3,804187;-24,43567;-43,67532;12,09067;4,241704;50,98733;33,6338;0;0;
10078;-44,79689;-11,33378;-23,687;-11,42126;16,55496;3,258423;23,28732;20,53579;0;0;
10095;-68,67712;-5,549057;-22,77049;-33,61377;18,95903;2,40841;15,12097;22,41486;0;0;
10112;-58,96957;-6,421176;-13,04689;-54,49786;24,07637;2,094898;6,771579;19,55974;0;0;
10131;2,339219;-6,250463;-44,69891;-16,14812;25,37621;1,960861;4,578817;15,83825;0;0;
10149;-66,24879;-10,72066;-33,9991;-35,6033;27,14966;2,258914;5,913922;15,10818;0;0;
10166;-38,91586;-8,531386;-18,75915;-30,03998;28,71277;2,179849;5,997606;14,50585;0;0;
10184;-32,72754;-8,039053;-22,09929;-43,19867;22,71792;1,995174;6,255357;15,43001;0;0;
10202;-32,72754;-8,039053;-22,09929;-43,19867;18,49982;2,060553;6,354783;13,42011;0;0;
10220;-32,94635;-8,414968;-21,90449;-46,18329;15,2481;2,070829;4,957881;13,37574;0;0;
10237;-29,51832;-6,846772;-21,9029;-38,25375;12,78022;1,659724;3,620933;11,55624;0;0;
10255;-43,55352;-5,392914;-25,2306;-51,96176;7,672235;1,649756;2,424165;11,68469;0;0;
10272;-26,41454;-6,917385;-27,37646;-54,24425;6,365732;1,647526;2,139874;11,44916;0;0;
10290;-41,95151;-7,151306;-26,92085;-32,64405;5,885515;1,604891;1,73128;10,94025;0;0;
10306;-39,87904;-9,729771;-25,09797;-37,11601;5,933701;1,706878;1,444938;7,686544;0;0;
10321;-39,87904;-9,729771;-25,09797;-37,11601;6,057603;1,653804;1,417789;7,192758;0;0;
10340;-27,92428;-4,21776;-26,3698;-71,35838;5,96631;1,627581;1,430911;10,5539;0;0;
10359;-33,03766;-9,358116;-25,86236;-32,28719;4,63643;1,623917;1,422708;11,79817;0;0;
10376;-32,55357;-4,793269;-29,47565;-30,02365;3,939677;1,554258;1,914745;12,59995;0;0;
10392;-32,55357;-4,793269;-29,47565;-30,02365;3,306258;1,66338;2,538728;13,36774;0;0;
10409;-32,68314;-9,103439;-22,81402;-41,98289;2,522601;1,920909;2,918347;13,35396;0;0;
10427;-35,26702;-8,568003;-28,55413;-38,6648;2,135233;2,052237;3,089339;14,24859;0;0;
10444;-32,38925;-5,758085;-25,83431;-36,47155;1,632907;2,062029;3,098582;11,49717;0;0;
10462;-32,38925;-5,758085;-25,83431;-36,47155;1,633083;2,190891;3,162004;9,395133;0;0;
10479;-33,87923;-10,58396;-26,11163;-27,01572;1,610418;2,21413;2,734978;10,65937;0;0;
10498;-31,74375;-8,565717;-21,41276;-22,10525;1,452229;2,133575;1,987872;11,91863;0;0;
10518;-33,37471;-10,34877;-23,12988;-49,09676;1,36867;2,11501;1,788136;13,23501;0;0;
10538;-26,78531;-6,997021;-26,81462;-34,43394;1,679209;2,104789;1,720434;11,87865;0;0;
10556;-34,33285;-11,06711;-27,28006;-64,98944;1,76157;2,021692;1,69409;12,98549;0;0;
10575;-30,11164;-12,2341;-25,48186;-37,33513;1,785266;2,141029;1,62005;12,50699;0;0;
10592;-35,18288;-5,202828;-24,54355;-55,86488;2,147595;2,074754;1,559549;11,91056;0;0;
10612;-32,29258;-7,036089;-26,46662;-45,78292;2,522254;1,991287;1,487539;10,72519;0;0;
10631;-31,79006;-5,703856;-25,1895;-45,35147;2,441132;1,985513;1,43003;11,64547;0;0;
10649;-33,33933;-7,916729;-28,14075;-58,24476;2,160916;2,00789;1,601623;15,52309;0;0;
10667;-37,33019;-7,408464;-25,87361;15,43045;2,245916;1,895429;1,568711;14,4449;0;0;
10684;-33,46161;-7,412644;-27,41678;-51,14955;2,225751;1,594634;1,598103;19,58709;0;0;
10702;-33,46161;-7,412644;-27,41678;-51,14955;1,734213;1,655845;1,59429;22,46322;0;0;
10719;-34,90264;-4,244241;-19,0008;-33,54982;1,691496;1,782684;1,718214;20,97182;0;0;
10738;-32,57447;-8,852331;-24,91014;4,474826;1,778697;1,612417;1,603973;19,5307;0;0;
10759;-33,4054;-5,442682;-24,77544;-63,84896;1,733106;1,602924;1,339148;19,13709;0;0;
10781;-27,33118;-2,010066;-22,48445;-31,26505;1,837561;1,771285;1,384972;16,89187;0;0;
10800;-33,41272;-6,053596;-23,3576;-30,68278;1,701626;1,953324;1,482781;12,83472;0;0;
10819;-30,74116;-7,184439;-21,9432;-30,21475;1,705049;1,970286;1,377387;12,28568;0;0;
10836;-35,80659;-5,067508;-24,80868;-21,94208;1,594055;1,835898;1,320536;13,41697;0;0;
10854;-35,80366;-11,58062;-28,92451;-33,76733;1,613579;1,979185;1,601669;12,60483;0;0;
10871;-33,25294;-5,184587;-23,53005;-34,38077;1,755226;2,125115;1,747822;12,599;0;0;
10890;-33,05136;-8,997053;-22,68832;-31,70092;1,381382;1,692002;1,861545;13,22292;0;0;
10909;-34,88403;-8,26026;-24,77062;-46,95278;1,492482;1,593466;1,802236;12,23715;0;0;
10925;-34,24352;-5,150465;-25,6788;-21,77684;1,455179;1,725663;1,720363;11,70133;0;0;
10943;-34,24352;-5,150465;-25,6788;-21,77684;1,490574;1,811198;1,631452;10,4224;0;0;
10961;-32,92685;-10,11529;-25,47096;-45,47551;1,32502;1,924956;1,446929;10,55749;0;0;
10978;-33,98428;-3,965909;-21,79291;-82,3209;1,202382;1,928788;1,379617;11,44898;0;0;
10995;-35,40105;-10,10987;-21,54946;-34,58909;1,346147;1,982133;1,242238;10,07409;0;0;
11013;-32,72236;-6,175938;-25,05128;-27,53214;1,290775;2,135156;1,522726;11,04561;0;0;
11033;-35,23808;-9,031379;-22,30287;-28,45685;1,386107;2,054343;1,694338;10,36621;0;0;
11054;-33,17183;-5,355206;-20,81312;17,79089;1,416139;2,085907;1,595596;11,71388;0;0;
11072;-32,92468;-8,612853;-24,51993;-16,01397;1,424324;1,981178;1,767545;11,30149;0;0;
11090;-34,48867;-4,998894;-24,61259;-45,85116;1,392807;1,985122;1,789257;10,22321;0;0;
11108;-33,64978;-9,376231;-23,89677;-31,62777;1,403363;1,912026;1,670537;10,25061;0;0;
11127;-33,78509;-8,513508;-25,20469;-34,29461;1,317467;1,716552;1,569306;9,096157;0;0;
11146;-34,26983;-2,982323;-26,24159;-67,61083;1,426388;1,939017;1,593884;11,43623;0;0;
11165;-34,61673;-7,905221;-24,37699;-34,52832;1,37111;1,812375;1,486208;12,36192;0;0;
11181;-34,61673;-7,905221;-24,37699;-34,52832;1,437896;1,761592;1,333973;14,00596;0;0;
11199;-36,5862;-10,90726;-25,76909;-28,57103;1,45388;1,640316;1,26886;16,65233;0;0;
11219;-36,70909;-8,731047;-21,88536;-36,1088;1,515654;1,675492;1,444883;21,12313;0;0;
11237;-35,87256;-10,69987;-27,45766;-51,45256;1,577704;1,868821;1,475023;19,85745;0;0;
11260;-62,78036;-3,484243;-24,13337;-59,42194;4,379843;1,731467;1,415401;20,32744;0;0;
11280;-53,41132;-9,380688;-25,83402;-53,20993;8,876021;1,892315;1,473721;19,9707;0;0;
11302;-30,30891;-5,321072;-23,1035;-30,20516;9,135222;1,950466;1,630923;18,16709;0;0;
11320;-33,63364;-9,719306;-24,62173;-28,00032;9,148576;2,131744;1,571077;13,22134;0;0;
11339;-30,5736;-3,472946;-24,31187;-35,41209;9,241755;2,294858;1,53157;11,89365;0;0;
11361;-32,8129;-7,039669;-23,51094;-14,61375;7,858399;2,05549;1,583341;10,36295;0;0;
11385;-34,7426;-7,613378;-26,46361;-39,41879;4,117238;2,030386;1,805772;12,17224;0;0;
11402;-34,7426;-7,613378;-26,46361;-39,41879;1,696404;2,034601;1,956318;12,31291;0;0;
11421;-33,20676;-6,409556;-25,64502;-27,88502;1,411375;2,010025;1,883346;14,75155;0;0;
11441;-35,36145;-9,803796;-24,98901;-28,42083;1,444788;2,001513;2,042458;17,97371;0;0;
11458;-35,36145;-9,803796;-24,98901;-28,42083;1,229992;1,946232;2,179632;21,65841;0;0;
11475;-35,95297;-10,10724;-21,77124;-16,89368;1,057337;1,909256;2,239893;21,19677;0;0;
11493;-34,34139;-7,761934;-25,0451;-25,59722;1,179696;1,921112;2,083638;23,18119;0;0;
11512;-33,57844;-4,477509;-26,00624;-102,935;1,292438;2,008807;1,984505;23,40123;0;0;
11530;-35,31979;-7,362155;-27,81898;-38,18711;1,852924;1,976064;1,835573;20,4357;0;0;
11552;-21,81407;10,18977;-24,02973;-60,35252;2,593982;2,344375;1,78617;18,17462;0;0;
11573;-36,75085;5,868867;-23,77639;-33,30051;3,848595;3,417376;1,885942;18,94238;1;0;
11590;-29,59024;-10,12576;-22,98;-33,62566;4,427931;3,565926;1,788292;15,91036;1;0;
11611;63,99788;90,00101;-26,64223;-41,57389;9,964705;10,41085;1,822138;11,72499;1;0;
11630;245,8623;47,30209;-25,66012;-40,06643;28,77295;26,58035;1,676278;9,57877;1;0;
11649;-186,4442;103,4949;-26,11619;-46,50894;143,406;38,55336;1,671556;8,197704;1;0;
11672;404,8602;300,369;-24,8671;-53,992;207,5699;54,01786;1,57152;4,685423;1;0;
11691;993,4377;-28,73514;-26,09214;-27,46474;267,4534;66,62553;1,500263;4,22047;1;0;
11711;-461,9256;-118,1421;-25,73491;-40,96365;413,9631;84,79028;1,612074;7,815393;1;0;
11730;-181,1093;88,30416;-3,345353;6,815577;524,2379;94,17036;3,489428;10,75852;1;0;
11754;-65,228;21,43448;30,28623;-5,13159;566,1172;88,1467;10,36324;17,12851;1;0;
11774;-105,5295;9,569944;-91,0527;45,70584;521,4327;82,50169;18,77711;24,49575;1;0;
11791;-5,786306;29,83426;-89,46607;-60,4539;454,86;66,84224;27,04179;30,97601;1;0;
11808;39,88672;25,067;-85,36319;14,75952;344,8761;58,96946;39,58067;37,38019;1;0;
11826;-94,53567;-14,20961;-40,04224;-12,18027;227,7496;36,26168;44,4339;41,48778;1;0;
11842;-94,53567;-14,20961;-40,04224;-12,18027;118,1276;24,47664;44,98953;43,79462;1;0;
11858;-20,65863;-6,801231;-62,25352;-1,82537;88,29304;20,01706;45,8615;41,72911;1;0;
11875;-40,57949;-7,412024;-24,50424;-33,03951;78,63923;15,19175;38,28047;38,02528;1;0;
11894;-28,4093;-13,27498;-20,69899;-40,87029;40,02762;8,959785;27,27092;28,69769;1;0;
11911;-51,35415;-9,128504;-24,78779;-41,42439;20,63351;4,843342;20,23746;20,51326;1;0;
11928;-41,19607;-7,843524;-24,49747;-41,1259;11,62206;2,890297;14,39839;13,31175;0;0;
11947;27,9765;-3,394521;-24,50225;-41,0906;8,585418;2,28899;8,336948;8,358582;0;0;
11968;-24,47423;-2,013753;-22,53576;-24,43009;10,96416;2,203187;3,050856;3,199208;0;0;
11985;-30,16715;-8,3759;-24,73364;-40,18472;14,87668;2,489352;1,636018;2,84236;0;0;
12002;-30,16715;-8,3759;-24,73364;-40,18472;18,37705;2,811495;1,479517;3,743493;0;0;
12022;22,13679;-9,358747;-25,16962;-40,9444;20,2087;2,648228;1,816343;4,271856;0;0;
12041;-63,58533;-6,918321;-27,71295;-53,47748;23,8199;2,728176;1,998716;6,182589;0;0;
12058;-36,08509;-8,074606;-24,87767;-39,49812;20,84389;2,470496;2,07225;6,487706;0;0;
12078;-32,86953;-5,090701;-24,61805;-38,82071;15,62157;2,362218;1,994847;7,471985;0;0;
12100;-29,93777;-5,178859;-26,25902;-45,23008;11,29042;1,949059;2,140197;7,693864;0;0;
12116;-24,13398;-10,68437;-23,72355;-40,01125;10,74121;1,950942;2,021851;7,826584;0;0;
12134;-42,85015;-9,344207;-26,396;-38,87996;6,610256;2,077743;2,147377;8,45503;0;0;
12153;-61,56383;-11,26329;-24,13364;-35,89232;7,222699;2,430939;2,457219;7,794969;0;0;
12171;-45,54723;-9,601244;-25,35882;-39,43506;10,20109;2,70031;2,475837;9,266444;0;0;
12188;-26,18927;-6,941397;-25,86164;-26,81468;10,6444;2,64259;2,557089;8,934213;0;0;
12205;-28,69889;-6,539622;-24,99414;-43,36764;10,43846;2,512183;2,389307;11,28727;0;0;
12224;-28,69889;-6,539622;-24,99414;-43,36764;9,274443;2,398076;2,383978;15,1608;0;0;
12241;-34,05762;-9,539747;-21,63272;-42,84314;7,961266;2,258598;1,664112;14,10258;0;0;
12257;-34,22857;-6,916625;-25,85981;-37,74072;4,284928;1,922567;1,518064;12,84115;0;0;
12275;-32,57942;-9,375338;-22,46179;-39,13328;2,679264;1,754463;1,542193;11,41874;0;0;
12294;-33,2381;-8,887015;-23,89234;-37,38266;2,096907;1,679003;1,540509;10,45879;0;0;
12310;-42,09985;-8,110989;-25,63833;-44,32359;2,575429;1,548819;1,574044;6,263496;0;0;
12329;-32,17769;-7,400165;-27,80234;-75,34967;2,7228;1,518672;1,596933;3,539756;0;0;
12346;-30,97393;-6,511856;-26,10953;-48,04539;2,963217;1,580046;1,554614;5,165641;0;0;
12365;-34,60796;-9,752516;-26,25932;-34,85267;2,878963;1,735037;1,790461;7,322865;0;0;
12384;-34,60796;-9,752516;-26,25932;-34,85267;2,89646;1,941086;1,881034;8,936934;0;0;
12402;-36,96872;-9,69478;-27,55209;-47,37442;2,793854;1,908817;1,94719;9,516513;0;0;
12421;-34,63481;-6,339268;-23,20207;-23,18613;1,8564;2,229145;1,972059;10,87688;0;0;
12439;-33,22273;-7,922187;-23,43199;-25,67884;1,522595;2,325702;1,909766;11,26899;0;0;
12457;-36,6426;-9,040378;-22,11308;-1,472261;1,372228;2,114305;1,870547;12,22942;0;0;
12477;-28,06154;-7,988528;-29,90433;-58,2906;1,450797;1,930136;1,91411;14,89446;0;0;
12495;-35,26235;-7,549235;-22,21174;-40,15948;1,686382;1,7921;1,869452;13,95767;0;0;
12511;-31,84674;-9,356255;-24,86744;-41,14462;1,739295;1,790533;1,708694;14,65288;0;0;
12528;-35,2514;-7,407521;-22,41237;-34,34131;1,828586;1,453926;1,674352;13,16314;0;0;
12548;-15,37108;-6,679672;-23,30779;-25,95069;6,545615;1,447229;1,514389;15,20851;0;0;
12565;-15,37108;-6,679672;-23,30779;-25,95069;11,25738;1,523354;1,332101;13,52052;0;0;
12582;-15,37108;-6,679672;-23,30779;-25,95069;15,70884;1,639885;1,147307;14,7573;0;0;
12599;-31,55342;-9,100561;-25,67911;-59,94835;16,35415;1,777037;1,103487;16,55169;0;0;
12619;-31,0248;-8,888871;-23,40258;-21,00878;16,45544;1,848108;1,122793;16,24364;0;0;
12637;-32,39168;-6,059762;-23,7505;-57,20505;15,29817;1,885853;1,231462;16,50363;0;0;
12654;-31,14624;-11,68703;-22,78263;-82,83839;10,72098;1,907958;1,337543;16,85795;0;0;
12671;-31,55481;-5,704632;-25,66144;-95,00318;6,059495;1,850694;1,465405;17,28851;0;0;
12690;-28,89352;-7,607771;-24,37043;-29,96047;2,222718;1,618302;1,404742;17,29573;0;0;
12708;-32,19883;-8,143581;-27,20071;-60,43865;1,92629;1,798215;1,407628;15,99059;0;0;
12724;-35,63052;-8,696071;-25,52952;-30,39407;1,808217;1,897629;1,378324;17,87937;0;0;
12741;-35,63052;-8,696071;-25,52952;-30,39407;1,998884;2,131022;1,400973;18,77192;0;0;
12764;-35,24633;-7,651515;-26,48123;-36,4847;1,721721;2,087346;1,401683;16,07695;0;0;
12783;-33,58687;-7,131324;-22,77498;-46,82355;1,707328;2,088722;1,570445;12,91707;0;0;
12800;-31,07442;-4,700384;-28,06248;-37,89837;1,399229;2,251829;1,686419;12,85613;0;0;
12819;-33,48141;-9,112626;-20,98863;-51,09396;1,337093;1,910784;1,721684;12,45093;0;0;
12837;-30,97339;-8,529204;-23,16058;-42,22439;1,510458;1,643842;1,714937;9,812049;0;0;
12854;-35,4485;-6,075406;-22,51795;-29,95271;1,465714;1,537102;1,813728;7,926772;0;0;
12872;-30,85752;-10,91839;-26,40219;-43,44159;1,628121;1,675773;1,838104;7,38829;0;0;
12891;-34,25182;-9,38135;-26,04093;-33,26842;1,774363;1,504057;1,683133;8,042113;0;0;
12910;-32,67714;-8,89868;-26,65666;-13,72157;1,812392;1,587644;1,615871;8,281073;0;0;
12927;-32,9187;-2,252428;-20,70699;-64,34163;1,716527;1,754919;1,54524;8,712692;0;0;
12945;-33,17975;-6,548231;-22,9843;-72,21122;1,575493;1,965267;1,577967;9,942097;0;0;
12962;-33,17975;-6,548231;-22,9843;-72,21122;1,592635;2,045197;1,448274;10,0554;0;0;
12979;-34,07546;-6,85705;-22,15622;-45,75659;1,371882;2,004569;1,412069;9,377577;0;0;
12995;-32,7288;-6,09938;-24,50624;-36,80466;1,470048;2,268515;1,454469;10,28622;0;0;
13013;-36,76515;-5,352738;-24,86815;-54,31429;1,433134;2,253228;1,465585;10,76872;0;0;
13029;-32,66866;-9,568933;-26,77036;-61,46874;1,412726;1,961708;1,457328;10,39417;0;0;
13047;-29,06429;-6,199664;-24,50746;-33,66516;1,467993;1,945457;1,59679;11,86162;0;0;
13063;-29,06429;-6,199664;-24,50746;-33,66516;1,480248;1,987179;1,718881;13,44539;0;0;
13081;-36,20076;-8,186435;-25,86769;-35,54161;1,505003;1,97452;1,684282;12,98615;0;0;
13098;-30,30456;-7,831267;-28,02737;-35,59571;1,68141;1,828194;1,741587;12,037;0;0;
13115;-35,92261;-12,42641;-25,17969;-40,13113;1,69561;1,85905;1,687291;10,95503;0;0;
13132;-34,03663;-3,832412;-27,40026;-39,2353;1,851121;2,066648;1,614647;8,709255;0;0;
13150;-32,5519;-11,5384;-27,19863;-53,4554;1,780507;1,966469;1,540142;8,384225;0;0;
13168;-35,34149;-4,722264;-25,06683;-35,87247;1,657744;2,075445;1,581199;10,56337;0;0;
13186;-32,83091;-7,657495;-23,14793;-33,09999;1,638911;2,21194;1,572026;12,03768;0;0;
13203;-32,83091;-7,657495;-23,14793;-33,09999;1,484395;2,480139;1,47204;13,95928;0;0;
13221;-34,08636;-11,08138;-28,39399;-37,28585;1,288531;2,360411;1,547819;14,18471;0;0;
13240;-32,19394;-8,367852;-26,21028;-35,38559;1,288413;2,210914;1,603668;12,84962;0;0;
13256;-36,59919;-7,55454;-26,91872;-38,48901;1,321447;2,172483;1,614717;13,06863;0;0;
13277;-33,52363;-11,77876;-22,56569;-37,01242;1,395138;2,195626;1,619694;10,75794;0;0;
13298;-31,75322;-7,785521;-24,49888;-36,18135;1,41567;2,208389;1,669234;8,493217;0;0;
13315;-35,68495;-7,855341;-22,18394;-15,06859;1,394723;2,107874;1,676846;8,46943;0;0;
13332;-29,27218;-4,233852;-23,44491;-50,05015;1,616087;2,063975;1,61884;9,197829;0;0;
13353;-35,12795;-12,38527;-25,21513;-51,454;1,558584;2,260422;1,455695;9,183752;0;0;
13373;-32,04315;-6,325996;-23,96613;-4,331756;1,657998;2,436797;1,475017;10,00789;0;0;
13390;-35,06442;-6,91927;-23,52133;-43,08599;1,609139;1,997102;1,305024;10,68616;0;0;
13410;-31,8329;-6,423375;-26,99132;-27,41091;1,552895;1,922319;1,493065;11,52233;0;0;
13428;-33,42117;-9,119775;-23,54377;-2,892315;1,59603;1,929741;1,507828;11,60894;0;0;
13446;-34,5309;-10,18;-26,71755;-41,46886;1,331772;1,878996;1,458861;11,28321;0;0;
13462;-34,5309;-10,18;-26,71755;-41,46886;1,275799;1,627906;1,425375;10,09254;0;0;
13480;-44,18177;-4,439545;-29,64307;-29,74464;1,480677;1,617282;1,940982;10,22296;1;0;
13497;-38,40185;10,915;-31,69958;-105,1795;3,033071;2,606209;4,225504;12,98163;1;0;
13514;39,34595;48,02663;-21,06856;5,901498;5,513971;5,229531;6,658805;14,86066;1;0;
13531;-27,39781;-31,89409;-21,66984;-34,10359;8,214772;8,837683;7,687983;15,52117;1;0;
13550;61,44183;48,64442;-29,00198;-41,81952;25,50301;22,81257;7,794937;14,9818;1;0;
13567;-75,84459;-239,7316;-27,88668;-41,89299;59,47275;34,70153;7,882936;14,46559;1;0;
13584;-11,32765;43,67258;-19,10798;-38,9063;100,1164;51,31898;6,208586;13,92758;1;0;
13602;-11,32765;43,67258;-19,10798;-38,9063;139,1516;66,79858;3,717721;9,276616;1;0;
13621;-292,8618;-82,64228;-37,87215;49,00273;215,0994;80,32641;7,881612;11,20745;1;0;
13639;-185,4174;2,014751;17,47731;-74,3218;326,5771;86,8274;15,02294;20,4779;1;0;
13656;477,4494;55,45094;38,35349;219,0871;356,8618;88,67289;26,55212;36,4355;1;0;
13676;159,2507;-54,30526;63,67961;-198,4877;406,1511;88,29346;42,30721;58,40881;1;0;
13696;-155,1623;33,9784;72,60365;160,0826;389,1488;76,70159;58,13355;80,41943;1;0;
13716;-186,0434;-33,84659;-188,8537;-49,93739;357,034;66,68247;71,74426;84,58445;0;0;
13736;-28,6692;5,164866;6,355546;47,22038;265,4879;59,87914;71,91829;95,24851;0;0;
13755;-32,23543;-3,96577;-28,52722;-43,73396;188,8103;44,97464;57,9826;86,2134;0;0;
13772;-33,86806;-1,491428;-12,24693;-33,99608;114,2894;26,5916;48,62754;70,96979;0;0;
13789;-31,07773;-8,613372;-35,64273;-37,22839;67,27039;20,8544;34,50705;43,69705;0;0;
13809;-34,29694;-12,30565;-21,00131;-50,7555;32,25973;11,45454;19,85268;31,35176;0;0;
13827;-37,28254;-4,871868;-29,62253;-66,39054;11,10989;6,831423;4,916064;20,60208;0;0;
13851;-28,98914;-9,245209;-43,46142;-38,74616;5,817012;3,562063;6,853184;16,55335;0;0;
13871;-1,432351;-6,891592;-45,36629;-49,3805;9,68606;2,893607;14,82102;17,05366;0;0;
13891;14,65207;-6,193869;-13,47801;-46,68846;17,45518;2,080031;16,5171;14,57635;0;0;
13908;-56,76438;-8,451;-26,66929;-8,042814;19,93238;1,622292;16,35126;15,66643;0;0;
13925;-43,41632;-9,906004;-25,69044;-28,29091;23,48267;1,366244;16,36992;16,27869;0;0;
13945;6,28438;-7,596289;-25,00503;-52,03073;26,77261;1,196089;14,89334;15,22185;0;0;
13962;6,28438;-7,596289;-25,00503;-52,03073;28,2398;1,134147;9,547833;17,14579;0;0;
13979;-48,36682;-6,823492;-25,24582;-49,76399;28,25945;1,256364;3,292439;17,49589;0;0;
13996;-32,90778;-1,118699;-25,93921;-33,72081;21,51101;1,245031;2,049959;17,35036;0;0;
14016;-36,17549;-11,36743;-22,8004;-28,31748;18,71747;1,657555;1,828975;15,47108;0;0;
14035;-25,14676;-9,882685;-26,27495;-90,77453;16,26147;1,914622;1,790571;13,91826;0;0;
14052;9,32637;-7,754439;-18,10665;-39,00178;13,47534;2,095262;1,754293;15,68885;0;0;
14069;-49,79176;-6,365828;-24,66832;-0,8621944;10,77327;2,197409;1,724901;18,9817;0;0;
14095;-33,73915;-4,962046;-26,93752;-54,50616;8,954399;2,417756;1,836843;21,61853;0;0;
14113;-30,85901;-9,103636;-22,87878;-43,89914;8,747388;2,158343;1,895305;22,39217;0;0;
14130;-34,38562;-9,932126;-22,19797;13,08131;9,076642;2,107003;2,004255;21,9736;0;0;
14152;-32,10252;-6,8118;-23,50166;-44,97358;8,80695;1,974728;2,088375;19,43269;0;0;
14170;-36,23014;-11,08125;-26,71197;-45,5754;5,477873;1,901957;1,98306;17,21597;0;0;
14188;-34,37273;-13,54187;-27,03659;-20,11666;3,60516;1,829224;1,832103;14,95319;0;0;
14207;-31,9704;-6,542701;-27,33582;-36,23395;3,521094;1,988129;1,708913;14,7391;0;0;
14223;-31,9704;-6,542701;-27,33582;-36,23395;4,016285;2,355795;1,571413;15,92521;0;0;
14242;-37,17521;-7,520339;-25,58314;-59,67455;4,115291;2,224244;1,580014;14,62319;0;0;
14259;-16,79846;-7,688464;-26,3371;-64,95599;4,355214;2,175718;1,536841;15,46069;0;0;
14278;-41,67705;-10,41032;-25,7118;-35,53207;7,458599;2,185975;1,451084;14,99466;0;0;
14297;-36,6434;-8,54282;-25,93176;-40,27535;8,871657;2,141032;1,511621;13,83966;0;0;
14315;-29,87737;-9,559042;-26,01845;-35,22725;8,23088;1,764699;1,485411;11,88039;0;0;
14332;-33,41008;-8,023731;-26,4825;-43,23027;7,483063;1,499921;1,548853;10,43863;0;0;
14348;-32,20316;-8,396527;-23,69748;-48,22232;7,147174;1,496664;1,259606;8,082899;0;0;
14365;-30,2331;-6,797974;-27,02291;-44,25197;2,401394;1,62222;1,350857;5,79111;0;0;
14384;-30,2331;-6,797974;-27,02291;-44,25197;2,064448;1,764193;1,181558;4,046027;0;0;
14405;-34,16706;-6,060127;-37,48841;-41,22841;1,812907;1,901385;2,221004;4,340937;1;0;
14425;-33,71749;-5,591218;-23,88125;-52,29066;1,772801;2,010159;4,106773;5,547308;1;0;
14441;-33,71749;-5,591218;-23,88125;-52,29066;1,755312;1,923887;5,916214;6,748964;1;0;
14459;-38,67108;-5,682374;9,166589;-4,929668;1,660284;1,836763;14,63122;12,1648;1;0;
14478;-32,28171;-9,713625;-46,45938;-93,44197;1,666982;1,650236;21,75431;17,97602;1;0;
14497;-30,86787;-9,922739;-22,99584;-9,561765;1,689845;1,648928;28,29281;26,55807;1;0;
14515;-35,07373;-13,19642;-104,8862;-67,98479;2,187082;2,04024;36,03817;31,8371;1;0;
14534;-65,69759;-39,83504;12,28863;-145,225;3,698784;4,237578;40,84827;46,11377;1;0;
14553;-290,477;-106,4659;-58,85499;2,91863;28,88927;15,69209;42,24237;48,62773;1;0;
14571;-265,6903;126,6169;-17,96214;-3,593033;97,485;32,67828;36,45815;45,33192;1;0;
14589;18,72086;-52,21441;-40,53888;-29,45625;117,6067;42,35131;30,85125;37,01486;1;0;
14607;-107,0075;-71,96909;-28,32113;-33,60115;186,2924;54,12176;24,12113;30,3632;1;0;
14626;136,875;64,3662;-22,59985;-67,63005;233,8768;71,83285;15,36145;24,0718;1;0;
14643;136,875;64,3662;-22,59985;-67,63005;270,1579;83,44454;9,944611;15,18579;1;0;
14662;-114,6785;-92,02351;-27,5061;-43,49437;278,8658;86,40862;6,298148;12,0994;1;0;
14682;-148,6098;-75,84014;-17,43137;-31,48259;329,2809;82,35331;4,550289;11,74886;1;0;
14702;57,54897;-148,6953;-23,33845;-53,97689;295,6231;83,19487;2,260485;12,74683;1;0;
14722;-8,518771;-8,852848;-26,94935;-30,52777;264,814;67,35978;2,901191;13,57881;1;0;
14740;-25,35349;-11,35319;-23,5222;-36,59398;217,982;49,96949;2,758314;10,8043;1;0;
14756;-19,61113;-10,86867;-22,54799;-39,51879;179,4622;36,71143;2,646873;6,923643;1;0;
14774;-65,64597;-27,09136;-25,80472;-51,03497;83,16143;18,58186;2,851293;7,44404;0;0;
14791;-42,66456;-6,912775;-26,08329;-47,56148;33,76559;14,21226;2,579587;7,405042;0;0;
14813;-40,90644;0,9365172;-25,01056;-36,68517;21,75189;8,775393;2,049761;7,927412;0;0;
14832;-67,18616;70,35989;-20,32693;-35,02736;22,06575;11,62002;1,851945;8,366064;0;0;
14852;17,91305;-2,006158;-24,14561;-35,18602;32,03667;10,3014;1,812985;8,765173;0;0;
14873;-43,94101;-10,10593;-23,84449;-47,25562;25,88482;8,930972;1,547352;8,724181;0;0;
14899;-8,184663;-11,08228;-25,00006;-29,66147;30,19485;7,137751;1,870748;8,057803;0;0;
14919;-70,88163;-4,099051;-23,14116;-40,40116;35,27346;6,726957;1,925263;7,313957;0;0;
14937;-46,23075;-7,361897;-24,13286;-46,68791;37,50954;5,434869;1,825224;6,275337;0;0;
14956;-23,62443;-5,692667;-24,26042;-21,35471;31,03222;1,837484;1,746104;5,847898;0;0;
14976;-22,64874;-7,57798;-31,49775;-19,99815;23,37372;2,218852;1,973702;7,987991;0;0;
14996;-57,44196;-6,674378;-21,57207;-40,76437;20,02837;2,095773;1,789718;8,074265;0;0;
15016;-43,84451;-8,882086;-26,62009;-48,9324;19,27059;2,098204;1,463525;8,474188;0;0;
15037;-33,96021;-8,838875;-22,99427;22,32902;12,41643;1,880571;1,496239;10,67311;0;0;
15053;-34,30037;-5,660381;-26,44761;-80,62659;10,63803;2,22778;1,563046;15,69124;0;0;
15073;-18,55432;-10,10145;-26,83;-39,08767;9,510868;2,072143;1,693579;16,02399;0;0;
15091;-38,75557;-8,589439;-22,29202;23,65747;7,282266;1,885434;1,609158;17,38806;0;0;
15108;-32,04985;-7,588514;-23,6267;-56,39198;4,539058;2,183397;1,721582;19,85738;0;0;
15126;-36,5118;-5,443388;-26,46;-34,54069;3,517331;2,761869;2,030559;20,37657;0;0;
15144;-61,41688;-5,444488;-23,5489;-46,3202;6,048971;2,824303;2,145446;20,25832;0;0;
15161;-61,41688;-5,444488;-23,5489;-46,3202;8,171652;2,671066;2,209292;18,29983;0;0;
15178;-43,12748;-4,94086;-25,49823;-34,51418;8,767505;2,914991;2,061051;17,45377;0;0;
15195;-31,23427;-4,610082;-21,77267;-0,6781862;8,759857;2,714294;1,897961;17,83102;0;0;
15212;-32,91853;-7,044264;-21,33117;-79,49072;8,308941;2,162497;1,795999;17,99249;0;0;
15229;-29,51969;-8,883657;-24,06193;-41,98549;6,601902;2,240093;1,730541;17,09797;0;0;
15247;-33,77082;-5,699847;-24,34634;-46,85871;4,322589;2,163346;1,559027;15,23744;0;0;
15263;-33,77082;-5,699847;-24,34634;-46,85871;2,895452;1,891274;1,460659;14,52156;0;0;
15281;-34,75039;-9,084038;-26,70585;-58,35145;2,541414;1,738801;1,614008;14,37893;0;0;
15301;-31,48788;-10,85284;-26,82959;-36,10999;2,307588;1,787473;1,751709;13,4824;0;0;
15318;-35,13836;-4,960505;-26,68719;-6,320634;2,681146;2,076113;1,624102;13,60433;0;0;
15336;-11,93018;-7,178813;-25,16717;-64,01897;3,271816;2,710912;1,625196;14,07753;0;0;
15354;34,97056;48,69535;-23,95955;-41,89161;6,560481;4,887422;1,621897;13,929;0;0;
15372;-38,52222;-8,44869;-27,20525;-37,57066;7,38882;5,825149;1,590104;16,22615;0;0;
15390;-30,52791;-11,01242;-25,87457;-73,73947;8,241339;7,913961;1,548869;17,55766;0;0;
15409;-62,44274;-51,80918;-23,35264;-32,15058;8,96179;9,672683;1,499784;19,90955;1;0;
15427;-38,60115;4,098219;-25,83724;-31,02294;11,04321;14,26253;1,675563;18,49165;1;0;
15445;-13,33014;-14,20872;-25,47972;-37,72433;20,95602;26,19085;1,580262;17,29521;1;0;
15467;-74,57018;17,11595;-23,52329;-53,12076;29,16496;33,60715;1,769658;19,13699;1;0;
15485;294,6685;-63,68056;-23,64131;-49,95398;118,9204;43,55023;2,099839;16,37803;1;0;
15506;954,3572;-0,411909;-22,81491;-29,98803;173,3967;51,7272;2,359156;13,37413;1;0;
15522;954,3572;-0,411909;-22,81491;-29,98803;226,4185;57,20649;2,547632;13,16493;1;0;
15538;-194,5644;16,48539;-61,25466;-64,14422;280,422;65,06488;4,707718;14,46456;1;0;
15558;-86,24426;-50,91431;-43,33804;-80,90221;290,2299;64,95093;13,01788;16,52696;1;0;
15579;655,1989;-200,0946;34,70207;-85,3617;401,0112;76,0291;23,70358;21,85824;1;0;
15597;-170,3493;-52,49765;-26,90481;-102,2447;367,3533;76,21115;31,89014;28,56993;1;0;
15618;-25,61783;81,29773;-83,1982;-110,944;369,2936;78,90845;37,85223;37,6864;1;0;
15636;-74,7783;-45,27027;29,40174;49,4492;356,9218;69,21053;47,62543;44,38073;1;0;
15653;-151,3458;-11,97199;11,26625;132,8909;389,7382;60,27973;52,80559;60,30404;1;0;
15672;-33,06506;-12,15345;-16,44013;-224,9573;299,1219;51,4679;44,14308;66,92897;0;0;
15690;-44,99671;-26,71464;-23,74516;-181,7672;224,7764;35,23725;32,33169;67,45718;0;0;
15715;-27,88331;-3,201722;-23,24814;-33,46741;165,6787;24,79213;27,50431;66,1237;0;0;
15733;-30,8704;-4,747344;-26,70525;-66,2605;150,6341;19,35025;21,30516;55,61483;0;0;
15753;-20,03589;-5,691929;-19,30155;-37,90499;37,89583;12,47501;9,184084;44,23768;0;0;
15772;-32,11736;-10,5953;-18,32172;-39,82219;14,50262;4,635858;4,884879;29,32361;0;0;
15788;-28,63549;-19,33217;-72,75041;-21,38303;10,4122;3,367448;6,415663;16,72086;0;0;
15806;-78,85236;-9,861652;42,07878;-32,03665;11,2903;2,795797;13,86395;11,02954;0;0;
15824;-78,85236;-9,861652;42,07878;-32,03665;12,07687;2,622943;21,16795;10,92106;0;0;
15840;-51,90345;-7,174227;-22,05197;-62,41726;13,03559;2,444103;20,74044;12,50931;0;0;
15857;-34,1062;-8,488514;-26,50716;-26,36841;14,33367;2,199295;20,67484;15,75606;0;0;
15875;-84,07906;-9,729252;-24,93808;-20,98063;18,21755;2,005379;20,00662;18,40276;0;0;
15894;-44,69879;-5,251473;-24,82931;-54,14634;21,18553;1,609017;12,13571;17,57605;0;0;
15911;-47,72475;-6,232292;-24,02655;-38,45193;20,63548;1,509648;4,255642;16,63368;0;0;
15927;-7,449068;-4,329749;-24,93316;-38,14697;20,85114;1,541746;1,730752;14,11325;0;0;
15945;6,43295;-4,893623;-23,96703;-36,14064;20,36101;1,550849;1,545686;11,50951;0;0;
15963;6,43295;-4,893623;-23,96703;-36,14064;20,24713;1,60975;1,451133;7,846753;0;0;
15980;-32,16829;-5,006117;-25,83757;-61,97355;14,16702;1,610402;1,499066;7,017549;0;0;
15996;-29,54198;-8,920913;-24,72342;-41,56848;12,31856;1,572729;1,56703;6,559561;0;0;
16015;-34,36072;-6,42737;-29,53198;-70,68912;11,29196;1,614936;1,839402;7,454393;0;0;
16032;-30,15376;-5,596461;-30,86732;-56,44934;8,287279;1,712992;2,097839;10,60041;0;0;
16050;-47,4936;-10,08835;-22,66381;-57,15477;8,08785;1,488537;2,18028;12,1013;0;0;
16067;-28,75358;-5,025907;-26,84385;-37,48393;6,609901;1,744377;2,293787;13,51523;0;0;
16085;-32,76942;-7,6815;-27,411;9,048376;6,529441;1,710674;2,345655;14,0038;0;0;
16102;-32,76942;-7,6815;-27,411;9,048376;6,594178;1,739236;2,226957;15,01653;0;0;
16120;-55,91379;-9,003575;-25,50817;-46,08919;9,374912;1,847068;2,045687;14,69221;0;0;
16139;-30,08888;-2,993439;-23,8093;-42,30976;12,50896;1,798909;1,6822;14,41656;0;0;
16159;-32,80267;-7,035649;-25,95037;-40,72055;9,970766;1,973826;1,749756;13,02841;0;0;
16175;-32,68736;-8,698998;-23,5392;-108,2166;9,486242;1,703507;1,633338;13,36639;0;0;
16195;-31,40284;-8,373569;-25,68014;-11,73014;9,101945;1,595966;1,595438;13,74509;0;0;
16213;-33,24083;-10,12401;-26,4483;-41,24213;6,743434;1,734841;1,469077;9,439776;0;0;
16231;-30,68865;-11,04393;-24,50901;-54,43532;4,271278;1,885552;1,405741;10,0267;0;0;
16250;-31,69757;-8,028424;-24,14397;-43,1539;1,93447;1,856271;1,413849;9,682043;0;0;
16267;-34,2813;-3,87756;-26,31278;-39,92866;1,853926;1,98772;1,479727;8,929653;0;0;
16286;-36,38839;-8,973879;-23,84675;-30,7536;1,693279;2,016767;1,4651;7,35019;0;0;
16303;-36,38839;-8,973879;-23,84675;-30,7536;1,662075;1,949772;1,52603;8,377578;0;0;
16320;-34,29423;-6,059453;-24,95;-82,41456;1,62104;1,948159;1,560335;9,072228;0;0;
16337;-33,41858;-10,36075;-25,83547;-38,87742;1,51988;2,139158;1,48366;7,015436;0;0;
16356;-34,63799;-12,31235;-23,95432;-44,85872;1,830067;2,190224;1,452248;7,494114;0;0;
16375;-32,56467;-7,344553;-22,73918;-28,93827;1,994391;2,139267;1,402439;7,257774;0;0;
16391;-34,06706;-8,582194;-24,86371;-26,34602;1,870159;2,25148;1,498721;7,430815;0;0;
16410;-33,11312;-3,192833;-25,10688;-51,64239;1,796786;2,544802;1,511998;8,587992;0;0;
16427;-37,6798;-9,788388;-25,49978;-53,60216;1,97747;2,284669;1,510357;8,565238;0;0;
16445;-33,86232;-3,251789;-23,61374;-46,41778;1,702508;2,330487;1,585;10,31315;0;0;
16462;-33,86232;-3,251789;-23,61374;-46,41778;1,480958;2,194201;1,746909;11,50331;0;0;
16479;-31,99519;-9,984842;-25,33811;-37,64199;1,492891;2,24116;1,672381;12,02277;0;0;
16496;-37,57888;-7,185633;-24,70672;-47,39122;1,519498;2,656742;1,654469;10,16109;0;0;
16514;-36,22967;-8,038279;-22,4976;-32,93549;1,465976;2,556347;1,698278;9,572934;0;0;
16530;-32,29007;-6,671169;-23,25766;-59,5815;1,407907;2,296527;1,72639;8,611088;0;0;
16550;-36,42678;-8,642543;-23,43877;-29,82623;1,376439;2,165454;1,624142;9,591595;0;0;
16568;-34,21887;-6,061488;-25,37974;-39,86731;1,349248;2,084224;1,610243;10,12047;0;0;
16585;-35,23573;-6,99538;-23,76725;-36,802;1,372261;1,991641;1,625646;9,636748;0;0;
16604;-35,23573;-6,99538;-23,76725;-36,802;1,422119;1,798414;1,781036;9,685638;0;0;
16621;-34,43347;-7,23274;-25,75204;-46,69911;1,311519;1,736317;1,610474;10,27274;0;0;
16639;-31,08878;-8,037191;-24,3722;-33,26147;1,482006;1,712775;1,558621;8,363137;0;0;
16656;-33,63557;-7,398175;-30,59318;-64,93268;1,609214;1,763895;1,637941;6,677257;0;0;
16674;-31,74254;-11,16334;-20,8491;-40,98469;1,615327;1,705322;1,646989;6,245665;0;0;
16691;-34,13559;-8,088088;-29,53956;-23,70963;1,633452;1,665435;1,63027;7,565613;0;0;
16709;-35,43628;-7,041923;-20,31791;2,750637;1,617036;1,521329;1,689073;8,41063;0;0;
16726;-34,14437;-7,783065;-23,24215;-108,0714;1,550368;1,528901;1,75614;9,143156;0;0;
16743;-34,14437;-7,783065;-23,24215;-108,0714;1,356181;1,685569;1,90383;10,53727;0;0;
16758;-34,26205;-8,018683;-23,97302;-39,05183;1,324903;1,649838;1,77325;9,544812;0;0;
16775;-33,94065;-7,660679;-23,49076;-43,72508;1,335295;1,705929;1,59168;9,92844;0;0;
16796;-35,63775;-8,202532;-22,61001;-39,00311;1,336628;1,878662;1,62212;8,882496;0;0;
16815;-37,56168;-3,46132;-26,82816;-45,66507;1,541345;2,011459;1,447639;7,853589;0;0;
16833;-36,32896;-9,735027;-30,12662;-54,48956;1,4876;1,828817;1,465832;6,713657;0;0;
16853;-35,69595;-8,47856;-26,35047;-41,02964;1,441433;1,770457;1,42294;5,451363;0;0;
16872;-32,92655;-5,373066;-21,8088;-45,89093;1,336501;1,716781;1,426666;5,315604;0;0;
16892;-37,67772;-9,986635;-24,87427;-38,0472;1,356071;1,681863;1,356817;4,424598;0;0;
16910;-30,33707;-3,003205;-23,05553;-41,96761;1,599981;1,860268;1,429359;5,144558;0;0;
16927;-33,84621;-11,07438;-24,79025;-61,80315;1,601225;2,027088;1,431281;5,552905;0;0;
16945;-35,08102;-7,571257;-26,22513;-37,41594;1,696426;2,034498;1,33521;4,194887;0;0;
16961;-35,08102;-7,571257;-26,22513;-37,41594;1,741592;2,044536;1,306507;4,148074;0;0;
16979;-32,56719;-8,125758;-25,55797;-32,83335;1,713166;1,927425;1,348107;4,926213;0;0;
16996;-32,88474;-7,557311;-27,82263;-18,09583;1,651815;2,0258;1,371285;5,731433;0;0;
17016;-36,41762;-12,39715;-24,44463;-46,24151;1,467854;1,952829;1,372738;5,580427;0;0;
17034;-36,67276;-12,53067;-23,17339;-40,24758;1,414126;1,86515;1,474766;6,469768;0;0;
17053;-31,99111;-7,648214;-23,52576;-33,04343;1,386177;1,927694;1,398233;8,093918;0;0;
17070;-38,19115;-4,727241;-21,8145;-44,49499;1,545909;1,946747;1,321434;8,101658;0;0;
17087;-35,25986;-8,405703;-26,14316;-42,52739;1,576799;1,805417;1,298212;7,736064;0;0;
17103;-35,25986;-8,405703;-26,14316;-42,52739;1,593833;1,63322;1,226;6,748487;0;0;
17120;-35,24395;-10,70269;-23,39871;-52,43951;1,662471;1,548991;1,262772;6,880924;0;0;
17136;-34,89703;-10,83341;-25,0788;-31,24663;1,62126;1,423042;1,252492;6,849777;0;0;
17155;-35,25347;-6,857186;-24,26641;-39,29599;1,511744;1,328817;1,256177;5,23871;0;0;
17174;-30,35838;-9,225236;-24,689;-33,91504;1,537896;1,413789;1,259742;5,723222;0;0;
17190;-32,23358;-6,15513;-24,3238;-43,06699;1,821367;1,652252;1,222539;5,193344;0;0;
17208;-31,42142;-14,46232;-25,06215;-35,77687;1,841398;1,691425;1,189256;4,777088;0;0;
17227;-36,91035;-3,38316;-25,35327;-41,97734;1,801607;2,090782;1,204734;3,503035;0;0;
17244;-35,60121;-3,487959;-21,81867;-39,85771;1,770532;2,334712;1,228182;2,991096;0;0;
17261;-35,60121;-3,487959;-21,81867;-39,85771;1,672337;2,540743;1,236732;2,843297;0;0;
17277;-75,89882;-55,7616;-18,92866;-33,33074;3,560948;3,612361;1,371403;2,531454;0;0;
17294;-34,27362;35,84173;-25,54454;-36,61236;5,872764;6,304956;1,499812;2,585723;1;0;
17311;-69,79194;-24,61712;-21,08636;-43,71871;10,75864;11,76957;1,555297;2,818109;1;0;
17329;-12,93194;-23,33485;-25,60787;-32,61195;28,03307;22,27195;1,627045;3,139121;1;0;
17346;-689,4726;68,88067;-24,25147;-43,25185;84,42399;36,1264;1,713518;3,365043;1;0;
17363;-689,4726;68,88067;-24,25147;-43,25185;140,3251;49,91407;1,807275;3,549875;1;0;
17380;980,2608;-8,338354;-22,54349;-40,63635;237,3012;59,27978;1,672189;3,262021;1;0;
17397;-155,3442;0,3399238;-26,33816;-40,2154;354,8149;64,15054;1,910382;4,019394;1;0;
17418;-212,8445;-18,2579;-45,01085;-13,6908;396,3619;67,29117;2,947319;5,573891;1;0;
17437;-449,5786;69,50617;-86,59298;-69,57825;423,4004;62,45949;8,380404;9,841333;1;0;
17455;-293,1136;64,61887;125,0152;-57,95299;442,628;61,09418;16,71148;11,51263;1;0;
17473;-80,18898;-18,53632;-87,51336;-49,06482;370,1867;48,22751;35,31781;19,71013;1;0;
17490;32,84573;23,86074;-44,31372;-51,05159;278,527;46,47216;43,91283;29,67593;1;0;
17509;-39,53176;-13,38133;-14,14644;3,639562;180,8831;32,89095;53,9542;36,02914;1;0;
17529;-34,55448;-4,370114;45,78403;-26,98795;148,4054;27,08887;60,89119;41,44761;0;0;
17550;-30,85888;-7,295586;-24,29019;-6,61441;101,9838;17,15626;56,58577;42,31389;0;0;
17573;-34,82016;-7,426155;-41,38818;-67,76221;39,15527;8,635345;47,41293;39,74257;0;0;
17589;-37,07083;-10,90455;-22,78299;-41,00365;18,32421;6,180147;33,01536;29,074;0;0;
17606;-22,97066;-6,297956;-21,45422;-35,97633;5,142173;2,671679;25,0007;22,14863;0;0;
17623;-22,97066;-6,297956;-21,45422;-35,97633;6,010745;2,406666;12,40199;14,3068;0;0;
17641;42,15527;-5,162774;-30,31602;-72,13717;20,32438;2,435237;6,024626;9,126115;0;0;
17659;-91,89117;-5,954648;-23,65372;-25,71842;27,34163;2,213971;2,912878;7,186885;0;0;
17679;-43,39183;-7,489949;-26,60278;-41,33952;31,99885;1,9625;1,921835;6,239697;0;0;
17698;-67,85862;-6,078923;-18,70185;-49,00865;35,33565;1,689897;8,043333;6,753884;0;0;
17716;-58,46175;-7,046842;-33,64404;-25,02153;40,02969;1,556569;10,28163;6,734241;0;0;
17736;-36,50183;-5,104831;-20,85922;-35,34059;34,1866;1,621994;10,63456;7,746225;0;0;
17756;-33,73907;-8,996044;-23,21201;-29,08114;21,29785;1,573343;10,31078;6,679714;0;0;
17775;-5,390079;-7,414908;-24,34991;-39,37477;17,79385;1,552768;10,26311;5,971798;0;0;
17792;-48,43948;-13,16356;-27,80027;-44,80629;16,18653;1,681372;9,102237;6,884171;0;0;
17810;-52,28474;-7,427408;-22,64617;-38,47401;14,86282;1,867557;2,920742;6,579648;0;0;
17829;-27,76065;-11,93047;-26,64424;-36,79168;11,77141;1,692195;1,763084;5,418094;0;0;
17849;-31,56364;-8,097419;-24,25733;-48,67642;12,12891;1,753221;1,531303;4,585733;0;0;
17867;-25,71855;-6,173033;-22,07018;-47,30595;10,09341;1,918884;1,732667;5,199953;0;0;
17888;-44,29046;-7,912559;-22,44069;-46,22938;7,694119;2,202596;1,652324;5,065842;0;0;
17906;-33,50467;-8,030725;-21,15874;-37,18524;6,384988;2,045427;1,55764;4,54233;0;0;
17922;-33,50467;-8,030725;-21,15874;-37,18524;5,242239;1,764025;1,471537;4,44064;0;0;
17939;-45,72483;-7,767971;-24,08867;-39,90993;7,837725;1,891963;1,488731;4,698608;0;0;
17958;-32,42887;-12,41317;-26,82646;-40,687;8,316104;1,914331;1,450182;4,028765;0;0;
17978;-29,28098;-7,602656;-23,69149;-50,21658;7,932436;2,081728;1,276582;3,950215;0;0;
17995;-34,54227;-8,251745;-27,08631;-44,04772;6,627071;2,210505;1,444471;3,781549;0;0;
18013;-32,92084;-3,805469;-25,14543;-38,41184;6,01608;2,249141;1,531117;3,72585;0;0;
18031;-35,48183;-8,753931;-26,50383;-40,57427;3,894037;2,253714;1,575564;3,254272;0;0;
18050;-32,80348;-8,574533;-22,66655;-39,72324;2,054897;2,552483;1,513492;3,173089;0;0;
18066;-31,52874;-8,746047;-23,16769;-40,80496;1,944758;2,031161;1,475748;3,501133;0;0;
18090;-33,77593;-9,738315;-25,44456;-53,99606;1,513831;2,039456;1,515017;2,765692;0;0;
18107;-32,20179;-5,700899;-25,85413;-35,76372;1,433945;2,048225;1,398502;3,25515;0;0;
18125;-35,22469;-10,74657;-25,34605;-35,57095;1,581413;2,095464;1,306958;2,934366;0;0;
18145;-34,90102;-5,037287;-22,65237;-43,92961;1,922074;2,125513;1,420756;4,13587;0;0;
18164;-34,90102;-5,037287;-22,65237;-43,92961;2,15414;2,080623;1,688827;5,06125;0;0;
18182;-31,57088;-6,921684;-22,29185;-38,62371;2,37555;1,858413;1,721958;5,699938;0;0;
18199;-33,78866;-11,46744;-25,51365;-35,5075;2,357497;1,852947;1,755163;5,588083;0;0;
18218;-33,52942;-8,638065;-24,76073;-40,58532;2,191179;1,669183;1,819877;5,610346;0;0;
18237;-35,86975;-6,423174;-27,79346;-42,95144;1,946214;1,681063;1,786519;7,083188;0;0;
18254;-35,98737;-12,41377;-20,97739;-40,16228;1,732998;1,738116;1,733081;6,483188;0;0;
18272;-32,69771;-4,720914;-23,89782;-38,92249;1,40823;1,719731;1,64989;5,00614;0;0;
18290;-35,74512;-9,992472;-28,82494;-36,94357;1,336749;1,734823;1,577047;5,505414;0;0;
18307;-34,87072;-9,171386;-26,56618;-32,40762;1,396999;2,055845;1,606252;5,409672;0;0;
18326;-35,62096;-9,117077;-28,41613;-33,46406;1,378013;2,307995;1,699691;5,443933;0;0;
18343;-35,62096;-9,117077;-28,41613;-33,46406;1,32935;2,531606;1,707831;4,462593;0;0;
18361;-32,02802;-8,889462;-28,39924;-41,30735;1,372973;2,597807;1,55235;3,678414;0;0;
18379;-33,04471;-3,025179;-23,45173;-40,22726;1,503232;2,719139;1,83237;3,411714;0;0;
18398;-32,10671;-10,81114;-22,40396;-42,05153;1,644645;3,020648;1,982901;4,018305;0;0;
18414;-33,52528;-4,704865;-27,1628;-37,57688;1,797445;2,791367;1,915798;3,461776;0;0;
18433;-36,2057;-6,904943;-24,1638;-45,42446;1,963118;2,477284;1,807758;4,659173;0;0;
18453;-32,59275;-11,07518;-24,48406;-38,10212;1,988888;2,104172;1,68774;4,693941;0;0;
18470;-36,03773;-4,941927;-23,33759;-38,57045;1,826144;2,169399;1,477138;5,169338;0;0;
18486;-35,04428;-10,27267;-25,13323;-40,43562;1,685303;2,355492;1,391357;4,726754;0;0;
18503;-35,04428;-10,27267;-25,13323;-40,43562;1,835024;2,354104;1,343611;4,21278;0;0;
18520;-35,05107;-8,623051;-23,15755;-37,54132;1,631951;2,214611;1,275956;3,925366;0;0;
18538;-37,71596;-4,172128;-25,03834;-40,35388;1,594968;2,186713;1,18104;2,548081;0;0;
18557;-37,2928;-11,20571;-24,48781;-17,60912;1,64292;2,271582;1,181998;3,399677;0;0;
18574;-35,76161;-6,890728;-24,87847;-39,17066;1,732629;1,917422;1,145955;3,094261;0;0;
18590;-34,03808;-7,738126;-23,3362;-40,29176;1,535553;1,5056;1,037137;4,267884;0;0;
18609;-34,07674;-3,874993;-26,84766;-39,25879;1,497429;1,618971;1,055475;4,636031;0;0;
18626;-33,3997;-6,710591;-24,50119;-44,04409;1,461937;1,688147;1,051848;4,500727;0;0;
18646;-37,74424;-5,704832;-24,38982;-51,00866;1,589368;1,665338;1,077104;4,712626;0;0;
18662;-37,74424;-5,704832;-24,38982;-51,00866;1,595573;1,871604;1,045016;3,671021;0;0;
18680;-36,55206;-8,89744;-24,34313;-42,5946;1,60983;1,844386;1,165073;2,9431;0;0;
18696;-35,60087;-10,9997;-25,89776;-35,01868;1,525016;1,832725;1,188589;3,064756;0;0;
18715;-31,94016;-12,43615;-22,52459;-42,23845;1,56045;1,754205;1,295238;3,815617;0;0;
18732;-33,0372;-5,193845;-28,14793;-41,87407;1,515438;1,804236;1,484981;4,011077;0;0;
18750;-34,89745;-6,920037;-23,39347;-44,40843;1,28182;1,595677;1,524662;3,967407;0;0;
18766;-34,51622;-6,183427;-26,26753;-40,11206;1,272941;1,647893;1,541471;4,452213;0;0;
18782;-34,51622;-6,183427;-26,26753;-40,11206;1,291839;1,83847;1,658955;4,510826;0;0;
18798;-34,74154;-10,09443;-25,41201;-34,71885;1,616121;1,77218;1,52393;3,88932;0;0;
18816;-31,57378;-8,525422;-24,87015;-36,17368;1,650148;1,550974;1,384721;4,62119;0;0;
18835;-34,4288;-9,598166;-23,21903;-36,23847;1,602315;1,618212;1,388672;5,441604;0;0;
18852;-33,64325;-8,0351;-24,03006;-37,90745;1,62162;1,660236;1,420265;5,920023;0;0;
18868;-34,44636;-4,701478;-26,81448;-38,84612;1,507769;1,681585;1,260004;5,70961;0;0;
18890;-35,27132;-8,949288;-23,78234;-52,50748;1,289487;1,682096;1,066282;5,282367;0;0;
18907;-35,24142;-6,565367;-23,51534;-19,14831;1,211763;1,862909;1,182118;5,646904;0;0;
18929;-32,78835;-8,029315;-24,25119;-45,50682;1,152088;1,952295;1,277537;5,801255;0;0;
18946;-32,15042;-6,074068;-24,50261;-33,29226;1,232607;1,844408;1,356104;5,53883;0;0;
18962;-32,15042;-6,074068;-24,50261;-33,29226;1,345948;1,778591;1,467053;4,92992;0;0;
18980;-31,08467;-2,998226;-16,77898;-33,20491;1,391149;1,772844;1,712456;5,265294;0;0;
18996;-29,69427;-10,451;-27,56699;-33,89062;1,514876;1,934441;1,899563;5,102902;0;0;
19014;-34,61994;-7,217753;-28,24623;-63,99734;1,453661;1,594113;1,855716;4,280194;0;0;
19030;-33,50803;-5,946213;-24,98832;-43,73837;1,723299;1,699857;1,820485;4,495873;0;0;
19048;-35,94465;-9,755992;-23,49205;-33,53703;1,587948;1,894047;1,641463;4,572401;0;0;
19065;-33,90782;-8,878832;-25,84854;-33,06073;1,523733;1,869383;1,647241;4,960835;0;0;
19083;-33,90782;-8,878832;-25,84854;-33,06073;1,469205;1,56485;1,320551;5,463943;0;0;
19102;-36,8741;-7,407305;-23,53561;-43,97125;1,466419;1,634392;1,469948;4,924207;0;0;
19118;-33,90097;-11,28446;-22,79743;-33,04596;1,276284;1,674161;1,535224;4,411328;0;0;
19137;-33,90085;-5,697489;-21,95126;-42,7652;1,186611;1,921617;1,553971;4,446012;0;0;
19155;-28,79158;-7,231855;-25,17703;-38,07696;1,402212;1,953956;1,542018;4,215652;0;0;
19172;-35,9857;-8,40833;-23,94335;-39,3497;1,754147;2,224539;1,530054;3,709199;0;0;
19188;-59,33108;-34,85727;-25,73674;-42,66676;2,659519;3,007789;1,604819;4,478096;0;1;
19206;-50,41957;-44,2695;-26,13012;-52,08649;19,31948;11,16398;1,421279;5,660262;0;1;
19222;-50,41957;-44,2695;-26,13012;-52,08649;36,07864;19,25161;1,428709;6,287596;0;1;
19239;144,738;-202,0101;-22,794;-43,45612;97,81866;28,25156;1,379448;6,845325;0;1;
19259;101,538;-14,86061;-24,9882;-41,68454;125,2023;42,17805;1,52427;8,381073;0;1;
19278;-105,282;-97,90211;-21,03995;-58,6321;150,5534;48,01533;2,004953;11,33403;0;1;
19298;158,3853;-14,51684;-20,67525;-68,45887;157,1884;54,55231;2,466175;14,91442;0;1;
19316;-51,34396;-7,897244;-64,7327;15,7486;143,4487;47,08035;3,662225;32,5432;0;1;
19334;-33,77901;-5,329032;-32,30761;-65,74723;87,95985;41,67704;6,415177;68,10633;0;1;
19353;-54,48848;-5,969233;-26,38321;64,00296;65,3345;28,86554;7,594639;93,51311;0;0;
19371;-33,55159;-20,94095;-5,711149;-81,97586;45,20839;19,60555;9,649593;121,1442;0;0;
19395;-32,08915;-17,32971;1,015327;153,3974;21,36468;7,533909;11,11373;145,5904;0;0;
19416;-40,85686;-3,612224;-18,72626;181,9545;7,922049;4,875133;12,76768;169,715;0;0;
19434;-48,00217;-1,98142;-7,531334;171,5969;6,384533;4,700053;11,59328;159,9946;0;0;
19455;21,15431;-8,284874;-28,63554;-25,61458;8,16362;4,233145;10,9589;146,3476;0;0;
19473;-58,8281;-7,850886;-10,48753;7,313859;11,15729;3,757373;10,47407;137,5966;0;0;
19490;-31,53891;-5,614971;-23,81453;-37,66195;13,86692;3,397448;8,860916;102,2866;0;0;
19508;-25,00817;-9,744386;-28,52099;-38,05101;15,12059;3,254281;6,942226;78,85589;0;0;
19524;-37,32886;-6,707776;-24,10895;-40,89145;15,59506;2,993095;5,37839;50,77241;0;0;
19543;-37,32886;-6,707776;-24,10895;-40,89145;15,31238;2,817749;4,257874;29,78969;0;0;
19562;-55,04711;-5,831213;-29,91849;-114,8522;13,2521;2,840492;3,108389;12,85648;0;0;
19580;-34,89984;-5,351412;-25,72662;-16,04336;11,12024;3,03495;2,559711;19,37322;0;0;
19596;-32,65929;-5,695364;-22,81576;-22,69635;10,092;3,0637;2,535422;28,76877;0;0;
19614;-24,99558;-5,369565;-23,5336;-37,57368;9,578711;3,047064;2,480275;28,58622;0;0;
19631;-16,98064;-5,058207;-24,19011;-48,3265;9,872368;3,088014;2,52779;31,17509;0;0;
19649;-48,15745;-4,754185;-22,77517;-42,02555;9,016972;2,830147;2,497263;30,1412;0;0;
19665;-6,458375;-8,037636;-21,16945;-20,56826;6,849161;2,521054;2,295991;27,05597;0;0;
19685;-51,97035;-9,426638;-33,54624;-54,71619;9,717402;1,963024;2,603377;20,57814;0;0;
19700;-51,97035;-9,426638;-33,54624;-54,71619;12,78698;1,67941;3,046296;17,52798;0;0;
19716;-30,37949;-6,558414;-30,25621;-44,78719;12,08994;1,843142;2,998113;17,13559;0;0;
19735;-32,90567;-8,380185;-24,69506;-138,0867;10,91489;1,680233;2,789008;18,89391;0;0;
19754;-34,39474;-8,972381;-25,765;-21,33846;9,382783;1,662791;2,864375;20,15755;0;0;
19771;-32,53952;-2,275341;-21,44602;-63,87672;7,476316;1,802177;2,954781;21,10666;0;0;
19787;-30,21353;-9,816545;-26,0699;-37,78221;4,203652;1,960988;2,55349;19,72904;0;0;
19803;-30,21353;-9,816545;-26,0699;-37,78221;2,280614;2,145948;2,125066;20,77204;0;0;
19821;-32,32077;-6,466893;-26,33862;-85,8786;2,415676;2,250719;2,175141;19,95338;0;0;
19838;-36,29147;-10,63783;-17,28192;-58,95512;2,170455;2,223063;2,4286;18,50556;0;0;
19855;-33,93053;-9,013577;-37,9111;-65,10272;2,459296;2,146953;3,502794;21,47079;0;0;
19898;-22,34634;-43,25306;-71,15896;-21,36727;3,747838;2,985076;5,011482;20,62507;0;0;
19916;-56,19666;8,576047;-47,32609;14,12371;7,03657;7,946855;9,680411;22,14095;1;0;
19934;-54,18537;-25,58174;-122,9789;-62,17347;11,27407;16,22108;13,44308;23,47393;1;0;
19954;-240,3816;-38,42088;125,5663;50,45447;23,04148;28,06057;35,16119;27,42285;1;0;
19973;252,0238;57,91124;-121,4307;-120,7412;112,005;44,15223;51,77863;34,80407;1;0;
19992;1477,03;15,47488;-14,96141;22,48478;231,4015;69,32559;64,12687;43,67732;0;0;
20012;-546,4371;48,68322;-192,2808;-20,09613;290,6349;80,61774;71,41492;56,71088;0;0;
20032;-111,6288;47,00013;121,3385;-46,52508;354,8185;95,36446;81,4442;68,64189;0;0;
20053;221,5203;112,5146;6,266861;41,72392;404,8166;94,09865;80,56043;70,36627;0;0;
20072;-106,9939;-31,75876;5,738793;-46,4981;408,3308;94,92043;61,16568;65,94456;0;0;
20096;-94,99905;-7,620602;-20,14806;-43,78872;343,0363;81,22511;41,90022;54,37917;0;0;
20113;-74,5767;-11,49097;-26,19447;-89,2654;211,5099;59,90013;37,67802;42,97635;0;0;
20132;-38,28196;-7,069479;-28,4699;-120,6084;141,5338;42,51237;26,32239;29,76975;0;0;
20151;-32,22509;-5,333924;-13,62826;-42,66927;103,4507;30,85371;9,822937;22,10408;0;0;
20170;-35,44046;-16,15235;-58,80307;-33,76545;33,08811;12,13352;6,233369;18,5333;0;0;
20187;-42,09052;-8,031592;-60,9557;-40,8689;19,26768;7,724104;7,757822;17,54404;0;0;
20204;-10,69988;-5,83242;-36,15713;-42,32157;12,1256;4,387614;11,06102;17,44805;0;0;
20223;-10,69988;-5,83242;-36,15713;-42,32157;10,27624;3,433194;14,04154;14,54815;0;0;
20243;-101,2263;-7,254664;-17,00264;72,14631;14,27123;2,536234;14,08981;13,18961;0;0;
20261;-49,08182;-6,513932;3,429936;-39,09579;21,58095;2,804348;15,12027;11,93332;0;0;
20278;-63,96404;-6,186055;-14,78106;-43,87384;24,74766;2,487568;15,22915;9,93168;0;0;
20297;0,3216711;-6,799936;-20,83341;-29,74396;26,39423;2,780457;13,83899;10,85312;0;0;
20315;-70,38831;-6,552508;-24,37562;-80,58558;30,94938;2,585072;10,44703;12,31165;0;0;
20335;-45,65926;-7,776661;-27,1729;-45,4956;31,18242;2,27441;8,546425;13,53365;0;0;
20353;-41,82219;-2,045536;-28,59132;-50,09883;22,83852;2,614587;7,787478;12,33148;0;0;
20373;-9,37687;-7,474842;-27,7485;-33,86818;20,01014;2,620268;6,154078;12,85121;0;0;
20391;1,145737;-5,776237;-26,06648;-34,20185;18,14626;2,518437;2,753627;12,02899;0;0;
20409;-52,15311;-10,70811;-19,14729;-38,29619;17,93501;2,420933;2,025957;11,04382;0;0;
20428;-40,16954;-10,09894;-26,15672;-18,59708;13,95664;2,470674;2,37246;11,08836;0;0;
20444;-32,11848;-8,118607;-31,31522;-86,34834;12,27929;2,30684;2,474679;9,877422;0;0;
20462;-32,11848;-8,118607;-31,31522;-86,34834;11,18144;1,843139;2,573241;10,80526;0;0;
20479;-56,7477;-7,040889;-23,40202;-21,27575;10,94019;1,923059;2,374135;11,57277;0;0;
20499;-36,70755;-8,578302;-25,01228;-47,10032;10,95073;1,719188;2,525803;12,92146;0;0;
20516;-52,53309;-4,711346;-23,93343;-1,243707;9,303898;1,71592;2,371331;16,26907;0;0;
20535;-41,7324;-7,579503;-20,55519;-64,14847;10,61692;1,896048;2,145477;16,43319;0;0;
20554;-32,54501;-8,588689;-28,60254;-26,79725;10,79193;1,847398;2,318619;16,35227;0;0;
20572;-31,58153;-10,5752;-25,70927;-49,82215;9,154938;1,745079;2,14748;17,21511;0;0;
20589;-31,76571;-7,915352;-24,48474;-8,631316;6,705091;1,688572;2,261549;19,50727;0;0;
20608;-34,03344;-4,996518;-32,68165;-43,51908;5,558347;1,719038;2,520947;19,21384;0;0;
20628;-35,47453;-9,429841;-19,15767;-43,84784;3,211261;1,584168;2,789759;15,45756;0;0;
20645;-34,89708;-6,865298;-24,14013;-46,11149;1,965386;1,50691;3,023977;13,96683;0;0;
20664;-32,57816;-7,576008;-24,87533;-38,12423;2,093097;1,701626;2,612741;11,17145;0;0;
20682;-32,57816;-7,576008;-24,87533;-38,12423;2,083812;1,841818;2,549029;8,946568;0;0;
20700;-28,06913;-9,249386;-26,72034;-30,11048;2,120426;1,950536;2,517367;5,357636;0;0;
20722;-30,94724;-6,24098;-31,11864;-58,06527;2,428279;1,857024;2,250125;5,842016;0;0;
20739;-35,23597;-5,974051;-25,37868;-38,88195;2,513771;2,037729;1,892286;6,311866;0;0;
20758;-37,14125;-14,39237;-23,66117;30,91772;2,536081;2,172847;1,905879;8,236016;0;0;
20777;-34,47476;-2,22959;-26,01237;-45,99268;2,391559;2,279868;1,931594;8,031529;0;0;
20794;-32,77134;-5,634003;-23,48438;-36,37957;2,264798;2,302694;1,877072;8,112711;0;0;
20815;-34,45;-6,604409;-22,76817;-39,95469;1,813482;2,280171;1,832469;8,62381;0;0;
20831;-37,30219;-3,742709;-25,39217;-43,51146;1,469179;2,114755;1,463539;7,765254;0;0;
20848;-34,36191;-7,739114;-26,82499;-38,94271;1,739952;2,18803;1,440333;8,927214;0;0;
20866;-35,2558;-8,416359;-24,72306;-32,67946;1,662945;2,071082;1,428741;7,486428;0;0;
20884;-34,97311;-4,356848;-23,39859;-34,37526;1,470271;1,884238;1,405045;8,077788;0;0;
20900;-34,97311;-4,356848;-23,39859;-34,37526;1,415868;1,788847;1,410008;7,785344;0;0;
20918;-30,29308;-4,077392;-23,04108;-28,92884;1,534535;2,031459;1,349552;8,649805;0;0;
20938;-33,71829;-6,43929;-21,85045;-40,08954;1,2112;2,087921;1,650034;7,398458;0;0;
20956;-31,56651;-7,678477;-23,79071;-20,52549;1,203705;1,872548;1,669933;8,5562;0;0;
20976;-35,36368;-4,873021;-24,86069;-59,29964;1,280601;2,082663;1,804241;8,809515;0;0;
20994;-31,4474;-6,307106;-28,68795;-57,72679;1,309838;2,280475;2,000463;9,535598;0;0;
21014;-35,98746;-9,436303;-27,06881;-43,26254;1,385198;2,112372;2,020465;9,933376;0;0;
21032;-35,90638;-10,00961;-25,72577;-42,7536;1,560936;1,859163;1,905924;7,729633;0;0;
21051;-32,82671;-5,697853;-23,70471;-34,44024;1,546735;1,958048;1,727018;7,61931;0;0;
21068;-37,94806;-8,812878;-23,77414;-30,13988;1,690824;1,983027;1,899564;6,842628;0;0;
21086;-34,55955;-9,23965;-28,0007;-41,65073;1,984653;1,924934;1,749987;5,948854;1;0;
21104;-33,27381;-8,921565;-24,49405;-40,37504;1,972405;1,787559;1,613392;5,276262;1;0;
21121;-33,27381;-8,921565;-24,49405;-40,37504;1,739402;1,848515;1,621313;5,806638;1;0;
21140;-31,56205;-7,32525;-25,6656;-46,49368;2,857069;2,647228;1,644281;5,793886;1;0;
21159;-74,01465;-55,16372;-22,81946;-37,36349;9,707096;9,275541;1,54578;5,79454;1;0;
21175;-601,6085;-78,78121;-26,46583;-41,79705;47,67933;21,98384;1,406868;5,651783;1;0;
21193;-28,69811;-1,940975;-27,44894;-45,21199;141,6477;38,98642;1,234654;5,818186;1;0;
21211;-1141,577;41,90351;-23,40994;-25,89189;174,1638;53,75234;1,210621;5,727983;1;0;
21230;264,5357;-7,248581;-27,20947;-45,68388;304,2343;74,66231;1,287008;6,22675;1;0;
21248;-142,1646;-95,37696;-14,66626;-17,64112;341,7393;77,52268;1,638247;7,156773;1;0;
21268;-152,8262;-81,80053;-30,32705;-28,95321;383,2856;85,91544;2,153409;8,567176;1;0;
21286;-843,0916;-70,51218;-30,22146;-49,82325;445,3031;85,10771;5,362805;10,07359;1;0;
21305;-107,356;-317,6933;15,73424;-24,55757;417,6184;96,67966;10,89297;15,8006;1;0;
21326;-24,73008;201,6339;-25,92238;-68,85735;311,3831;89,10554;15,76521;26,78195;1;0;
21344;-41,50076;-50,34178;103,7086;-94,3296;242,2639;100,2454;23,11991;38,57854;1;0;
21365;-28,78632;65,16321;-18,47097;37,82863;180,2749;88,67432;26,84761;51,23856;1;0;
21385;-28,75166;-1,386603;33,31242;-97,10712;156,5719;82,22118;30,05179;57,55665;1;0;
21401;-28,75166;-1,386603;33,31242;-97,10712;20,30493;65,16987;32,38367;61,65001;1;0;
21418;-37,3706;-8,407184;-10,01663;-26,5754;10,2205;43,07883;31,37295;64,75584;1;0;
21434;-2,863601;-9,780861;-27,38801;-0,6318355;10,74106;21,40187;24,43652;56,31598;0;0;
21453;-56,15857;-23,75894;-21,7049;-47,48963;14,59778;10,65185;17,1221;45,70898;0;0;
21470;65,49732;-0,9912177;-24,69194;-39,28893;28,91165;5,994359;14,04286;35,66066;0;0;
21488;-65,05248;-6,238665;-26,00121;-45,21104;38,62445;3,053051;9,373125;28,84666;0;0;
21507;31,40813;-10,34352;21,90857;-53,61396;41,10167;2,153013;6,362598;22,61302;0;0;
21526;-58,68256;-7,070079;18,43645;-35,48032;47,04239;2,337589;8,941831;15,15839;0;0;
21548;-39,59537;-6,228261;-29,67194;-54,07398;46,56874;2,303395;12,34959;12,20927;0;0;
21565;-23,84365;-3,886771;-27,31133;-39,14326;38,18265;1,82614;12,55529;11,23217;0;0;
21582;-23,84365;-3,886771;-27,31133;-39,14326;22,00207;1,908328;12,53953;11,37628;0;0;
21598;-2,178064;-10,60862;-28,86892;-58,54873;19,73855;1,966461;12,14431;11,48642;0;0;
21616;-54,58607;-4,338079;-24,98347;-32,796;13,56765;1,850329;9,185171;13,71194;0;0;
21634;-44,62637;-6,682685;-25,82944;-61,49281;12,66053;1,890808;4,535668;14,35127;0;0;
21651;-31,41811;-11,94231;-24,13272;-32,90921;12,05573;1,997481;2,867122;14,31187;0;0;
21669;-26,48767;-4,074179;-29,04978;-36,24347;13,63264;2,006701;2,633496;13,88465;0;0;
21687;-48,60712;-8,423324;-26,47239;-37,92631;14,45957;1,922409;2,320206;13,45625;0;0;
21705;-16,0016;-11,19507;-24,82108;-40,8976;12,16469;1,830589;2,088213;10,83893;0;0;
21721;-16,0016;-11,19507;-24,82108;-40,8976;12,40388;1,8578;1,640772;4,034235;0;0;
21737;-32,55987;-7,912919;-25,49588;-47,9988;11,24181;1,882527;1,583687;3,632028;0;0;
21757;-30,24191;-9,351374;-26,08724;-33,76643;10,81795;1,754717;1,605189;4,688219;0;0;
21774;-30,24191;-9,351374;-26,08724;-33,76643;8,960196;1,609563;1,447047;6,178097;0;0;
21791;-33,23453;-5,713063;-28,00232;-44,22665;7,106086;1,534519;1,593995;7,036551;0;0;
21809;-33,59281;-8,466679;-25,17218;-53,6714;4,45806;1,717562;1,584592;8,335703;0;0;
21827;-33,42635;-9,969518;-25,85162;-35,97941;2,132226;1,94043;1,57085;8,155774;0;0;
21844;-33,42635;-9,969518;-25,85162;-35,97941;2,080703;2,234695;1,614689;6,66224;0;0;
21862;-35,43629;-7,049998;-26,19913;-42,17817;1,781112;2,315702;1,575268;6,220324;0;0;
21882;-33,26037;-12,29127;-23,51841;-33,2469;1,644986;2,446238;1,424277;5,764538;0;0;
21900;-37,57989;-14,2337;-23,98649;-40,88226;1,450611;2,40704;1,303368;4,896999;0;0;
21917;-31,2296;-7,432539;-24,93905;-37,65012;1,503489;2,348121;2,051482;3,79251;0;0;
21933;-34,25787;-9,817732;-25,17817;-36,56338;1,657933;2,158488;1,995257;3,618652;0;0;
21952;-33,24102;-10,10463;-25,6231;-37,45826;1,750267;2,191479;2,063471;2,481891;0;0;
21970;-33,95543;-3,470695;-29,99711;-50,15995;1,618621;2,503871;2,225613;2,265834;0;0;
21989;-35,18105;-10,10652;-27,19614;-56,47467;1,619699;2,398301;2,723914;2,628354;0;0;
22015;-37,23093;-8,944319;-22,62313;-30,89753;1,926882;2,392717;2,28669;5,992918;0;0;
22033;-33,20728;-6,223205;-22,79997;-36,90704;2,029595;2,341839;2,096661;6,096938;0;0;
22050;-32,82726;-7,970258;-22,53837;-38,78501;2,129147;2,279766;2,278676;6,065817;0;0;
22068;-31,25838;-11,09008;-22,91203;-35,4511;2,383013;2,3402;2,068719;6,941162;0;0;
22085;-31,25838;-11,09008;-22,91203;-35,4511;2,763973;2,348519;1,679739;7,643992;0;0;
22102;-31,25838;-11,09008;-22,91203;-35,4511;2,842486;2,327132;1,537836;7,340184;0;0;
22119;-34,6916;-3,399719;-29,6212;-41,73904;2,659878;2,188985;1,472199;5,57662;0;0;
22138;-35,95408;-4,662477;-24,75675;-40,42178;2,574043;2,062284;1,502166;7,223452;0;0;
22155;-31,55454;-3,360026;-25,18942;-51,4333;2,551091;2,34736;1,500222;7,582507;0;0;
22173;-30,25674;-6,11006;-23,15506;-38,63199;2,253838;2,276971;1,626518;7,236586;0;0;
22191;-34,02825;-7,05115;-20,85533;-47,61079;2,215229;2,340043;1,942215;8,425663;0;0;
22209;-31,35446;-11,69504;-21,76896;-29,793;2,047124;2,309033;2,286392;8,991697;0;0;
22227;-35,40481;-9,315628;-24,68075;-32,39081;1,956829;2,253985;2,30362;8,931338;0;0;
22246;-35,24552;-9,435654;-30,42077;-56,87147;1,831252;2,046822;2,502441;9,56652;0;0;
22263;-35,24552;-9,435654;-30,42077;-56,87147;1,791706;1,861292;2,71073;10,64812;0;0;
22282;-36,22702;-10,00348;-25,02127;-37,31073;1,541928;1,731849;2,672495;10,76719;0;0;
22299;-35,2487;-4,691432;-23,8885;-38,09176;1,506335;1,785258;2,611751;8,849905;0;0;
22316;-36,23058;-7,781335;-23,77823;-34,20807;1,409976;1,788441;2,237509;7,554732;0;0;
22333;-33,17743;-7,11744;-27,63139;-38,1353;1,418243;1,801182;2,233938;7,862046;0;0;
22350;-32,54129;-5,850608;-24,62934;-32,78944;1,590539;1,815229;1,977807;7,16725;0;0;
22367;-35,02648;-8,16675;-27,18908;-45,00503;1,595254;1,719705;1,646936;6,55686;0;0;
22383;-35,02648;-8,16675;-27,18908;-45,00503;1,598275;1,702202;1,390586;6,798804;0;0;
22399;-33,90768;-6,201932;-24,50654;-43,07846;1,686348;1,563742;1,313664;6,65707;0;0;
22417;-31,58288;-7,761941;-25,21657;-49,13258;1,588112;1,189979;1,184388;5,37482;0;0;
22434;-32,90424;-9,745194;-27,31708;-32,85741;1,682373;1,386438;1,193743;5,277187;0;0;
22450;-35,24676;-8,339057;-20,39122;-18,89962;1,537096;1,424627;1,440033;6,370967;0;0;
22468;-34,16198;-6,86303;-22,1627;-42,09162;1,457415;1,579782;1,374454;5,526377;0;0;
22485;-37,57932;-9,932782;-26,04486;-94,09001;1,567835;1,716096;1,314305;7,239955;0;0;
22503;-37,57932;-9,932782;-26,04486;-94,09001;1,656839;1,7584;1,328664;9,678591;0;0;
22519;-33,28111;-6,485276;-23,11894;-31,57163;1,582126;1,720777;1,312022;9,559234;0;0;
22536;-40,64222;-6,44031;-20,96964;-35,59413;1,694936;1,875675;1,234456;8,588923;0;0;
22556;-36,24009;-8,400882;-28,61231;-59,32835;1,924561;1,819637;1,207938;8,722337;0;0;
22573;-34,52381;-5,095947;-24,9671;-39,05493;1,795984;1,823297;1,403136;9,111311;0;0;
22592;-31,56965;-6,583544;-24,01948;-37,54996;1,778196;1,907504;1,367853;7,784391;0;0;
22609;-28,59167;-6,931537;-25,44504;-35,74112;1,758331;2,095433;1,462241;5,98343;0;0;
22627;-34,47021;-6,294577;-22,97891;-40,14297;1,693001;2,068641;1,49451;5,556426;0;0;
22644;-34,47021;-6,294577;-22,97891;-40,14297;1,483252;1,916141;1,488701;5,102293;0;0;
22660;-35,59851;-6,604039;-27,38695;-46,29368;1,380254;1,98796;1,38084;4,222913;0;0;
22679;-33,68941;-8,387654;-23,16733;-36,46139;1,462529;1,705386;1,381092;3,973958;0;0;
22697;-34,79384;-10,1057;-23,41805;-39,44917;1,427415;1,419344;1,445714;3,021377;0;0;
22715;-32,54521;-8,144423;-25,0952;-38,80974;1,338062;1,218725;1,436013;2,753879;0;0;
22733;-31,55814;-8,948819;-26,22045;-38,87447;1,367064;1,379244;1,480873;2,682904;0;0;
22750;-33,42342;-6,675678;-26,8916;-30,55011;1,413509;1,48419;1,462059;3,077384;0;0;
22770;-31,8083;-11,94041;-24,57334;-43,30777;1,486628;1,557302;1,456057;2,967705;0;0;
22787;-37,66503;-4,730342;-22,48994;-35,25745;1,5936;1,99474;1,458853;3,283673;0;0;
22804;-28,10974;-5,944858;-28,14788;-38,37476;1,690015;2,401013;1,506136;3,337215;0;0;
22821;-28,10974;-5,944858;-28,14788;-38,37476;1,794472;2,676872;1,548394;3,428494;0;0;
22838;-31,50151;-9,367168;-24,88001;-40,7397;1,920756;2,436019;1,336344;3,751328;0;0;
22855;-40,07209;-7,389779;-22,73135;-42,67677;2,089651;2,349136;1,526949;3,059705;0;0;
22875;-37,18721;-6,448041;-24,40481;-37,24209;2,050347;2,445783;1,554114;2,821953;0;0;
22894;-34,8822;-8,647907;-25,36048;-40,38427;1,915614;2,161559;1,59132;3,85419;0;0;
22913;-34,1421;-7,346901;-24,12119;-40,57576;1,907952;1,871234;1,569639;3,885898;0;0;
22931;-35,56247;-4,420094;-26,84603;-40,55088;1,836142;1,761093;1,55911;3,588713;0;0;
22949;-34,53037;-8,763803;-20,48098;-37,51219;1,785204;1,924517;1,829148;5,582894;0;0;
22966;-28,62399;-4,545045;-25,25026;-39,27832;1,806115;1,985948;1,891766;6,099015;0;0;
22984;-34,75426;-9,760686;-23,22905;-50,63385;1,957719;2,054352;1,812944;6,118453;0;1;
23004;-34,75426;-9,760686;-23,22905;-50,63385;2,017787;2,062926;1,820058;5,898999;0;1;
23023;-35,62077;-6,428263;-23,16892;-46,14971;2,057458;2,099947;1,822656;6,429223;0;1;
23041;-150,3223;-21,62703;-25,71968;-41,76658;8,085079;4,243574;1,95271;5,560077;0;1;
23058;-69,67451;63,73981;-25,01345;-45,63984;34,02831;11,98422;1,53811;6,351297;0;1;
23077;-603,3688;130,5354;-13,46984;-21,72315;69,0093;22,06308;1,790363;9,736398;0;1;
23096;408,0386;4,633672;-26,64408;114,9848;95,4147;36,91454;2,203957;22,72547;0;1;
23116;-58,72033;194,8976;-1,531773;-155,5085;227,4881;49,03262;3,513184;47,20742;0;1;
23133;-110,3975;-61,05314;-23,35569;10,65378;239,0255;64,14761;6,120105;67,19114;0;1;
23154;-35,80908;-5,817998;-50,13229;-186,933;224,022;61,59425;7,417005;97,77768;0;0;
23173;-53,9248;-8,540718;-33,89953;172,324;200,5245;52,19604;9,402862;120,034;0;0;
23192;-40,78398;-14,03311;-30,04212;-205,3546;166,2627;40,98555;9,556795;150,5217;0;0;
23214;-22,23625;-3,832838;-10,59868;287,1568;144,5969;29,79411;10,19175;159,9456;0;0;
23231;-38,85391;-12,72311;-12,5022;49,40839;19,56696;11,61723;9,158846;152,2558;0;0;
23250;-37,37713;-6,936543;-29,9577;-33,90079;7,879267;5,407566;9,021982;152,419;0;0;
23268;-37,91848;-9,574156;-21,66628;30,9318;8,599357;7,296382;7,598385;133,4268;0;0;
23294;-26,1694;-7,080642;-26,82407;-45,6458;7,144008;6,397313;6,443457;108,5271;0;0;
23314;-12,56341;-8,471025;-24,74983;-50,64497;11,22697;6,250597;5,088776;66,51991;0;0;
23333;-66,96715;-6,76456;-25,57124;-45,49014;12,04576;5,8517;3,880566;50,79544;0;0;
23353;-23,21806;-12,07547;-21,18246;-37,06754;12,69103;4,45384;2,880905;31,79797;0;0;
23371;-23,41731;-9,705497;-25,85933;-28,77976;12,43095;2,886677;2,279897;18,70263;0;0;
23389;-36,76189;-8,363367;-29,39481;-35,33612;12,27108;2,235481;2,147948;18,78422;0;0;
23407;-63,06303;-5,525435;-24,33359;-32,32711;14,69128;2,444704;2,399125;18,62984;0;0;
23423;-63,06303;-5,525435;-24,33359;-32,32711;13,92294;2,727175;2,544622;17,6991;0;0;
23440;-28,23111;-4,959015;-23,13628;-56,11575;11,54265;2,793238;2,612303;18,23139;0;0;
23457;-29,07313;-3,946764;-24,39242;1,940978;11,67718;2,751144;2,793961;17,69009;0;0;
23475;-35,47292;-6,783658;-20,42528;-5,99882;12,37541;2,733271;2,768714;18,69031;0;0;
23493;-45,83511;-5,427919;-25,9428;-51,89534;13,11185;2,917877;2,942363;15,75673;0;0;
23512;-46,31596;-10,38382;-21,77541;-59,46859;12,0606;2,868672;2,879557;17,19251;0;0;
23529;-27,23112;-6,366747;-21,05791;-11,5911;9,600744;2,626105;2,818769;19,11426;0;0;
23547;-29,88391;-10,19001;-25,31279;-53,81217;8,938649;2,499333;2,672713;18,33541;0;0;
23565;-35,07259;-7,683085;-23,16331;-52,8481;7,965072;2,172989;2,386265;15,09178;0;0;
23583;-29,64994;-3,842004;-28,18776;-79,53356;5,942452;2,240159;2,262957;13,67731;0;0;
23600;-29,64994;-3,842004;-28,18776;-79,53356;4,987206;2,1375;1,995234;13,59367;0;0;
23617;-28,3884;-9,759269;-23,16553;6,479741;3,846324;2,107776;1,864914;14,16913;0;0;
23633;-34,50444;-3,211915;-24,73504;-40,3187;4,482864;2,544613;1,639975;13,67807;0;0;
23652;-31,39857;-9,530128;-38,88667;-11,40455;4,786234;3,123191;2,442264;14,8285;0;0;
23668;-49,62628;16,29597;-18,58836;-92,33014;6,395456;5,188533;3,887601;16,07846;0;0;
23687;-51,46693;-17,10318;-23,56896;-46,4849;7,77462;7,552122;5,261409;18,47365;0;0;
23703;-51,46693;-17,10318;-23,56896;-46,4849;9,469047;9,815682;6,673518;20,01823;0;0;
23719;-1760,583;-99,07204;11,98697;-82,79774;85,97155;27,53273;12,61426;20,88333;1;0;
23736;-1219,835;-195,7967;-127,2047;-88,63097;233,4467;49,89621;20,67112;23,51982;1;0;
23754;1271,078;125,3322;-51,1431;-14,19419;353,9513;69,10487;29,7947;28,35863;1;0;
23774;333,6728;50,94489;-112,5216;-41,5121;445,0148;84,50121;45,37397;33,23338;1;0;
23793;-304,2199;5,677238;19,67887;-94,23179;567,5801;96,06526;58,56402;32,87168;1;0;
23814;5,797464;-37,47054;-4,151243;-116,1339;558,7292;97,08593;64,74559;38,04926;0;0;
23832;-516,3621;53,68548;-35,45219;-158,4993;470,4591;80,15448;64,30134;40,87563;0;0;
23855;63,613;92,43315;206,6029;12,68455;408,2229;68,66124;73,82766;42,8501;0;0;
23871;-184,25;-43,93451;102,2882;-77,25424;334,9124;59,19526;75,23269;37,92512;0;0;
23890;227,1698;-19,53377;25,2213;6,89747;268,8614;45,3896;70,75815;42,41814;0;0;
23910;-35,41085;-5,992354;-49,89667;-58,76717;176,5677;31,94625;61,94015;38,54652;0;0;
23927;-29,29456;-6,546995;-31,91553;-118,6224;165,5566;26,90839;57,21489;35,02776;0;0;
23945;-17,17943;-5,985247;-28,40314;-46,22265;120,2144;23,07071;45,00103;31,72857;0;0;
23962;-17,17943;-5,985247;-28,40314;-46,22265;42,8211;9,167263;22,84243;31,14342;0;0;
23980;7,258175;-8,086899;-62,15847;-58,42375;26,53761;6,063407;13,8541;25,28316;0;0;
23995;-24,31482;-1,780475;-34,8019;-34,01958;8,987817;4,818345;10,46872;20,80196;0;0;
24014;-29,55513;-4,166795;-13,15185;-65,56107;9,638439;4,491605;8,766753;18,6923;0;0;
24031;-75,89214;-6,933416;-30,26733;-48,28959;17,29457;4,123439;8,515279;14,81289;0;0;
24051;68,76628;-9,55236;-37,55474;-53,58772;26,54825;3,370266;8,454685;11,26955;0;0;
24069;-49,03282;-8,395164;-26,20928;-39,88253;30,3306;3,137961;8,897247;8,962467;0;0;
24087;20,65913;-7,271353;-5,683777;-40,94431;32,46873;2,710756;8,801921;7,894887;0;0;
24103;20,65913;-7,271353;-5,683777;-40,94431;35,5241;2,379514;12,54316;7,828934;0;0;
24120;-58,56365;-2,239583;-25,94517;-44,46873;38,17374;2,708644;12,27143;6,426187;0;0;
24139;-37,19748;-5,055631;-28,78434;-40,84662;30,99678;2,612609;12,44801;6,72313;0;0;
24155;-19,31147;-11,08455;-23,40745;-42,95393;21,05484;2,542246;11,81918;6,803523;0;0;
24172;-29,39079;-6,195267;-28,34579;-37,49967;19,84994;2,438604;9,929539;6,723479;0;0;
24189;-59,90221;-10,70168;-16,16078;-39,20999;18,54759;2,463189;6,146199;6,855335;0;0;
24206;-36,92186;-3,824357;-24,34081;-4,550256;14,74621;2,618196;3,836676;7,261789;0;0;
24223;-36,92186;-3,824357;-24,34081;-4,550256;13,03305;2,134653;3,94346;7,523836;0;0;
24238;-26,03456;-9,352187;-25,84375;-41,83771;12,96449;2,032363;3,505849;7,209487;0;0;
24254;-2,676729;-8,599107;-22,69779;-39,1378;13,47394;2,04533;3,429614;7,725815;0;0;
24271;-52,97077;-10,09595;-23,0469;-1,947623;14,36519;1,894687;2,827235;9,431641;0;0;
24291;-7,263185;-4,987127;-25,00567;4,535463;12,62439;1,849805;2,235863;10,81998;0;0;
24309;-55,46362;-5,706323;-22,61005;-34,88412;12,77545;1,862851;1,879495;11,62772;0;0;
24325;-38,76774;-10,20455;-20,33;-5,710432;12,95756;1,761657;2,118386;12,79282;0;0;
24342;-38,76774;-10,20455;-20,33;-5,710432;13,88508;1,733734;2,321297;14,01637;0;0;
24360;-31,5681;-6,161131;-24,50476;-86,03316;11,20859;1,784798;2,129952;15,55421;0;0;
24377;-30,05389;-6,868232;-27,89724;-94,16191;8,872475;1,737004;2,260878;16,89941;0;0;
24395;-35,74295;-11,00959;-27,92907;-67,63577;7,266264;1,749043;2,415658;19,24786;0;0;
24415;-32,03883;-3,624383;-30,28281;-43,66862;4,477779;1,756231;2,35714;20,00689;0;0;
24432;-34,70292;-5,861615;-25,80957;-109,2314;3,059387;1,830964;2,162057;25,01981;0;0;
24449;-35,40833;-8,525106;-30,5523;-173,9823;2,473196;1,732788;2,395468;28,02583;0;0;
24465;-33,99209;-4,359136;-23,00526;-63,34431;2,180056;1,655891;2,5506;36,20184;0;0;
24483;-33,99209;-4,359136;-23,00526;-63,34431;1,681021;1,782259;2,542019;42,43098;0;0;
24500;-32,02924;-4,695003;-26,17562;-25,0113;1,531951;1,838163;2,414281;43,75049;0;0;
24518;-33,34694;-8,954534;-21,22387;-38,07883;1,356474;1,569005;2,236015;43,9071;0;0;
24541;-35,38971;-8,761542;-19,48756;-41,14489;1,406179;1,521523;1,997134;41,72729;0;0;
24558;-36,4515;-7,291413;-24,26967;-26,03256;1,639027;1,685793;1,887382;36,62329;0;0;
24578;-34,33903;-8,587372;-24,5097;-36,10891;1,940323;1,638411;1,746539;26,18946;0;0;
24595;-36,24237;-8,383935;-25,97227;-59,99844;2,406165;1,550076;1,627157;24,17748;0;0;
24611;-33,54175;-8,027517;-25,4678;-47,24022;2,319812;1,459318;1,749842;21,62003;0;0;
24630;-32,8712;-7,050243;-25,86082;-15,90793;2,13803;1,436875;1,676799;22,51957;0;0;
24647;-33,79477;-8,571087;-21,4467;-18,14867;2,036067;1,41909;1,855845;20,64305;0;0;
24664;-33,89524;-7,400046;-24,87113;-25,83712;1,852133;1,348248;1,821536;25,91763;0;0;
24683;-33,89524;-7,400046;-24,87113;-25,83712;1,730459;1,413721;1,910411;33,72984;0;0;
24700;-38,38316;-8,287039;-26,20417;-38,73524;1,546698;1,489501;1,81565;32,94886;0;0;
24715;-36,96696;-10,35665;-27,30466;-39,64407;1,649293;1,726615;1,833086;32,43627;0;0;
24734;-32,53716;-6,017169;-24,16776;-22,15982;1,766572;1,950767;1,734941;32,0187;0;0;
24751;-32,93547;-6,328198;-22,80783;-48,60656;1,767189;1,901305;2,204232;24,58389;0;0;
24769;-32,58716;-8,410508;-23,49992;-17,85441;1,903907;1,745152;2,354018;17,56285;0;0;
24786;-34,45104;-3,495852;-28,14452;-33,9148;1,756055;1,81076;2,378255;17,65645;0;0;
24802;-34,45104;-3,495852;-28,14452;-33,9148;1,527404;1,664781;2,272989;18,17233;0;0;
24819;-36,93225;-11,07166;-23,22501;-21,97256;1,601938;1,613378;2,254857;19,0364;0;0;
24838;-34,71732;-4,678076;-22,52996;-8,618661;1,716036;1,46971;1,721854;18,85253;0;0;
24854;-33,23573;-10,05735;-26,29495;-31,86537;1,895211;1,67688;1,345951;17,42383;0;0;
24870;-36,45261;-6,232038;-22,24936;-45,2945;1,744654;1,674046;1,360225;18,17583;0;0;
24889;-31,04682;-9,023285;-25,99448;-95,36729;1,835945;1,649832;1,343212;18,58759;1;0;
24907;-34,99928;-4,759824;-22,68232;-29,3696;1,75278;1,864239;1,323666;19,84018;1;0;
24924;-32,04936;-6,449882;-24,50664;-44,13374;1,862547;1,724516;1,479991;17,38213;1;0;
24940;-32,04936;-6,449882;-24,50664;-44,13374;1,862162;1,788168;1,538349;16,07201;1;0;
24956;-34,19067;-6,758653;-74,98416;23,73366;2,126194;2,125386;5,160217;17,46185;1;0;
24973;-34,19067;-6,758653;-74,98416;23,73366;2,451194;2,556749;8,575849;17,48722;1;0;
24990;70,95364;69,30383;-50,30535;15,76828;21,34677;6,22802;12,28522;17,84156;1;0;
25007;195,3017;88,65529;29,30513;-45,97174;100,7862;18,61824;24,83421;23,10974;1;0;
25023;195,3017;88,65529;29,30513;-45,97174;180,0982;31,28646;37,3603;29,18475;1;0;
25040;-102,7652;7,635926;-21,11247;-108,2346;265,4849;39,3623;42,88906;38,1002;1;0;
25057;-587,0665;-58,90888;-20,70554;-153,8479;473,7083;56,7993;41,83487;42,72198;1;0;
25075;-196,8631;-33,91206;-65,93407;-34,63982;516,6223;77,2229;41,16239;48,70052;1;0;
25098;-96,61976;20,65805;89,01073;-101,2603;585,7562;77,32896;47,64785;53,87308;1;0;
25118;-239,1546;-25,13503;88,75101;-19,53888;531,8272;68,85168;47,87766;53,34969;1;0;
25134;49,59329;58,19987;-3,426492;5,955567;476,932;72,07871;45,43052;54,71732;1;0;
25152;-31,80278;-23,25438;-13,70427;-32,50621;317,6828;67,4921;47,1512;50,05078;1;0;
25171;-37,56204;10,24494;-56,71317;-11,88736;265,6146;45,70901;45,53663;45,80725;1;0;
25188;-25,92055;-9,480713;-22,77235;-86,80071;163,578;38,17251;41,65452;44,34352;1;0;
25206;-18,95095;6,497868;-25,73577;-52,84714;148,1188;31,35913;27,68137;43,44453;1;0;
25223;-18,95095;6,497868;-25,73577;-52,84714;110,3005;24,60829;15,9486;48,25496;1;0;
25239;-40,88388;-6,063701;-33,8569;-37,67953;23,53295;13,61826;8,145511;44,3368;0;0;
25255;-34,65161;-8,396889;-71,15671;-49,77708;14,07243;8,137056;7,956362;37,57092;0;0;
25274;-42,5093;-8,022199;-35,86572;-112,2436;12,47601;4,480594;8,406289;34,6537;0;0;
25292;2,383671;-9,244684;-21,83543;-49,69019;13,61279;3,984261;8,49571;27,05347;0;0;
25310;4,777528;-10,73051;-23,65023;-44,59908;17,69016;2,824653;8,308831;18,11651;0;0;
25328;-48,92115;-7,504452;-25,86927;-8,489197;18,66288;2,149228;8,058025;17,39727;0;0;
25348;-43,90149;-8,75294;-28,78934;-50,37404;19,15759;1,978997;6,568022;17,16705;0;0;
25365;-78,40536;-7,785424;-13,56674;-48,08443;22,42575;2,048974;4,677287;16,21426;0;0;
25382;-78,40536;-7,785424;-13,56674;-48,08443;23,06185;2,130216;5,070324;13,89861;0;0;
25401;-43,30284;-5,473748;-25,65963;-39,38292;19,93563;2,464231;4,964478;13,65018;0;0;
25418;-30,81812;-7,139664;-23,97322;-41,19243;14,33809;2,512818;4,932857;12,10095;0;0;
25434;-16,67204;-8,259171;-23,51435;-30,75974;13,76291;2,163583;4,686275;10,35081;0;0;
25451;-18,39339;-3,915194;-24,9653;-53,05418;13,60117;2,239317;3,794596;11,42584;0;0;
25470;-57,99504;-11,09881;-23,48783;-38,40119;12,95428;2,357917;2,186223;9,851654;0;0;
