Time; EMG1; EMG2; EMG3; EMG4; EMG1_F; EMG2_F; EMG3_F; EMG4_F;Note_R;Note_V;;Level 1;Joueur;Notes hit;% Reussite R;Offset EMG1;Onset EMG1;% Reussite V;Offset EMG2;Onset EMG2
12;-35,24921;-8,039764;-25,90678;-39,35909;1,390862;2,051461;1,386191;1,631403;0;0;;;1;142;77,86885;-24,84167;73,94408;94;-7,654144;91,60109
34;-41,12935;-7,234306;-23,40039;-40,24023;1,351704;1,874174;1,293661;1,601847;0;0;;;2;157;92,62295;-33,8732;258,4667;88;-7,654144;37,61216
51;-18,98102;-14,73051;-24,74895;-41,78724;2,562569;1,938899;1,154764;1,59693;0;0;
73;-34,31651;-4,721268;-23,70799;-39,03184;3,229725;1,548373;1,132269;1,790256;0;0;
89;-30,61267;-9,083719;-25,00159;-37,93738;3,441386;1,327818;1,152705;1,887853;0;0;
108;-36,12425;-8,640201;-19,82131;-41,3393;3,532015;1,388369;1,210044;1,708768;0;0;
127;-34,02147;-9,738479;-25,36352;-44,52637;3,524839;1,454085;1,19822;1,948139;0;0;
143;-32,65607;-6,620668;-24,33817;-38,79084;3,108239;1,501478;1,340123;2,046706;0;0;
159;-33,99491;-5,354621;-26,78334;-39,88567;1,72179;1,533917;1,487784;2,176118;0;0;
176;-33,99491;-5,354621;-26,78334;-39,88567;1,344689;1,665714;1,538719;2,124314;0;0;
194;-32,19711;-12,93097;-25,36953;-42,10709;1,091388;1,739196;1,4982;2,073976;0;0;
215;-33,55139;-4,713771;-25,48309;-42,67035;1,108408;1,567353;1,399783;2,266631;0;0;
230;-35,52022;-5,830397;-24,52413;-41,00174;1,113268;1,491243;1,452753;2,006351;0;0;
247;-34,0269;-6,68295;-25,22894;-37,92472;1,067116;1,496634;1,339344;1,927604;0;0;
266;-31,84325;-9,385887;-23,74;-38,68606;1,341717;1,499776;1,340855;1,90563;0;0;
283;-33,56932;-4,188443;-23,89144;-37,64735;1,539942;1,6451;1,269031;1,836839;0;0;
299;-33,91907;-6,93934;-24,36928;-38,66153;1,428807;1,558158;1,326124;1,827426;0;0;
316;-33,91907;-6,93934;-24,36928;-38,66153;1,419932;1,614119;1,308623;1,844726;0;0;
334;-31,45397;-6,845734;-26,34022;-36,03112;1,471504;1,802633;1,33269;1,827137;0;0;
351;-35,75623;-8,722805;-24,49171;-40,26843;1,582023;1,829868;1,39323;1,938072;0;0;
367;-34,70981;-8,948995;-24,95306;-42,60009;1,258053;1,886817;1,47328;1,906383;0;0;
385;-34,71874;-7,053928;-26,65613;-51,34619;1,267736;1,761978;1,511458;1,996119;0;0;
401;-35,7392;-6,77102;-26,12234;-34,68317;1,376607;1,876179;1,529862;2,348162;0;0;
419;-32,06559;-5,881703;-22,0031;-44,31975;1,65759;1,963612;1,62976;2,556286;0;0;
434;-32,06559;-5,881703;-22,0031;-44,31975;1,803909;1,974667;1,713401;2,62738;0;0;
450;-33,43653;-8,831994;-24,86982;-38,64652;1,830018;1,804867;1,630064;2,757375;0;0;
468;-35,26448;-8,392712;-22,8831;-42,19645;1,841863;1,925744;1,643354;2,792419;0;0;
484;-35,79851;-8,404559;-25,64411;-40,71601;1,793453;1,819736;1,574243;2,440899;0;0;
499;-34,87343;-7,213297;-22,16345;-45,1545;1,579208;1,771175;1,522554;2,280149;0;0;
516;-34,87343;-7,213297;-22,16345;-45,1545;1,346362;1,579464;1,459627;2,200224;0;0;
534;-35,7337;-5,450399;-25,47833;-39,59716;1,4463;1,547815;1,306988;2,134;0;0;
551;-31,99267;-9,791578;-21,25342;-40,64752;1,412902;1,665775;1,345148;2,253992;0;0;
567;-33,26872;-8,720088;-25,50199;-40,20848;1,47672;1,54961;1,396129;2,033408;0;0;
583;-36,09315;-8,547878;-21,26145;-38,63633;1,487619;1,535296;1,472285;2,266097;0;0;
600;-36,09315;-8,547878;-21,26145;-38,63633;1,497432;1,540212;1,498106;2,362803;0;0;
617;-35,61763;-4,976977;-21,82004;-37,94527;1,284913;1,487355;1,602316;2,195734;0;0;
632;-35,61763;-4,976977;-21,82004;-37,94527;1,110548;1,511131;1,7514;2,134944;0;0;
650;-36,77996;-9,5444;-25,72363;-38,15528;1,053333;1,459681;1,798605;2,319096;0;0;
668;-33,91929;-7,042315;-25,34068;-40,58337;1,160774;1,433437;1,85178;2,255477;0;0;
689;-34,24116;-11,53841;-22,83026;-45,03943;1,291876;1,513694;1,733934;2,186919;0;0;
705;-33,76055;-5,464901;-24,51648;-41,22215;1,257061;1,873246;1,653756;2,175293;0;0;
721;-33,10719;-8,484263;-25,84267;-40,5597;1,435202;1,868369;1,608625;2,058423;0;0;
738;-38,41889;-5,697722;-24,52829;-38,94167;1,597608;1,930172;1,437418;1,923148;0;0;
753;-38,41889;-5,697722;-24,52829;-38,94167;1,669244;1,907292;1,275558;1,783486;0;0;
770;-32,18332;-7,485155;-23,90342;-43,41;1,752544;2,032701;1,228827;2,040625;0;0;
787;-32,97506;-5,143013;-23,23255;-39,14244;1,636304;1,74015;1,275811;1,788303;0;0;
803;-36,59852;-6,856789;-23,26389;-42,08278;1,628542;1,547315;1,223148;1,921574;0;0;
818;-34,50828;-9,073735;-23,15334;-40,48965;1,643573;1,510308;1,196875;2,016944;0;0;
834;-34,50828;-9,073735;-23,15334;-40,48965;1,559232;1,44999;1,22549;2,075116;0;0;
851;-34,28982;-5,257879;-25,72885;-35,23268;1,258285;1,594581;1,204091;2,192278;0;0;
869;-34,04678;-10,59306;-26,26553;-37,92997;1,445175;1,716584;1,138373;2,028872;0;0;
886;-33,90967;-5,874263;-29,58134;-40,11355;1,447853;1,716934;1,091124;2,01042;0;0;
902;-33,90436;-4,734634;-27,20022;-37,43915;1,348087;1,887713;1,193236;1,849029;0;0;
919;-35,13412;-6,423663;-25,73877;-42,21011;1,257479;2,019805;1,291683;2,160444;0;0;
935;-35,13412;-6,423663;-25,73877;-42,21011;1,313397;2,044796;1,426737;2,43145;0;0;
952;-31,01115;-4,716049;-25,38819;-38,89683;1,157707;2,024186;1,431578;2,325486;0;0;
970;-31,03835;-11,43732;-25,73743;-39,00386;1,215446;1,943871;1,491299;2,170178;0;0;
987;-35,06907;-5,946216;-26,11608;-41,95331;1,104059;1,942568;1,403318;2,260381;0;0;
1005;-30,34364;-12,88313;-22,80091;-44,5299;1,128484;1,901429;1,394286;2,270922;0;0;
1020;-36,25829;-3,008808;-25,85995;-40,82636;1,228027;1,944531;1,306353;2,103912;0;0;
1036;-36,25829;-3,008808;-25,85995;-40,82636;1,385046;1,939747;1,250415;2,099602;0;0;
1054;-34,14172;-10,48516;-23,94739;-38,04789;1,449461;2,069782;1,202783;2,120732;0;0;
1071;-32,49984;-7,287314;-21,55958;-38,28112;1,382445;2,059916;1,21002;2,196575;0;0;
1088;-32,81001;-10,079;-27,95002;-40,25237;1,414056;2,16854;1,126534;2,260002;0;0;
1103;-32,57297;-8,054444;-25,09753;-40,44867;1,383149;2,112998;1,361214;2,214998;0;0;
1121;-34,34627;-6,553371;-22,06052;-39,36631;1,377472;1,899033;1,526449;2,102682;0;0;
1137;-34,34627;-6,553371;-22,06052;-39,36631;1,360248;1,78314;1,708102;1,977088;0;0;
1153;-34,34627;-6,553371;-22,06052;-39,36631;1,393327;1,51791;1,852045;2,043628;0;0;
1172;-37,67699;-8,139303;-24,86887;-35,96764;1,46978;1,491353;1,889145;2,11221;0;0;
1191;-34,12709;-12,13291;-24,51143;-37,20131;1,642258;1,618939;1,678324;1,98749;0;0;
1206;-36,31971;-6,856325;-25,28423;-41,78682;1,649022;1,732001;1,661933;2,008737;0;0;
1223;-31,30345;-7,114242;-22,18482;-41,12033;1,602803;1,829589;1,476656;1,931081;0;0;
1238;-35,87167;-9,591969;-26,33089;-40,28195;1,588743;1,838179;1,409247;1,740791;0;0;
1255;-35,87167;-9,591969;-26,33089;-40,28195;1,580585;1,826353;1,350546;1,684476;0;0;
1273;-35,10986;-10,34187;-23,57605;-39,94995;1,60464;1,707464;1,280704;1,803465;0;0;
1291;-29,50072;-7,478182;-20,94568;-38,25418;1,65186;1,646881;1,274419;1,90804;0;0;
1307;-33,74524;-7,40072;-23,53757;-42,94765;1,641388;1,728117;1,335022;1,845157;0;0;
1325;-34,33128;-7,057676;-25,8637;-36,09356;1,538101;1,766019;1,355133;1,900541;0;0;
1341;-35,25475;-7,897885;-24,33733;-45,07063;1,457369;1,845593;1,461854;2,354312;0;0;
1362;-31,53938;-6,673772;-26,85239;-37,44516;1,356093;1,945531;1,484525;2,378394;0;0;
1379;-35,25782;-7,04038;-22,49901;-44,74295;1,240017;1,829981;1,579715;2,391972;0;0;
1394;-35,25782;-7,04038;-22,49901;-44,74295;1,140533;1,746594;1,591307;2,375549;0;0;
1410;-34,90864;-10,75652;-22,18263;-44,80516;1,240275;1,819024;1,76603;2,309346;0;0;
1426;-32,56618;-7,559536;-26,68896;-37,20145;1,314599;1,790131;1,759783;2,284942;0;0;
1441;-35,24908;-8,754125;-23,78441;-43,30539;1,330383;1,712456;1,790935;2,293894;0;0;
1458;-32,93778;-6,423122;-22,66126;-41,12088;1,279091;1,792619;1,761309;2,162158;0;0;
1476;-32,93778;-6,423122;-22,66126;-41,12088;1,189429;1,940994;1,736265;1,953854;0;0;
1491;-35,86057;-8,602065;-24,15694;-40,64468;1,267589;1,910123;1,571075;1,980439;0;0;
1509;-31,572;-6,875495;-25,4031;-39,24514;1,433054;1,748205;1,605962;2,059601;0;0;
1528;-34,69483;-6,068213;-26,23404;-38,62318;1,522856;1,669348;1,520331;2,010865;0;0;
1547;-33,95447;-9,098782;-22,17479;-43,51302;1,829684;1,59162;1,435233;2,054332;0;0;
1565;-34,27792;-8,159214;-23,03105;-40,28879;1,847677;1,407941;1,347055;2,13464;0;0;
1581;-31,56387;-9,118553;-23,4697;-40,9055;1,905756;1,492597;1,341388;2,369411;0;0;
1598;-35,61497;-7,297538;-26,45237;-43,33074;1,864469;1,422941;1,262568;2,190936;0;0;
1614;-35,61497;-7,297538;-26,45237;-43,33074;1,625695;1,458147;1,222217;1,972519;0;0;
1631;-34,89802;-7,037847;-24,9882;-40,15106;1,473444;1,517265;1,19491;1,996125;0;0;
1648;-35,24458;-7,309073;-22,81553;-38,10347;1,296676;1,667067;1,140572;1,865639;0;0;
1666;-34,94334;-6,376108;-25,24963;-44,05613;1,243672;1,775643;1,11866;1,97154;0;0;
1684;-34,87764;-8,01677;-24,67994;-34,7354;1,182715;1,725065;1,104554;2,18107;0;0;
1700;-35,41764;-6,932378;-22,98444;-37,44982;1,180531;1,733847;1,061134;2,34053;0;0;
1719;-32,62027;-7,262033;-23,19996;-40,22998;1,274311;1,743571;1,07837;2,098711;0;0;
1736;-32,62027;-7,262033;-23,19996;-40,22998;1,395747;1,536779;1,216755;1,967182;0;0;
1752;-33,52264;-6,135523;-26,21311;-37,18314;1,441843;1,480756;1,182265;2,074568;0;0;
1767;-32,99874;-8,746594;-24,76783;-39,26699;1,451952;1,223623;1,116764;2,071082;0;0;
1785;-32,81109;-7,776426;-25,50222;-38,82491;1,401136;1,144085;1,277224;1,79669;0;0;
1802;-34,27113;-6,685832;-24,42825;-38,58281;1,399001;1,222783;1,301461;1,808694;0;0;
1818;-31,82292;-7,442967;-22,03473;-37,92355;1,43782;1,289087;1,275957;2,149263;0;0;
1833;-31,82292;-7,442967;-22,03473;-37,92355;1,545726;1,343687;1,257508;2,387333;0;0;
1850;-34,72549;-11,19882;-26,69372;-42,3196;1,318166;1,528283;1,289348;2,240422;0;0;
1868;-34,10041;-6,275349;-26,39836;-48,18052;1,308865;1,718775;1,480093;2,495692;0;0;
1886;-34,45174;-10,7428;-25,49069;-39,16349;1,337518;1,749602;1,510736;2,541406;0;0;
1902;-34,69332;-5,684307;-25,95308;-41,56404;1,247868;1,908854;1,565245;2,553217;0;0;
1919;-35,86567;-9,743963;-23,97565;-40,24961;1,090246;1,893669;1,629711;2,300878;0;0;
1935;-35,86567;-9,743963;-23,97565;-40,24961;1,043849;1,854147;1,694701;2,146596;0;0;
1953;-34,7536;-11,79734;-22,17169;-37,2067;1,023137;1,713564;1,602044;2,167911;0;0;
1971;-37,5878;-6,585379;-24,63242;-38,77519;1,004083;1,787768;1,480537;2,083772;0;0;
1992;-33,04826;-6,069869;-23,33759;-42,0663;1,004321;1,674974;1,466284;2,140223;0;0;
2008;-31,57665;-6,670431;-27,53636;-39,39876;1,185375;1,577693;1,573255;2,070785;0;0;
2024;-33,42577;-5,31723;-22,85073;-37,63413;1,295601;1,586633;1,561094;2,144495;0;0;
2043;-37,92811;-9,736794;-24,52119;-39,40266;1,422455;1,627451;1,60781;2,21476;0;0;
2059;-34,64381;-5,196554;-23,59703;-38,49554;1,673689;1,535483;1,650887;2,107076;0;0;
2074;-34,64381;-5,196554;-23,59703;-38,49554;1,901157;1,592043;1,577192;1,931229;0;0;
2092;-31,57108;-9,818304;-26,82325;-43,62821;1,884562;1,674245;1,625554;1,924315;0;0;
2109;-30,58821;-4,597129;-22,06757;-40,61139;1,690707;1,825433;1,614479;1,973753;0;0;
2127;-37,21416;-6,176307;-23,16086;-40,50434;1,67788;1,800598;1,612178;1,97267;0;0;
2145;-32,36395;-6,043797;-23,96147;-37,56467;1,505782;1,756316;1,368336;1,820105;0;0;
2165;-34,70319;-10,11445;-27,28936;-36,63012;1,200745;1,650743;1,368635;1,769098;0;0;
2182;-33,7277;-9,618654;-24,94153;-40,62169;1,106123;1,545819;1,379542;1,655722;0;0;
2198;-35,91543;-6,324246;-23,07352;-35,44167;1,284345;1,278499;1,407088;1,650123;0;0;
2214;-35,91543;-6,324246;-23,07352;-35,44167;1,467608;1,168012;1,327667;1,722073;0;0;
2231;-34,51834;-6,568994;-24,86208;-35,95798;1,338473;1,162642;1,276081;1,725466;0;0;
2251;-32,90603;-5,434875;-25,45454;-39,91178;1,37983;1,089609;1,367833;1,714287;0;0;
2266;-33,80492;-10,46729;-24,13196;-38,16926;1,581273;1,272879;1,349227;1,798331;0;0;
2283;-35,91159;-4,727852;-23,92413;-41,83797;1,482229;1,207809;1,323011;1,830739;0;0;
2299;-33,93869;-9,620349;-25,00014;-40,25432;1,390322;1,275382;1,400702;1,714337;0;0;
2316;-33,93869;-9,620349;-25,00014;-40,25432;1,390236;1,338535;1,481195;1,605445;0;0;
2334;-34,76357;-9,024578;-25,02502;-45,92055;1,369286;1,37254;1,558763;1,711265;0;0;
2352;-34,94106;-8,16094;-27,77679;-37,93768;1,288237;1,370367;1,59015;1,627846;0;0;
2368;-35,20375;-5,328422;-24,49924;-41,27565;1,132766;1,477265;1,608893;1,564131;0;0;
2385;-34,90468;-11,5501;-25,83023;-42,29787;1,007322;1,497812;1,661263;1,685272;0;0;
2404;-34,13768;-6,857487;-19,74573;-35,62509;0,8700985;1,715195;1,81236;1,830592;0;0;
2421;-35,84442;-8,628694;-25,12919;-34,94763;0,9133227;1,70338;1,735852;1,788785;0;0;
2438;-31,77481;-10,71631;-23,1132;-39,25045;1,023297;1,62746;1,891947;1,69969;0;0;
2456;-31,77481;-10,71631;-23,1132;-39,25045;1,149635;1,521088;2,040356;1,80577;0;0;
2473;-35,08683;-8,275766;-26,1672;-39,87159;1,113367;1,386139;2,095202;1,878235;0;0;
2490;-32,48953;-7,21078;-25,98858;-39,93908;1,183172;1,249419;2,02586;2,077548;0;0;
2507;-34,89185;-11,46108;-25,21088;-39,12344;1,258492;1,29473;1,753756;1,838817;0;0;
2526;-34,61316;-10,5616;-19,48109;-38,9966;1,215264;1,348961;1,874425;1,942749;0;0;
2545;-34,26513;-9,453872;-24,50076;-38,8985;1,111287;1,334923;1,702767;2,028372;0;0;
2566;-30,41542;-1,801957;-25,47762;-43,67206;1,451305;1,547865;1,556957;1,999429;0;0;
2583;-33,91032;-9,805876;-25,73788;-43,31201;1,483725;1,601901;1,455106;1,993216;0;0;
2600;-32,73448;-7,015098;-23,9593;-38,00432;1,551548;1,799519;1,469758;1,97487;0;0;
2617;-35,22976;-3,717411;-25,95424;-40,57407;1,794211;2,043997;1,275428;1,947961;0;0;
2633;-35,22976;-3,717411;-25,95424;-40,57407;2,147975;2,403495;1,071148;1,994701;0;0;
2650;-34,00601;-5,658884;-25,46851;-38,026;1,918123;2,500302;1,145423;1,886356;0;0;
2667;-28,87228;-9,614355;-24,49438;-42,61265;1,915475;2,224758;1,121489;2,116333;0;0;
2689;-35,29277;-11,21641;-26,45003;-35,84557;1,886714;2,33202;1,281927;2,078119;0;0;
2705;-36,35685;-10,23084;-23,72817;-38,26465;1,894913;2,231111;1,532689;1,903385;0;0;
2722;-34,00221;-10,45448;-25,19773;-43,78474;1,64252;1,963784;1,608974;1,903256;0;0;
2738;-36,91948;-6,554567;-22,88006;-41,12029;1,518336;1,917522;1,582846;2,019856;0;0;
2755;-36,91948;-6,554567;-22,88006;-41,12029;1,645769;1,933888;1,547811;2,039945;0;0;
2772;-35,6856;-8,32856;-24,86758;-43,33822;1,389529;1,840542;1,475654;1,856521;0;0;
2789;-32,59843;-5,024182;-24,51128;-28,20683;1,257256;1,76741;1,299328;2,164439;0;0;
2807;-35,06237;-6,419497;-25,8709;-31,44035;1,303396;1,485336;1,107925;2,881111;0;0;
2825;-31,95387;-6,685223;-24,88355;-34,73628;1,49492;1,501427;1,092243;3,081455;0;0;
2841;-33,71857;-9,735407;-22,67469;-40,5951;1,4266;1,652513;1,303258;3,002038;0;0;
2861;-33,46525;-8,032456;-24,00935;-39,71098;1,351738;1,554542;1,55772;3,131904;0;0;
2878;-33,8583;-8,111189;-24,51416;-38,90561;1,560589;1,687281;1,558573;3,190724;0;0;
2895;-33,8583;-8,111189;-24,51416;-38,90561;1,746164;1,832983;1,587779;2,397644;0;0;
2912;-36,13715;-9,467266;-26,16604;-33,58585;1,726533;2,03897;1,571194;3,063957;0;0;
2930;-33,38779;-4,401698;-25,72657;-36,55821;1,794069;2,035329;1,636293;3,469667;0;0;
2947;-35,76655;-7,16797;-23,10776;-35,95417;1,836;1,930896;1,420317;3,514249;0;0;
2965;-36,07225;-7,641802;-27,18949;-37,85896;1,998135;1,996931;1,264291;3,523936;0;0;
2984;-33,03469;-6,659854;-23,15953;-36,20406;1,986628;1,958356;1,221797;3,616175;0;0;
3003;-35,61697;-8,524981;-27,18319;-42,85944;1,838429;1,839831;1,278323;3,114332;0;0;
3021;-31,6993;-9,023685;-24,8186;-30,73372;1,736151;1,767398;1,382248;2,554871;0;0;
3039;-34,33084;-8,516371;-23,52089;-47,67421;1,76721;1,6584;1,333471;2,962743;0;0;
3056;-34,33084;-8,516371;-23,52089;-47,67421;1,89539;1,661665;1,360545;3,739147;0;0;
3072;-36,44186;-4,371978;-24,25926;-37,28323;1,870977;1,592654;1,389554;3,362285;0;0;
3090;-34,54089;-8,641625;-24,99337;-41,59488;1,684353;1,630877;1,445877;3,26664;0;0;
3108;-32,56902;-6,609502;-25,18568;-43,49806;1,624541;1,765752;1,278103;3,363265;0;0;
3127;-36,58695;-6,066766;-23,5998;-38,93565;1,727292;1,728419;1,258067;3,348595;0;0;
3142;-32,05136;-2,285294;-29,34272;-39,46341;1,720191;1,729736;1,414756;2,607108;0;0;
3160;-34,88694;-8,197956;-26,55533;-39,87178;1,70635;1,7503;1,453622;2,486914;0;0;
3177;-36,71132;-9,117455;-26,21813;-53,56364;1,641356;1,678549;1,368496;2,995735;0;0;
3196;-36,71132;-9,117455;-26,21813;-53,56364;1,750446;1,689978;1,316756;3,53572;0;0;
3212;-35,73907;-1,751705;-23,01847;-37,38091;1,727105;1,75618;1,360995;3,495287;0;0;
3228;-35,88742;-9,903339;-20,0142;-38,03838;1,561315;1,782403;1,384431;3,196398;0;0;
3243;-32,81337;-5,696474;-24,33227;-37,56242;1,484865;1,804764;1,226094;3,203455;0;0;
3260;-34,1398;-8,622955;-23,25094;-43,22926;1,398083;1,627019;1,231838;3,335691;0;0;
3274;-34,1398;-8,622955;-23,25094;-43,22926;1,323471;1,489547;1,265874;3,34191;0;0;
3291;-35,24395;-8,369453;-26,47418;-42,30696;1,299273;1,596039;1,253803;3,196211;0;0;
3308;-33,54637;-4,732871;-25,57968;-41,30234;1,563734;1,587251;1,244524;3,31954;0;0;
3327;-33,54637;-4,732871;-25,57968;-41,30234;1,741958;1,634897;1,146731;3,374101;0;0;
3343;-33,04941;-7,411906;-24,38021;-42,60759;2,107489;1,705599;1,202531;3,770622;0;0;
3361;-32,56178;-9,691352;-29,17788;-39,62535;2,157764;1,800544;1,267067;3,267771;0;0;
3379;-33,35041;-7,430677;-21,51785;-36,59109;2,228414;1,906684;1,559998;2,793077;0;0;
3396;-33,35041;-7,430677;-21,51785;-36,59109;2,210984;1,884129;1,831577;2,525281;0;0;
3411;-31,79122;-12,52063;-24,9424;-41,86881;2,025813;1,77531;1,811805;2,49868;0;0;
3428;-32,66659;-5,789204;-27,38241;-44,80005;1,636716;1,705022;1,651015;2,753074;0;0;
3443;-32,11573;-6,991089;-25,7314;-39,10839;1,582208;1,824831;1,690406;2,380868;0;0;
3461;-34,57515;-7,849041;-28,91287;-46,70937;1,731482;1,801155;1,682651;2,696497;0;0;
3478;-34,10527;-3,153281;-26,91241;-34,64468;1,751211;1,843147;1,588598;2,884058;0;0;
3494;-34,10527;-3,153281;-26,91241;-34,64468;1,745514;1,978009;1,56117;3,006608;0;0;
3510;-43,07082;-13,01518;-21,34064;-37,40303;2,227307;2,207846;1,70215;3,176014;0;0;
3527;-31,32289;-17,65553;-17,35626;-45,34524;6,485492;5,801645;2,518836;4,289599;1;0;
3546;-49,91441;-17,47816;-17,66451;-51,74384;11,44832;14,79242;3,461127;5,4861;1;0;
3564;-53,09504;22,31264;-23,39013;-32,64482;16,72946;22,16504;4,124858;6,177299;1;0;
3580;-1,769585;101,5868;-24,43167;-43,25671;31,59732;34,98075;4,005088;6,55711;1;0;
3597;-1,769585;101,5868;-24,43167;-43,25671;46,34314;47,67964;3,924631;6,713587;1;0;
3613;138,1662;36,05624;-27,19949;-44,54615;90,82623;64,78851;3,439032;6,187168;1;0;
3629;-517,5676;-43,32808;-26,2136;-37,93456;125,6848;72,0124;2,390433;5,156723;1;0;
3646;141,1663;59,42245;-23,5076;-39,27635;231,1835;82,72857;1,474653;4,134432;1;0;
3666;533,9639;10,60907;-27,66715;-40,75002;362,0715;87,32899;1,244666;3,220805;1;0;
3702;-1137,26;-155,4368;-16,8683;-43,33439;413,1136;91,60135;7,122326;5,096009;1;0;
3755;253,9614;71,37503;108,0392;6,706547;434,015;93,64622;16,84278;18,32874;1;0;
3802;-12,57483;-45,85538;7,556195;-16,4382;412,075;82,10576;24,13977;24,66008;1;0;
3831;-34,57231;18,23244;-57,96218;-17,27382;350,4617;70,36719;36,81392;31,23723;1;0;
3884;-18,09965;3,79575;-46,076;-42,56189;234,208;56,06644;42,74498;33,01387;0;0;
3927;-48,69548;-9,010776;-23,34217;-20,51281;106,5682;31,96524;40,90395;34,30478;0;0;
3966;-36,92272;-11,03579;-15,68651;-36,5358;70,95062;21,91843;38,04018;29,491;0;0;
4010;-33,89591;-9,730904;-23,14817;-41,31957;18,17702;8,78335;30,0287;20,09984;0;0;
4052;-34,21155;-8,377385;-26,81406;-32,57485;14,33501;5,977663;20,87059;14,60927;0;0;
4090;-37,22442;-8,739985;-28,40799;-37,35197;5,951385;2,828205;11,03794;9,935287;0;0;
4124;-35,31362;-9,391812;-23,99781;-29,3168;3,944395;2,366401;7,28166;8,950034;0;0;
4162;-35,84176;-9,357888;-23,47324;-39,90472;2,787689;2,319403;5,618948;6,888721;0;0;
4190;-34,83124;-5,890136;-22,0534;-35,92288;1,974571;1,929411;2,694711;4,620951;0;0;
4226;-34,50829;-4,427766;-23,14899;-25,54;2,07623;1,976272;2,569694;4,98845;0;0;
4259;-34,61242;-7,061992;-28,46232;-50,37347;1,746476;1,934126;2,186517;5,311136;0;0;
4291;-36,95032;-8,491614;-24,97153;-36,66219;1,593778;1,95429;1,318329;5,82448;0;0;
4331;-32,42304;-4,602391;-19,82438;-45,95203;1,582915;2,062421;1,324154;6,936047;0;0;
4366;-33,83334;-3,723651;-22,00542;-46,1732;1,747934;2,061211;1,409506;8,040689;0;0;
4403;-35,23542;-3,934415;-25,31724;-43,74068;1,65618;1,926164;1,501818;8,50738;0;0;
4441;-32,10709;-6,55079;-25,32302;-31,68287;1,539968;1,790959;1,456369;6,055954;0;0;
4477;-36,10514;-9,856864;-25,41277;-43,65369;1,518912;1,788207;1,41372;5,005723;0;0;
4504;-36,5786;-7,904057;-25,08714;-42,94053;1,597895;1,68202;1,276194;4,82286;0;0;
4540;-32,9874;-11,02127;-23,80322;-40,63805;1,656114;1,868267;1,292607;4,587795;0;0;
4574;-35,25031;-4,716469;-22,99007;-32,66299;1,632758;1,765719;1,260682;4,465742;0;0;
4591;-29,47844;-10,65689;-23,07895;-46,93021;1,663681;1,714614;1,337447;6,937538;0;0;
4629;-34,75816;-8,900372;-25,73909;-36,49747;1,740021;1,797907;1,374862;8,904345;0;0;
4644;-32,64748;-6,384144;-22,4299;-38,40563;1,475731;1,589372;1,334263;8,944016;0;0;
4679;-34,90228;-7,421912;-25,72718;-62,61982;1,396192;1,565162;1,587793;12,54502;0;0;
4704;-32,94339;-4,150199;-19,83032;-38,32247;1,418769;1,547365;1,677094;13,13593;0;0;
4720;-25,29419;-6,540162;-26,05102;-43,38741;1,849689;1,731174;1,805687;11,83339;0;0;
4754;-36,0938;-5,803396;-26,32655;-49,83459;1,848751;1,730895;1,95887;12,42005;0;0;
4789;-32,92628;-4,910803;-29,86432;-49,04123;1,809936;1,794771;2,077731;11,40588;0;0;
4806;-35,24295;-7,219623;-26,06528;-34,64268;1,864174;1,736393;2,016561;10,96231;0;0;
4833;-33,90903;-6,149366;-23,76797;-44,24138;1,920196;1,761696;1,876561;9,103642;0;0;
4860;-32,06559;-8,510991;-20,76785;-12,59317;1,79814;1,507863;1,909846;9,375222;0;0;
4892;-31,92607;-4,007288;-26,95065;-41,0089;1,218011;1,542709;1,83324;7,026354;0;0;
4924;-35,74424;-10,17436;-22,11379;-35,81662;1,398409;1,593415;1,572627;6,112285;0;0;
4958;-36,0332;-9,368201;-22,96889;-45,00754;1,49042;1,498327;1,545592;6,955652;0;0;
5007;-34,52956;-4,161802;-30,25392;-43,1829;1,445165;1,735793;1,659359;5,831151;0;0;
5024;-33,15371;-2,026462;-21,79635;-56,46305;1,416316;1,804831;2,009754;5,718519;0;0;
5049;-34,0866;-7,283313;-26,20419;-42,76955;1,435668;1,879059;1,843904;7,347635;0;0;
5075;-30,13501;-4,963895;-23,85839;-47,38604;1,459585;1,876786;1,871423;7,619985;0;0;
5093;-36,98693;-8,893142;-25,47327;-44,59944;1,416498;1,966156;1,732756;7,297225;0;0;
5134;-34,22092;-6,41025;-23,8166;-49,73586;1,237163;1,921622;1,722543;8,258764;0;0;
5168;-35,24644;-8,40897;-24,33554;-39,25621;1,295806;1,939537;1,584351;8,191956;0;0;
5195;-31,75262;-8,565845;-24,67651;-35,47577;1,366516;1,918536;1,459798;7,354064;0;0;
5211;-34,96597;-8,085613;-25,45053;-34,35223;1,398318;1,630014;1,574477;6,17986;0;0;
5238;-32,70877;-5,157459;-21,91221;-40,08535;1,313865;1,749193;1,653683;5,397149;0;0;
5268;-36,94089;-7,527864;-22,69203;-22,49904;1,398981;1,665684;1,818585;6,572711;0;0;
5297;-33,51713;-7,757383;-27,19625;-41,2091;1,296477;1,930354;1,769468;6,735006;0;0;
5313;-33,51713;-7,757383;-27,19625;-41,2091;1,271901;1,950986;1,627324;8,01829;0;0;
5331;-32,56541;-2,361679;-24,6463;13,39795;1,315866;2,1483;1,563647;8,335366;0;0;
5347;-33,01957;-4,545731;-26,20497;-44,9923;1,356754;2,231282;1,612554;8,343439;0;0;
5363;-32,80133;-8,938764;-25,7391;-33,91182;1,387492;2,125729;1,541172;8,011822;0;0;
5380;-34,01093;-7,767262;-25,21773;-49,02773;1,451923;1,902566;1,447278;5,885281;0;0;
5407;-31,23645;-5,713984;-28,64979;-43,5891;1,603761;1,749472;1,635246;6,245712;0;0;
5424;-32,38618;-9,745689;-25,22023;-66,48676;1,539856;1,822583;1,782341;6,361372;0;0;
5450;-29,06794;-9,736596;-30,1453;-41,6765;1,752936;1,814459;1,908505;5,753885;0;0;
5468;-34,37841;-8,578989;-23,86742;-43,00819;1,766861;1,670285;2,080121;6,650331;0;0;
5485;-33,77838;-7,405669;-25,81013;-49,37084;1,685707;1,695211;2,064389;7,374337;0;0;
5502;-34,28007;-8,447886;-24,13749;-52,61617;1,56892;1,747782;1,99083;5,684673;0;0;
5531;-33,10003;-6,876336;-25,81459;-43,34573;1,443872;1,578686;1,808056;6,224072;0;0;
5548;-34,14943;-11,46715;-27,73713;-40,25066;1,570893;1,777957;1,774285;5,827119;0;0;
5564;-32,57161;-11,57828;-23,35098;-38,84821;1,381361;1,5969;1,469586;4,90807;0;0;
5581;-36,5907;-9,793984;-23,2471;-41,3805;1,590345;1,704925;1,381243;5,583075;0;0;
5610;-23,39228;-1,173154;-25,06284;-43,84997;1,914112;2,289351;1,325621;4,680062;0;0;
5627;-50,53627;0,413996;-25,73725;-38,44552;3,687591;4,028924;1,359053;4,340916;0;0;
5644;-24,80665;-54,09111;-23,23631;-41,08273;8,456071;9,165913;1,337945;3,679173;1;0;
5662;267,7848;18,94976;-24,52337;-59,37045;36,04341;23,1768;1,28167;4,99331;1;0;
5677;200,0556;1,703313;-22,32856;-29,3029;58,21368;36,34946;1,489873;5,802168;1;0;
5695;200,0556;1,703313;-22,32856;-29,3029;80,44416;49,50439;1,560526;6,317418;1;0;
5710;-192,8927;-91,1328;-34,2812;-23,83791;113,253;55,06081;2,852498;7,893178;1;0;
5727;-68,46635;26,74063;2,676159;-9,1165;163,5534;62,33807;9,316392;10,20882;1;0;
5744;586,9512;-7,900717;365,1309;-10,20188;218,4672;65,7336;45,34009;16,74152;1;0;
5761;136,8069;87,07391;135,6048;-101,6244;297,3109;58,42197;90,13381;28,19144;1;0;
5783;174,2772;-10,70035;213,8964;-170,3392;351,0787;53,87016;116,1968;37,86673;0;0;
5805;-669,9205;-289,3083;-58,73359;-64,73003;361,54;52,60018;121,8119;51,35236;0;0;
5832;209,9129;134,7975;53,19476;61,01323;397,6746;55,52856;129,4335;58,14344;0;0;
5853;148,4368;-13,43443;-106,0264;45,44701;372,7436;52,31675;131,7797;64,91927;0;0;
5869;-151,8368;-69,96828;34,90614;61,39172;321,4959;44,25707;108,2623;65,31878;0;0;
5886;-41,82445;-8,118869;-9,717039;-102,3853;233,8765;33,52906;82,14222;58,70658;0;0;
5905;-14,21296;-14,52448;-7,968625;-36,25513;180,6418;28,31409;84,1542;54,26232;0;0;
5926;-33,42299;-10,0695;-28,88596;-44,14073;112,0366;17,01463;92,04862;52,03688;0;0;
5942;-41,21327;-9,879344;-17,98889;-48,29908;60,31979;10,66141;81,86005;52,70425;0;0;
5975;-31,69541;-5,875419;-35,01808;1,783169;26,36627;5,094352;77,56656;50,23915;0;0;
5994;-47,55926;-3,452508;23,02377;11,48515;7,502301;3,129584;69,0624;45,13689;0;0;
6010;-26,11015;-7,789204;-98,91663;-43,36334;6,782046;3,203123;61,60297;39,75835;0;0;
6027;-35,74553;-4,783761;-20,5421;4,134421;5,861502;2,53656;54,84139;35,93244;0;0;
6049;-37,20414;-6,921605;-90,75188;-37,63096;6,028278;2,387762;55,11974;29,95521;0;0;
6064;-36,06936;-6,065984;-126,4507;-55,72859;5,207024;2,23785;46,1912;26,38867;0;0;
6080;-36,21656;-7,005511;-33,72643;-69,38078;4,681881;2,009958;38,99697;23,48174;0;0;
6099;-34,52074;-9,771088;-17,45393;-50,4846;3,587323;1,745646;36,63464;21,58365;0;0;
6116;-34,52074;-9,771088;-17,45393;-50,4846;2,492383;1,726316;33,76132;18,34934;0;0;
6132;-30,23133;-8,396462;36,4569;-45,50345;2,42934;1,569802;30,10926;14,80054;0;0;
6148;-33,26844;-6,305493;-30,27867;-24,67083;2,041216;1,65437;29,83183;15,68452;0;0;
6167;-34,26666;-10,72388;-40,10874;-42,3149;1,87367;1,698504;26,26132;16,21495;0;0;
6184;-32,54754;-5,718452;-66,41959;-47,94733;1,593965;1,795515;26,61272;16,0971;0;0;
6202;-31,20608;-9,919508;-5,920615;-21,59579;1,324405;1,687214;24,0469;22,39221;0;0;
6220;-32,63717;-8,764675;-14,14315;-39,70388;1,447704;1,720888;20,24024;26,63682;0;0;
6238;-33,72634;-6,203004;-30,09745;-40,19432;1,324383;1,682698;12,88102;26,5606;0;0;
6258;-36,23965;-6,67492;-27,39977;-54,77048;1,297481;1,677758;9,970474;26,89025;0;0;
6275;-36,23965;-6,67492;-27,39977;-54,77048;1,201037;1,752985;6,801783;25,53145;0;0;
6292;-35,25962;-6,914442;-24,1601;-34,88289;1,286561;1,548967;5,15015;21,87542;0;0;
6310;-31,06388;-6,060643;-23,72224;-37,69761;1,403516;1,531826;3,170906;13,82593;0;0;
6329;-35,25757;-8,834596;-31,62198;-41,14017;1,353083;1,397513;2,725845;10,14907;0;0;
6344;-34,60522;-7,587209;-25,84449;-40,26891;1,37752;1,289361;2,729286;7,945548;0;0;
6360;-31,92787;-6,079256;-25,72527;-45,72643;1,521927;1,311754;2,405863;5,799121;0;0;
6376;-31,92787;-6,079256;-25,72527;-45,72643;1,563654;1,337595;1,85866;4,660418;0;0;
6394;-35,865;-8,576953;-21,99681;-31,56511;1,646208;1,240972;1,984335;4,741465;0;0;
6410;-36,10867;-6,873523;-24,17066;-43,17537;1,55753;1,153903;1,976116;4,714337;0;0;
6428;-32,2289;-4,598921;-24,11869;-25,89773;1,703686;1,26469;1,789819;4,623935;0;0;
6444;-32,69407;-3,47413;-26,11756;-35,94867;1,746177;1,39802;1,637025;5,12643;0;0;
6462;-35,59797;-9,765588;-23,88602;-33,3497;1,730659;1,413565;1,624026;5,801125;0;0;
6478;-33,28429;-9,034254;-22,08101;-41,17426;1,845561;1,354602;1,54372;5,2742;0;0;
6494;-33,28429;-9,034254;-22,08101;-41,17426;1,883922;1,457451;1,442211;4,942398;0;0;
6509;-35,22474;-6,634997;-22,90242;19,89185;2,060919;1,88889;1,324865;8,682144;0;0;
6528;-35,73889;-8,412382;-26,85712;-8,022395;1,95381;1,970648;1,390965;12,52405;0;0;
6547;-33,7678;-6,614625;-29,39953;-30,25288;1,907892;1,918164;1,525114;14,11663;0;0;
6564;-35,84331;-6,683778;-26,65083;-44,9996;1,879831;1,946051;1,621778;15,3289;0;0;
6580;-31,93851;-8,119837;-25,10422;-66,37867;1,637325;1,991159;1,708054;20,39918;0;0;
6598;-35,0834;-8,767597;-18,64941;-5,105653;1,554326;2,124021;1,983061;22,25397;0;0;
6616;-35,0834;-8,767597;-18,64941;-5,105653;1,217178;1,772712;2,289638;20,67074;0;0;
6634;-34,06137;-8,194876;-24,71971;-47,17848;1,422676;1,768557;2,251304;20,47271;0;0;
6651;-34,80959;-6,350401;-23,83019;-30,34942;1,345973;1,656479;1,998791;19,52106;0;0;
6669;-33,9285;-8,761481;-24,47495;-37,45607;1,290689;1,553857;1,965374;17,4687;0;0;
6686;-29,20815;-7,073398;-22,89668;-37,43607;1,498423;1,59626;2,059107;15,14359;0;0;
6703;-34,90384;-9,262882;-23,82463;-41,10624;1,529095;1,565276;1,780745;14,49041;0;0;
6720;-36,70599;-5,476852;-28,24923;-42,32608;1,526196;1,764069;1,595019;14,91723;0;0;
6738;-35,25875;-8,408267;-23,70755;13,71506;1,539869;1,938407;1,723798;14,35072;0;0;
6756;-35,25875;-8,408267;-23,70755;13,71506;1,664682;2,072838;1,894394;15,82402;0;0;
6773;-34,19842;-4,736585;-23,17545;-46,5446;1,618354;2,340333;1,965674;15,07889;0;0;
6794;-34,92537;-7,768803;-26,8153;-45,23035;1,537564;2,25672;1,898526;15,34882;0;0;
6810;-32,56773;-8,759356;-22,30418;-128,286;1,768098;2,125475;1,876712;17,0913;0;0;
6831;-32,42576;-7,908706;-28,20332;-49,15748;1,71611;1,998367;1,813933;15,99817;0;0;
6848;-33,71248;-8,05405;-20,53285;7,186207;1,515684;2,030391;1,771801;16,72506;0;0;
6864;-31,57053;-11,59788;-23,3946;-51,5763;1,520588;1,986586;1,703418;17,94335;0;0;
6882;-37,33258;-9,236217;-25,37404;-46,34833;1,554048;1,965635;1,675403;18,99816;0;0;
6899;-31,71938;-5,713165;-25,9913;-41,23713;1,785429;1,916471;1,656852;19,39422;0;0;
6916;-31,71938;-5,713165;-25,9913;-41,23713;1,865519;2,068396;1,461832;16,97305;0;0;
6934;-31,37647;-3,982276;-20,77068;-33,72545;1,797932;2,205138;1,435815;17,02714;0;0;
6949;-31,58047;-8,87539;-24,4911;-35,77074;1,909665;2,183514;1,485071;15,042;0;0;
6967;-32,74014;-5,893852;-23,78314;-43,91053;1,852032;2,254514;1,321565;12,16925;0;0;
6985;-36,25895;-7,442712;-25,42714;-38,23291;1,81947;2,114306;1,597186;10,31035;0;0;
7004;-33,41008;-3,971756;-25,04427;-30,07586;1,488004;2,149933;1,816441;9,130035;0;0;
7026;-32,21537;-8,03638;-21,24032;-55,32022;1,322026;2,086943;2,04656;12,31224;0;0;
7043;-35,25865;-6,859022;-22,50329;-21,44309;1,320659;1,783533;1,933212;11,2047;0;0;
7061;-35,87697;-9,382805;-26,31296;-48,77328;1,454464;1,600232;1,947369;11,63158;0;0;
7076;-35,87697;-9,382805;-26,31296;-48,77328;1,625905;1,508504;2,09908;13,03919;0;0;
7093;-34,59116;-4,606817;-24,24459;-15,3875;1,615728;1,556272;1,785949;15,13046;0;0;
7112;-30,60857;-8,399345;-27,81954;-51,12171;1,778404;1,380775;1,711085;14,30856;0;0;
7129;-32,03499;-7,278039;-22,30457;-50,6524;1,67943;1,35922;1,643276;13,8958;0;0;
7145;-36,22493;-8,478378;-23,90063;-31,921;1,553022;1,393912;1,716361;13,82272;0;0;
7162;-35,61197;-7,715822;-24,64041;-51,6152;1,476297;1,420276;1,770076;12,37764;0;0;
7178;-35,89946;-7,121338;-26,54333;-37,59048;1,416587;1,571368;1,804472;12,43209;0;0;
7196;-35,89946;-7,121338;-26,54333;-37,59048;1,434659;1,478344;1,809541;10,21733;0;0;
7211;-35,87688;-14,63319;-21,29881;-32,7052;1,269005;1,661182;1,95911;11,67462;0;0;
7229;-35,61806;-7,63341;-20,47013;-32,5974;1,357949;1,640002;1,9138;11,93898;0;0;
7245;-31,75637;-6,877937;-25,9421;-9,333064;1,343031;1,584976;1,913017;13,35191;0;0;
7262;-37,9393;-8,280711;-23,23506;-36,89952;1,447631;1,596718;1,724725;14,61292;0;0;
7277;-32,19822;-7,42011;-23,66173;-44,49056;1,474247;1,447184;1,67952;16,03644;0;0;
7293;-32,19822;-7,42011;-23,66173;-44,49056;1,513596;1,363279;1,646159;16,34494;0;0;
7312;-29,892;-7,764416;-22,73558;-32,13033;1,576522;1,227725;1,684573;13,48705;0;0;
7329;-34,14983;-10,0506;-23,70752;-37,27847;1,740174;1,425288;1,636237;15,40668;0;0;
7346;-32,64587;-10,71351;-26,44735;-58,58606;1,687856;1,6807;1,772957;15,36209;0;0;
7367;-33,64299;-9,589308;-23,93191;-20,65709;1,495261;1,715341;1,698568;15,04951;0;0;
7383;-33,14446;-13,43334;-26,20778;-40,52525;1,410789;1,823477;1,607087;13,77786;0;0;
7400;-33,8088;-11,60702;-21,8051;-40,96399;1,468567;2,167958;1,728632;13,97054;0;0;
7416;-33,8088;-11,60702;-21,8051;-40,96399;1,267319;2,450814;1,816861;13,6633;0;0;
7433;-33,27228;-8,365745;-23,09258;-34,36103;1,293655;2,034732;1,815154;11,4222;0;0;
7453;-34,39439;-9,270036;-26,60923;-18,09127;1,269584;1,968993;1,680474;11,48973;0;0;
7470;-32,25396;-11,51787;-25,86882;-17,46882;1,268332;1,932361;1,796862;11,44511;0;0;
7487;-33,27374;-6,174315;-26,63388;-49,42635;1,690795;2,019611;1,72921;10,9679;0;0;
7503;-29,21024;-8,270056;-21,79093;-24,85361;2,325704;2,350563;1,577134;10,40257;0;0;
7520;-53,09911;-42,15395;-27,34713;-66,02202;6,126857;7,699728;1,516563;10,52783;0;0;
7538;-28,27496;-125,2719;-22,71666;-29,82157;13,34906;16,33871;1,609689;10,03358;0;0;
7558;203,2651;230,9811;-17,15656;-24,41644;32,13985;29,16087;1,802502;10,04676;1;0;
7577;203,2651;230,9811;-17,15656;-24,41644;50,74096;41,8815;1,886014;10,20569;1;0;
7593;1064,081;169,4382;-29,52596;-49,64313;115,9012;62,5247;2,059819;10,76093;1;0;
7610;131,1659;84,93932;-21,44747;-72,98512;170,6736;78,83782;2,853214;11,86873;1;0;
7631;17,58689;28,6297;-10,13019;-73,36662;266,2458;89,03991;5,388901;13,26875;1;0;
7648;-113,829;-163,4233;40,64148;8,050073;328,5968;89,79666;15,04768;15,75909;1;0;
7668;938,0728;169,1259;-26,637;-59,5647;366,1016;90,65561;20,60427;22,57771;1;0;
7685;507,4357;64,18111;215,6183;-17,93694;435,1705;83,60483;34,41441;32,41095;1;0;
7702;-311,0785;-2,439412;-86,48962;14,52889;388,0345;77,42429;43,91312;45,67467;1;0;
7719;-16,02482;39,61587;-17,35221;-206,0895;329,7988;61,87057;49,45611;54,61127;1;0;
7739;954,1771;-0,3994431;-5,556467;100,6576;311,477;53,22463;57,7161;60,29746;1;0;
7757;954,1771;-0,3994431;-5,556467;100,6576;335,0081;42,97551;64,2852;61,52365;1;0;
7771;-53,92327;-9,331652;231,6084;-201,3525;222,8845;37,85194;70,87319;65,60513;1;0;
7788;-26,74355;-13,87599;-38,61102;-35,49592;175,758;26,84852;72,10957;64,94268;1;0;
7808;-27,74512;-7,432749;131,2292;47,23611;147,9478;23,0702;72,38351;59,78661;0;0;
7828;-45,98867;-8,47193;-5,322326;12,5616;123,5377;18,56427;71,77026;58,61501;0;0;
7847;-29,66994;-6,035898;-17,79467;-326,2753;56,46404;13,01546;61,827;74,64719;0;0;
7865;-50,30467;-13,14768;-135,4119;-39,11796;8,171884;6,542045;53,74119;70,65894;0;0;
7883;-22,09696;-4,189704;9,433613;-2,429572;6,638585;3,208408;46,14589;64,14685;0;0;
7899;-32,11238;-7,415072;-14,64731;-110,1801;6,313108;2,258802;45,5639;67,61337;0;0;
7918;-37,92612;-8,081889;-26,01812;-127,2334;5,972721;1,82131;36,5216;72,00177;0;0;
7942;-38,92893;-10,0995;-15,95691;-35,22271;5,379918;1,639908;32,45374;64,55052;0;0;
7964;-36,16635;-7,688116;-22,60349;-60,44781;4,780752;1,632941;29,86463;41,90655;0;0;
7981;-35,45915;-6,05097;-3,875606;-33,60949;3,441185;1,285551;21,8021;36,26292;0;0;
7999;-35,45915;-6,05097;-3,875606;-33,60949;2,122895;1,260485;13,4283;30,59213;0;0;
8014;-35,45915;-6,05097;-3,875606;-33,60949;1,925339;1,270184;8,471341;20,74486;0;0;
8033;-35,85608;-5,504233;-23,87158;-70,90318;1,780377;1,494367;7,436367;16,01624;0;0;
8049;-37,76334;-9,857494;-27,17218;-36,28423;1,528494;1,635641;5,286473;14,40699;0;0;
8068;-36,04415;-3,98237;-23,648;-48,85422;1,675236;1,578952;5,116887;11,9437;0;0;
8084;-32,55539;-6,190719;-24,50542;-12,21862;1,573553;1,601509;4,077012;10,97147;0;0;
8102;-34,44902;-5,515026;-30,03582;-45,99493;1,466543;1,732244;3,228383;10,65084;0;0;
8119;-33,91046;-8,075092;-20,7879;-44,26651;1,299813;1,80465;2,645954;8,795009;0;0;
8138;-33,66325;-4,345294;-32,89684;-38,08264;1,337047;1,675062;2,750911;6,468969;0;0;
8154;-33,66325;-4,345294;-32,89684;-38,08264;1,337231;1,742981;2,863017;5,902155;0;0;
8168;-32,73964;-5,969893;-18,36152;-39,83486;1,554082;1,775918;3,943508;5,516906;0;0;
8183;-32,55654;-9,296593;-26,22325;-46,25953;1,694842;1,745334;4,045455;4,329093;0;0;
8201;-34,23478;-7,432046;-27,8353;9,228115;1,761423;1,622755;3,710343;6,858844;0;0;
8220;-34,94537;-6,20993;-26,05974;-51,92836;1,675002;1,732701;3,693396;8,619351;0;0;
8236;-34,94537;-6,20993;-26,05974;-51,92836;1,554431;1,874049;3,650717;10,70123;0;0;
8253;-35,19741;-8,275504;-24,29978;-13,80899;1,356271;1,712047;2,95931;12,86363;0;0;
8270;-35,60673;-5,893807;-20,21845;-41,05406;1,126743;1,725265;1,828638;14,80912;0;0;
8288;-32,93471;-10,54625;-27,02365;-41,21471;1,02248;1,754409;1,904647;16,25012;0;0;
8304;-32,56468;-4,828684;-25,99327;-54,31308;1,129285;1,810904;1,758511;19,05214;0;0;
8321;-35,94884;-9,36752;-25,30168;5,201231;1,311207;1,689572;1,606409;20,6998;0;0;
8339;-35,24635;-5,883545;-26,2189;-64,76804;1,29397;1,551033;1,686293;21,97071;0;0;
8360;-35,60388;-9,736621;-29,35218;-34,6161;1,371649;1,605463;1,739202;22,10506;0;0;
8376;-35,60388;-9,736621;-29,35218;-34,6161;1,396127;1,502278;1,771886;21,20047;0;0;
8393;-34,25391;-9,307562;-27,98979;-74,51929;1,297179;1,558561;1,782508;20,33107;0;0;
8412;-34,71238;-6,707349;-23,44989;-39,96848;1,288092;1,579222;1,982721;14,48877;0;0;
8428;-35,71562;-9,392438;-22,68021;-41,17386;1,343724;1,4876;2,077814;13,84252;0;0;
8442;-33,15369;-7,44563;-27,7271;-38,28187;1,640316;1,539999;2,082683;12,65631;0;0;
8460;-36,56157;-11,44128;-22,17423;-46,61604;1,646984;1,901716;2,01797;14,03146;0;0;
8475;-36,56157;-11,44128;-22,17423;-46,61604;1,715536;2,158624;1,89447;15,42013;0;0;
8491;-33,84639;-5,222239;-25,67205;-101,3825;1,810593;1,990984;1,836414;17,15454;0;0;
8509;-28,46341;-8,584268;-25,25567;-45,67931;1,984613;2,117482;1,804104;17,20808;1;0;
8526;-24,40687;-4,999293;-21,08274;-41,6286;2,366152;2,321062;1,860608;18,38602;1;0;
8542;-27,32398;-10,81897;-22,29243;-16,56806;3,492655;3,066348;1,811245;16,24672;1;0;
8559;-39,84592;-6,93042;-23,22892;-39,26066;4,954806;4,224985;1,845933;14,22152;1;0;
8575;-39,84592;-6,93042;-23,22892;-39,26066;6,376411;5,610101;1,949185;13,15205;1;0;
8592;59,89936;3,732948;-25,23285;-38,62003;15,14438;19,78551;1,736697;11,67239;1;0;
8608;113,0385;-235,2757;-26,46676;-33,38294;25,3466;34,1202;1,580762;13,27373;1;0;
8632;563,1351;97,79988;-19,97993;-40,8633;96,67631;46,48769;1,79797;13,28654;1;0;
8650;-1155,598;-104,5218;-23,01128;-51,43414;162,0563;60,09142;2,066995;12,41471;1;0;
8668;1494,594;142,2093;-12,69034;-15,22753;264,2903;71,77212;5,181504;14,03292;1;0;
8686;1494,594;142,2093;-12,69034;-15,22753;364,9411;79,92526;8,310078;14,82022;1;0;
8705;283,9199;-16,78036;-170,1035;-58,75635;380,0815;72,46959;19,82304;19,21972;1;0;
8722;30,55333;3,713506;14,6624;59,87831;405,0028;70,55595;28,33322;22,69496;1;0;
8740;-184,7562;-69,28768;192,8356;-72,33115;384,8176;63,66917;45,24865;28,87286;1;0;
8759;-50,49945;-13,04612;38,42102;-67,43686;299,4113;51,14772;69,46078;34,42803;1;0;
8781;-27,40853;-13,00368;25,0775;-31,73901;198,3432;38,68775;80,10614;37,89767;1;0;
8800;-35,25363;-5,350345;81,31318;51,17537;133,1436;36,17283;92,51366;38,48996;0;0;
8817;-35,25363;-5,350345;81,31318;51,17537;95,01875;33,61234;95,71068;38,19981;0;0;
8835;-20,45713;-2,351405;123,6896;-98,0643;27,46293;16,38107;108,006;44,32352;0;0;
8851;-32,92092;-9,613897;-103,7777;-19,83333;10,04352;13,22894;97,97927;47,64914;0;0;
8867;-42,56535;-7,403953;19,45999;-4,073879;5,296182;12,43153;83,96042;52,56165;0;0;
8883;-23,03776;-5,431744;-87,26935;-42,85212;5,323267;8,836226;73,99883;53,14783;0;0;
8899;-30,30721;-10,10594;-13,87037;-15,83564;5,402826;3,824817;58,86875;53,14721;0;0;
8917;-30,30721;-10,10594;-13,87037;-15,83564;5,707291;2,090668;41,39835;49,49585;0;0;
8934;-37,45641;-6,893421;-4,711881;-59,23639;5,025809;1,963133;30,48124;40,55571;0;0;
8950;-34,38894;-9,367289;-54,23632;-91,63726;4,928473;1,99055;21,41558;33,34259;0;0;
8967;-33,8989;-10,26025;-25,80578;-32,88215;4,192599;2,022792;22,41309;30,45103;0;0;
8988;-35,58053;-10,44701;-54,61852;-50,18532;2,857236;2,037963;22,56354;31,75049;0;0;
9005;-35,24107;-8,580172;-10,64871;-26,75743;2,407436;1,818585;24,60184;30,13273;0;0;
9022;-33,56462;-10,60113;-22,99206;39,86282;2,202288;1,835608;24,01263;29,86604;0;0;
9040;-34,71877;-7,423137;-30,13343;-55,2612;1,872799;1,88094;20,25247;32,37195;0;0;
9058;-34,89043;-7,771562;-18,52075;-65,09866;1,728473;1,945271;13,78915;32,045;0;0;
9075;-34,89043;-7,771562;-18,52075;-65,09866;1,502258;1,879793;11,0397;31,05316;0;0;
9093;-33,63943;-7,220072;-17,82593;12,70975;1,512044;1,901685;8,918167;28,83747;0;0;
9108;-28,87689;-4,922682;-12,83519;-5,995353;1,803426;2,016531;6,144936;26,19706;0;0;
9125;-32,93372;-10,31106;-22,07059;-23,20964;1,733227;1,965769;6,209372;19,90455;0;0;
9140;-35,24407;-7,226218;-24,05856;-48,07398;1,686372;2,032;5,945084;16,79452;0;0;
9158;-31,83248;-6,796742;-20,48953;-40,45866;1,930481;1,938409;5,530924;12,501;0;0;
9173;-31,83248;-6,796742;-20,48953;-40,45866;2,035491;1,771484;4,957769;11,36829;0;0;
9193;-34,43945;-5,893928;-29,77488;-29,85038;1,968216;1,834449;4,375841;10,23558;0;0;
9209;-33,90913;-4,865577;-26,60681;-36,11863;1,712605;1,840285;3,373128;9,533472;0;0;
9227;-35,9514;-7,173388;-21,8239;-16,27197;1,826668;1,816373;3,677107;8,66892;0;0;
9243;-32,56246;-7,109012;-28,05246;-45,43;1,622584;1,77274;3,296784;7,688997;0;0;
9262;-36,96694;-5,456469;-27,43792;-46,00233;1,466326;1,64659;2,781251;7,950475;0;0;
9276;-36,96694;-5,456469;-27,43792;-46,00233;1,441512;1,537992;2,468755;7,872817;0;0;
9293;-35,43367;-7,74759;-28,99828;-40,53304;1,376025;1,379319;2,348478;9,589976;0;0;
9308;-32,65914;-4,805669;-23,52711;-48,21053;1,363103;1,366676;2,168836;12,37232;0;0;
9325;-32,73578;-8,896891;-20,82785;-37,17334;1,344017;1,469875;1,676362;11,44114;0;0;
9341;-35,24873;-4,494963;-28,04365;-48,52563;1,222891;1,574678;1,823407;10,98142;0;0;
9360;-34,6317;-6,064488;-23,90435;-41,22028;1,104077;1,885563;1,916925;11,44537;0;0;
9375;-34,6317;-6,064488;-23,90435;-41,22028;1,078473;2,07587;1,972644;11,45544;0;0;
9391;-32,18255;-11,68935;-24,17106;-25,93697;1,093463;2,251732;1,997156;10,73252;0;0;
9408;-34,62648;-11,40126;-21,95789;-28,00029;1,02137;2,156564;2,087933;9,844696;0;0;
9425;-35,72255;-4,886392;-27,56741;-62,96653;1,055879;2,154848;2,084726;13,14629;0;0;
9442;-34,27686;-8,153309;-23,78367;-26,47604;1,237658;1,860489;1,991618;17,03273;0;0;
9461;-34,14135;-8,64042;-22,66604;-48,73846;1,176584;1,750758;1,9335;19,27267;0;0;
9477;-33,89585;-5,157468;-26,48341;-43,84256;1,145289;1,841162;1,850819;19,13962;0;0;
9494;-33,89585;-5,157468;-26,48341;-43,84256;1,120831;1,95781;1,775742;17,715;0;0;
9509;-34,25859;-7,037784;-21,49403;-42,08863;1,165928;1,98031;1,776456;18,88975;0;0;
9527;-32,90407;-7,420139;-23,85108;-43,44929;0,9999003;1,994028;1,723748;15,62877;0;0;
9543;-35,70378;-5,075066;-24,88133;-43,039;1,03464;2,088118;1,725967;12,99144;0;0;
9561;-32,877;-6,356791;-22,1815;-43,36367;1,095977;2,044711;1,568216;13,96783;0;0;
9605;-34,68635;-6,410831;-22,90906;-52,42747;1,221221;1,872866;1,521763;13,38195;0;0;
9621;-33,71263;-7,596332;-26,81246;-40,19823;1,307632;1,668189;1,531078;11,59853;0;0;
9636;-33,71263;-7,596332;-26,81246;-40,19823;1,341443;1,587964;1,526899;10,68333;0;0;
9653;-36,60024;-8,896366;-24,89459;-39,92251;1,332054;1,587529;1,543677;10,77794;0;0;
9670;-34,26172;-6,416659;-26,21634;-68,07938;1,327678;1,399202;1,455152;10,48546;0;0;
9688;-30,86335;-4,086581;-26,45462;-87,05151;1,419405;1,552091;1,571742;11,59824;0;0;
9703;-37,21098;-9,811501;-24,52382;-36,35713;1,6025;1,624085;1,696246;12,30586;0;0;
9720;-37,8898;-7,012089;-25,14651;-42,60205;1,628549;1,652053;1,686734;12,6995;0;0;
9738;-35,20743;-10,90762;-26,04717;-47,56871;1,790157;1,790143;1,445844;12,5491;0;0;
9756;-35,20743;-10,90762;-26,04717;-47,56871;1,803676;1,832192;1,476361;10,37197;0;0;
9772;-31,45123;-6,223888;-24,36196;-42,64761;1,720418;1,82741;1,539669;11,20661;0;0;
9789;-34,26069;-8,82751;-23,94425;-37,20903;1,613441;1,803603;1,449421;8,75503;0;0;
9806;-33,41221;-7,280671;-25,55265;-43,12118;1,384333;1,813057;1,377072;8,681695;0;0;
9823;-35,42934;-5,919074;-27,06867;-34,94292;1,199242;1,632027;1,527374;9,269752;0;0;
9839;-33,97987;-6,889386;-23,52379;-42,89357;1,103766;1,681903;1,730825;10,45834;0;0;
9856;-33,97987;-6,889386;-23,52379;-42,89357;1,094328;1,82447;1,769716;9,862025;0;0;
9879;-33,55809;-7,003237;-26,86148;-47,61626;1,130301;1,733264;1,840483;8,007471;0;0;
9896;-33,55809;-7,003237;-26,86148;-47,61626;1,030626;1,7975;1,91555;7,783463;0;0;
9912;-37,94951;-9,845885;-25,97642;-45,00897;1,186684;1,806519;1,853107;9,187624;0;0;
9929;-35,26067;-7,906492;-24,13784;-44,01952;1,236735;1,818344;1,714662;9,038023;0;0;
9946;-31,76763;-7,194329;-22,52619;-19,73226;1,233341;1,634685;1,677963;10,10423;0;0;
9963;-34,54225;-7,649051;-26,82431;-41,59613;1,149541;1,466957;1,70012;9,872587;0;0;
9981;-34,25833;-6,050325;-28,17075;-42,31662;1,337925;1,647625;1,651309;9,025564;0;0;
10000;-34,93236;-6,86175;-25,90854;-30,02395;1,325216;1,522372;1,613867;8,070005;0;0;
10017;-33,29049;-6,695893;-23,807;-42,06604;1,310954;1,670092;1,602798;7,371317;0;0;
10036;-33,29049;-6,695893;-23,807;-42,06604;1,241231;1,80794;1,568522;7,744408;0;0;
10052;-34,62887;-8,581294;-22,43806;-39,48338;1,242478;1,783155;1,501111;6,485953;0;0;
10070;-34,98046;-7,04143;-26,68561;9,153687;1,361132;1,873856;1,566041;7,123665;0;0;
10086;-34,77198;-8,394507;-22,9103;-41,84153;1,360564;1,725988;1,536506;8,423975;0;0;
10103;-33,27776;-11,82868;-25,6763;-42,0569;1,363908;1,7113;1,408651;6,927795;0;0;
10118;-32,03283;-6,690368;-27,21219;-29,46784;1,468566;1,594557;1,388674;7,724724;0;0;
10136;-32,03283;-6,690368;-27,21219;-29,46784;1,500111;1,590019;1,469215;9,147006;0;0;
10151;-36,27483;-6,500566;-24,47588;-36,08041;1,425381;1,794426;1,378077;9,010896;0;0;
10166;-35,79926;-6,619566;-23,59052;-16,64668;1,480421;1,760758;1,459866;9,287332;0;0;
10182;-35,12897;-11,06954;-29,32442;-38,432;1,408118;1,717231;1,789288;9,867046;0;0;
10199;-33,43066;-6,066262;-22,56775;-41,65424;1,492179;1,559896;1,870204;10,45326;0;0;
10214;-33,43066;-6,066262;-22,56775;-41,65424;1,500914;1,483219;1,919838;9,688267;0;0;
10230;-34,2539;-9,39419;-24,69222;-42,94211;1,548018;1,45972;2,016401;9,118003;0;0;
10246;-34,41368;-10,3636;-22,6755;-34,86679;1,459732;1,358867;1,980357;8,341739;0;0;
10263;-34,26042;-8,032698;-25,84649;-56,24521;1,259285;1,399072;1,796503;8,188005;0;0;
10279;-34,64259;-5,573743;-22,92526;-44,63448;1,154939;1,299388;1,629318;7,180156;0;0;
10295;-34,64259;-5,573743;-22,92526;-44,63448;1,021054;1,194229;1,534168;6,351163;0;0;
10311;-34,19893;-8,273984;-21,21116;-61,53213;1,079777;1,373235;1,445771;8,250354;0;0;
10329;-36,59188;-8,892326;-22,29653;-40,62264;0,9541668;1,409873;1,405037;7,53437;0;0;
10344;-36,59188;-8,892326;-22,29653;-40,62264;1,002241;1,416543;1,439805;6,689616;0;0;
10361;-32,92992;-6,245284;-23,11024;-39,48434;1,139851;1,699554;1,551125;6,85954;0;0;
10377;-35,51847;-6,256775;-23,50169;-39,3035;1,105068;1,896032;1,548798;6,396213;0;0;
10394;-35,51847;-6,256775;-23,50169;-39,3035;1,008026;1,951033;1,554496;5,162768;0;0;
10412;-32,09558;-7,051873;-24,14243;-42,83457;0,8973734;1,949383;1,580034;4,372648;0;0;
10429;-32,86444;-11,45163;-22,66871;-35,60709;1,277477;1,959728;1,60979;5,400221;0;0;
10446;-31,92756;-7,27369;-23,89256;-51,29058;1,338422;2,029313;1,653822;5,590665;0;0;
10465;-33,8986;-9,365938;-26,33724;-41,91985;1,383957;1,920159;1,554657;6,488186;0;0;
10481;-37,94007;-7,898215;-21,82236;-41,74681;1,554598;1,791806;1,656395;7,958952;0;0;
10496;-37,94007;-7,898215;-21,82236;-41,74681;1,726767;1,594357;1,749396;9,171777;0;0;
10511;-29,96109;-10,10582;-23,15499;-29,415;1,646554;1,583008;1,694076;8,318815;0;0;
10529;-35,82593;-7,824143;-25,72793;-37,95076;1,696059;1,457761;1,624385;8,946282;0;0;
10547;-36,46468;-6,161967;-28,55898;-39,76604;1,688527;1,597935;1,618212;7,843965;0;0;
10564;-36,96406;-11,38675;-26,09024;-21,84698;1,673;1,569792;1,539729;8,699038;0;0;
10580;-33,90599;-5,753472;-21,6918;-47,10254;1,63774;1,64932;1,612714;9,63913;0;0;
10600;-33,05306;-9,381991;-23,78525;-39,13329;1,521779;1,680594;1,37621;8,772931;0;0;
10618;-36,20048;-10,61001;-23,88959;-50,31137;1,52579;2,013612;1,479115;8,130773;0;0;
10635;-36,20048;-10,61001;-23,88959;-50,31137;1,451067;2,400452;1,505576;7,274824;0;0;
10652;-33,51742;-6,607402;-23,77183;-14,16011;1,472599;2,445251;1,523481;7,354498;0;0;
10671;-35,35236;-6,872905;-26,08455;-38,52023;1,397047;2,351418;1,659135;5,548323;0;0;
10690;-34,21053;-5,68611;-23,52724;-37,43417;1,573807;2,354445;1,65277;4,19708;0;0;
10705;-35,22392;-9,725428;-24,56426;-52,42715;1,443969;2,361673;1,692728;6,321082;0;0;
10721;-34,79908;-7,808061;-28,92185;-39,25805;1,308714;1,934089;1,626522;6,858895;0;0;
10739;-33,87557;-7,232808;-24,33061;-30,30491;1,266724;1,572803;1,592252;7,402585;0;0;
10755;-33,87557;-7,232808;-24,33061;-30,30491;1,100353;1,389749;1,542808;7,049324;0;0;
10771;-36,7704;-7,218505;-26,20686;-38,6714;1,163629;1,398853;1,57015;7,225945;0;0;
10788;-32,5498;-5,675326;-25,94636;-53,38687;1,089452;1,504335;1,490423;7,90103;0;0;
10805;-34,89115;-9,047815;-21,81795;-40,87093;1,070929;1,501219;1,626613;6,885753;0;0;
10820;-32,55548;-6,417859;-23,45853;-43,54304;1,136578;1,599988;1,679571;6,824686;0;0;
10836;-32,55548;-6,417859;-23,45853;-43,54304;1,205009;1,745444;1,690637;6,39641;0;0;
10853;-37,88811;-6,857657;-23,75172;-28,71952;1,469655;1,77656;1,446762;6,599725;0;0;
10870;-35,93526;-5,043417;-24,88033;-40,05806;1,531741;1,692276;1,437802;6,463901;0;0;
10887;-32,54845;-7,667541;-24,79935;-38,72524;1,435778;1,610003;1,473125;5,960427;0;0;
10906;-34,40036;-6,436506;-22,15962;-40,05437;1,515298;1,436861;1,372578;5,796808;0;0;
10923;-33,90356;-9,018615;-24,20666;-63,08802;1,659458;1,566141;1,426146;7,05433;0;0;
10939;-36,32557;-9,192489;-24,64462;-50,58417;1,461975;1,635921;1,624815;9,043432;0;0;
10956;-36,32557;-9,192489;-24,64462;-50,58417;1,239425;1,652892;1,833913;10,64181;0;0;
10970;-34,70392;-7,839243;-24,60837;-37,97625;1,28849;1,923538;1,927998;9,348685;0;0;
10986;-32,99865;-8,352387;-23,28411;-37,2123;1,271242;1,952085;1,91893;9,718708;0;0;
11004;-34,26017;-4,108917;-25,22439;-21,03027;1,349858;2,088159;1,941391;9,298723;0;0;
11021;-32,72593;-9,547767;-24,9216;-36,16899;1,196593;1,988728;1,931036;10,01153;0;0;
11038;-37,68954;-9,911784;-26,34456;-36,20935;1,437806;1,965971;1,8264;7,928638;0;0;
11055;-37,68954;-9,911784;-26,34456;-36,20935;1,60158;1,790555;1,675928;6,595494;0;0;
11072;-34,88917;-8,126028;-25,40737;-50,01443;1,615312;1,590353;1,753066;7,12075;0;0;
11092;-36,49757;-6,052967;-22,18317;-40,73729;1,805339;1,60091;1,702166;7,342651;0;0;
11109;-32,56749;-5,518175;-27,11115;-39,73856;1,845666;1,406754;1,543341;5,177368;0;0;
11133;-33,61323;-8,471601;-23,13933;-36,398;1,921799;1,420769;1,497503;4,749233;0;0;
11151;-36,60243;-6,056935;-22,61302;-44,7071;1,677216;1,315402;1,391668;4,586876;0;0;
11168;-35,73161;-8,734661;-24,01401;-40,06852;1,668351;1,442799;1,192348;4,348785;0;0;
11185;-35,86489;-8,13238;-28,14964;-32,11375;1,445549;1,490477;1,222041;3,958858;0;0;
11204;-34,82756;-7,30657;-23,37256;-52,6173;1,415188;1,784559;1,275602;5,391114;0;0;
11220;-33,05727;-7,166902;-23,63418;-39,8563;1,358824;1,746287;1,332295;6,257484;0;0;
11238;-37,53723;-8,389238;-24,11788;-39,61302;1,341402;1,704203;1,298029;6,589437;0;0;
11254;-37,53723;-8,389238;-24,11788;-39,61302;1,46288;1,515043;1,233071;7,044232;0;0;
11270;-35,4235;-5,182859;-24,54088;-44,93418;1,465001;1,401399;1,39542;7,232573;0;0;
11290;-31,26813;-4,969641;-24,11549;-36,26456;1,48373;1,507023;1,401424;6,968084;0;0;
11307;-37,11066;-8,400676;-21,8322;-37,92142;1,627252;1,385068;1,495115;6,046775;0;0;
11325;-34,61085;-6,089993;-24,84188;-36,67224;1,64689;1,409638;1,512087;5,292365;0;0;
11342;-33,71398;-8,027936;-24,82465;-39,24425;1,5776;1,510543;1,639109;4,99201;0;0;
11359;-34,46926;-11,3297;-22,55429;-35,13087;1,608895;1,719447;1,782846;5,386852;0;0;
11374;-34,46926;-11,3297;-22,55429;-35,13087;1,644901;1,726142;1,747273;4,946945;0;0;
11392;-33,89002;-6,715846;-23,81086;-56,18676;1,543478;1,675828;1,823908;4,452448;0;0;
11410;-34,25509;-7,601776;-24,03172;-48,95956;1,287557;1,812345;1,719272;5,297742;0;0;
11427;-36,23817;-5,311103;-24,99462;-39,34957;1,407952;2,250553;1,66925;5,627311;0;0;
11445;-32,00396;-7,588377;-22,79525;-31,83853;1,353466;2,301277;1,622293;5,626416;0;0;
11462;-39,28165;-8,382248;-24,51388;-28,82723;1,38816;2,214269;1,52782;6,021569;0;0;
11481;-34,27315;-10,35541;-19,226;-11,72282;1,484752;2,236175;1,417435;7,231037;0;0;
11500;-33,5358;-8,287004;-23,74431;-34,77925;1,59081;2,127565;1,463727;7,498853;0;0;
11518;-35,06891;-4,456542;-24,51338;-41,53959;1,684629;1,751434;1,308757;7,464526;0;0;
11536;-35,06891;-4,456542;-24,51338;-41,53959;1,662076;1,429412;1,314865;7,417459;0;0;
11552;-36,2415;-6,135314;-27,70271;-34,16832;1,64522;1,446659;1,285702;7,649565;0;0;
11568;-36,4584;-6,285061;-25,12424;-34,83817;1,453865;1,478387;1,392515;7,271916;0;0;
11584;-35,12159;-10,10955;-22,88063;-44,60892;1,536854;1,317362;1,433365;5,529145;0;0;
11600;-34,42945;-6,430581;-26,23076;-43,54464;1,398719;1,466033;1,581029;7,093021;0;0;
11617;-33,2901;-8,763468;-26,7035;-41,32484;1,315971;1,669297;1,674984;6,249474;0;0;
11633;-33,2901;-8,763468;-26,7035;-41,32484;1,305864;1,774807;1,764217;5,556934;0;0;
11648;-33,69561;-6,067421;-27,72902;-40,50565;1,289484;1,649742;1,917058;6,147321;0;0;
11665;-32,26059;-5,697582;-27,2051;-58,6692;1,192504;1,74506;1,82015;6,439542;0;0;
11681;-34,09872;-7,231808;-22,70563;-41,75257;1,116177;1,6373;1,604254;6,027141;0;0;
11697;-35,60225;-6,046789;-25,72366;-35,76971;1,130266;1,567313;1,581524;5,24863;0;0;
11712;-35,60225;-6,046789;-25,72366;-35,76971;1,117361;1,435969;1,570819;5,263351;0;0;
11730;-35,26534;-4,35319;-22,12871;-37,25919;1,20789;1,329454;1,522519;4,443258;0;0;
11748;-32,64662;-9,554322;-22,55067;-40,55016;1,19502;1,362603;1,662412;5,512187;0;0;
11763;-36,23532;-8,518266;-24,87725;-38,98048;1,261438;1,337807;1,749238;6,139641;0;0;
11779;-35,47642;-5,692518;-24,55388;-37,03055;1,437;1,282005;1,665545;6,084993;0;0;
11797;-36,23102;-9,019905;-26,95822;-41,61538;1,480809;1,330764;1,614086;6,288751;0;0;
11813;-36,23102;-9,019905;-26,95822;-41,61538;1,465331;1,395683;1,603382;6,54699;0;0;
11829;-33,90588;-4,222832;-23,76297;-41,96632;1,41927;1,42735;1,480104;6,340317;0;0;
11845;-34,57676;-6,804796;-23,96273;-48,78849;1,435921;1,652742;1,394631;6,442153;0;0;
11863;-32,74898;-8,772587;-24,49133;-40,08308;1,368543;1,837705;1,443525;6,491945;0;0;
11880;-34,03593;-6,394106;-25,00172;-43,53626;1,368614;1,835454;1,357643;6,082477;0;0;
11897;-34,03593;-6,394106;-25,00172;-43,53626;1,41875;1,786836;1,304546;6,227902;0;0;
11912;-35,73413;-6,932188;-20,46336;-43,48071;1,568807;1,627027;1,313803;6,879418;0;0;
11929;-31,44663;-7,535447;-20,55001;-35,01505;1,625137;1,52196;1,324607;6,397311;0;0;
11946;-32,19153;-9,668488;-23,89562;-40,86118;1,509926;1,346188;1,231342;5,987864;0;0;
11962;-35,4264;-9,563586;-22,53959;-43,8387;1,563317;1,332546;1,191289;5,57191;0;0;
11978;-33,18248;-6,330128;-24,51353;-40,61636;1,465938;1,318378;1,288734;6,491225;0;0;
11996;-33,18248;-6,330128;-24,51353;-40,61636;1,425226;1,366658;1,332175;6,42815;0;0;
12013;-37,25988;-9,240417;-26,96546;-42,57644;1,350706;1,828335;1,248215;7,765846;0;0;
12027;-32,19574;-7,136663;-20,68798;-31,14353;1,500299;1,97664;1,271587;7,457444;0;0;
12044;-34,15267;-6,861197;-20,5654;-40,17182;1,597574;1,809721;1,446837;6,879221;0;0;
12062;-34,60994;-4,341499;-25,61767;-36,58397;1,451884;1,830611;1,572639;7,542013;0;0;
12078;-33,97074;-9,729918;-24,46113;-38,70683;1,46624;1,978574;1,515305;6,440384;0;0;
12096;-33,97074;-9,729918;-24,46113;-38,70683;1,503705;2,00176;1,452182;5,144197;0;0;
12111;-35,91372;-8,673924;-25,46682;-41,2113;1,555581;1,610394;1,618926;5,327509;0;0;
12130;-35,2681;-8,542594;-22,42742;-40,88113;1,467516;1,742307;1,666384;5,566704;0;0;
12147;-34,51503;-8,835779;-23,22087;-29,53316;1,694137;1,835371;1,451313;5,465227;0;0;
12163;-34,4334;-6,061531;-26,68642;-32,97176;1,714802;1,642408;1,601757;5,334424;0;0;
12181;-34,95337;-7,420752;-24,15153;-39,97949;1,679718;1,463813;1,597659;6,006543;0;0;
12199;-34,27674;-8,607259;-23,96521;-37,69695;1,492384;1,415243;1,624242;5,803417;0;0;
12214;-34,27674;-8,607259;-23,96521;-37,69695;1,375534;1,450606;1,659443;6,115368;0;0;
12229;-37,57592;-9,003399;-25,12155;-45,0325;1,621534;1,348148;1,773878;6,576445;0;0;
12244;-32,92587;-6,768919;-22,6548;-38,40385;1,487921;1,510654;1,822982;5,470063;0;0;
12262;-34,04301;-10,85194;-24,85889;-39,38901;1,552793;1,805441;1,693194;4,486673;0;0;
12278;-34,71592;-8,188594;-26,21219;-40,08813;1,725752;1,810382;1,60591;4,192658;0;0;
12294;-34,71592;-8,188594;-26,21219;-40,08813;1,901581;1,77674;1,476332;3,834811;0;0;
12309;-32,92711;-10,90883;-27,40225;-37,27826;1,863216;1,926265;1,447261;2,965744;0;0;
12328;-34,99763;-6,419156;-24,53386;-39,23214;1,534163;1,909081;1,442881;3,346357;0;0;
12344;-35,25328;-7,248374;-23,78198;-41,35528;1,426195;1,76933;1,373521;3,179318;0;0;
12366;-36,58293;-3,008453;-25,72707;-38,40286;1,447708;1,569595;1,367677;3,270052;0;0;
12382;-31,82437;-7,112283;-21,91691;-34,32836;1,273036;1,824758;1,470692;4,979496;0;0;
12399;-35,35775;-7,067642;-24,17387;-33,65106;1,194479;1,791435;1,568965;6,005219;0;0;
12415;-35,35775;-7,067642;-24,17387;-33,65106;1,267237;1,673304;1,656041;6,94858;0;0;
12430;-34,26913;-3,355584;-23,13886;-45,84023;1,417348;1,621077;1,480597;6,270047;0;0;
12448;-32,86702;-6,557213;-22,98486;-39,9383;1,392121;1,645564;1,498915;6,816215;0;0;
12466;-29,87218;-4,71615;-24,15296;-40,06672;1,496594;1,650301;1,538306;6,736004;0;0;
12482;-30,48244;-7,263649;-23,50541;-37,74081;1,907081;1,476215;1,621525;6,502956;0;0;
12498;-35,01295;-1,800538;-23,19334;-42,56791;2,764945;2,62859;1,589354;5,384927;0;0;
12514;-35,01295;-1,800538;-23,19334;-42,56791;3,606608;3,813401;1,576709;4,44037;0;0;
12531;-81,00069;-50,51312;-25,14551;-37,3184;12,73083;17,86956;1,494071;3,296908;1;0;
12548;-187,5784;9,253908;-24,49009;-35,68816;24,37282;29,2375;1,576771;3,257553;1;0;
12567;192,2796;52,42612;-22,438;-51,44129;95,25935;39,85252;1,599848;4,731301;1;0;
12585;-300,9602;-50,22459;-16,85958;-27,60669;114,7342;49,61311;1,95375;6,149354;1;0;
12604;1091,156;168,7076;-25,152;-29,88237;219,8622;59,1968;2,023863;6,456446;1;0;
12621;-877,6212;56,18455;-24,87422;-26,71902;264,9556;60,08287;1,934492;8,130276;1;0;
12637;-155,1642;45,52302;-23,73775;-39,05413;301,3549;63,50171;1,924513;8,658117;1;0;
12658;-96,29436;-20,99995;-29,88789;-30,25001;314,7027;62,72265;1,904218;8,999752;1;0;
12674;-96,29436;-20,99995;-29,88789;-30,25001;282,8721;60,28054;1,643457;8,259935;1;0;
12692;656,4864;-64,26212;-28,16039;-38,53281;274,9873;55,5166;2,435282;7,795455;1;0;
12712;-155,0544;17,5121;29,79774;-43,77324;179,8306;52,30414;11,20695;11,75007;1;0;
12732;-9,88322;-13,91399;-127,3263;-88,48896;142,1261;45,31036;19,99031;18,60712;1;0;
12752;-43,74488;-11,32852;-6,067339;21,50485;113,8511;33,2499;38,21835;28,41962;1;0;
12769;-34,23309;-6,797841;-123,8807;63,55479;80,83659;24,86977;51,45348;38,08155;1;0;
12785;-34,782;-8,289268;-158,6405;27,75879;53,21887;15,51909;67,64904;51,85978;1;0;
12801;-35,7432;-1,300228;47,44675;-34,59636;26,26847;7,732004;84,03072;62,98531;1;0;
12818;-53,34596;-6,761997;-20,16843;-50,67376;7,834458;2,952419;110,1726;66,7726;0;0;
12835;-53,34596;-6,761997;-20,16843;-50,67376;5,995212;2,220556;132,5707;68,34847;0;0;
12853;-30,24224;-7,282156;136,3588;-100,824;6,746304;2,323973;135,3647;69,57294;0;0;
12873;-37,63071;-7,600971;-66,29364;-44,96091;5,695772;2,080382;130,6739;61,43116;0;0;
12893;-37,24863;-6,018925;-23,37089;47,41229;5,473949;2,058365;114,6719;51,98906;0;0;
12910;-36,03081;-2,656138;-45,7017;-4,588392;5,639624;1,869684;91,6889;48,36259;0;0;
12927;-33,5389;-7,142815;-29,4488;-30,83458;4,477142;1,8883;58,05514;42,75693;0;0;
12944;-32,28514;-9,307976;-17,77647;-52,49324;2,547795;1,988467;30,33521;39,16081;0;0;
12965;-31,69917;-7,308015;-18,19726;-27,28982;2,051687;1,824887;10,02923;32,41222;0;0;
12981;-35,5921;-6,297856;-20,47716;-50,71366;1,96064;1,860272;7,631037;28,8104;0;0;
12998;-34,71006;-5,485809;-28,48776;-33,43098;1,566866;1,694874;7,682034;25,07964;0;0;
13015;-34,71006;-5,485809;-28,48776;-33,43098;1,215282;1,609308;7,387179;20,16842;0;0;
13031;-34,77842;-5,876956;-18,45831;-75,35419;1,448842;1,670047;7,763844;18,28712;0;0;
13047;-33,70793;-5,699468;-27,00857;-39,99278;1,378459;1,678764;6,850208;15,41644;0;0;
13064;-28,34661;-10,74061;-20,62632;-14,0389;1,499145;1,710119;5,93316;15,54485;0;0;
13079;-36,64436;-10,43466;-22,00455;-43,0147;1,668709;1,957237;5,299288;12,75992;0;0;
13095;-36,64436;-10,43466;-22,00455;-43,0147;1,924221;2,176748;4,693755;10,30308;0;0;
13110;-36,24082;-5,283785;-20,82036;-17,2554;2,085972;2,250639;3,916598;8,43222;0;0;
13130;-35,35409;-7,470408;-26,83466;-37,99851;2,272293;1,904458;3,122064;8,227802;0;0;
13147;-32,09128;-11,07374;-23,76861;-40,8429;2,290878;2,0041;3,026555;8,527755;0;0;
13164;-31,16432;-9,382623;-29,1046;-52,8341;2,171394;2,173299;2,950065;7,01946;0;0;
13181;-2,185239;10,74894;-26,55589;-21,12115;5,301989;4,82065;3,555921;7,687749;0;0;
13198;-4,01416;-0,1306392;-30,91267;-27,14093;8,153612;6,785362;4,303596;8,180621;0;0;
13214;-4,01416;-0,1306392;-30,91267;-27,14093;10,84977;8,830404;5,340701;7,935951;0;0;
13229;-33,39396;-21,91599;-23,67669;-61,52105;11,35151;10,91364;5,416346;9,963599;0;0;
13245;-25,39224;-10,73896;-27,0016;-38,99506;12,73641;12,38989;5,414679;12,50447;0;0;
13262;-11,09562;-12,95266;-25,80705;-96,24541;13,52146;11,81729;4,611462;16,5361;0;0;
13277;-43,23809;-27,09799;-27,20452;31,80717;12,17998;11,74707;3,949003;21,66197;1;0;
13295;-43,23809;-27,09799;-27,20452;31,80717;10,98606;11,79393;2,962558;26,30057;1;0;
13310;-4,613152;76,76662;-18,62874;-47,67154;13,78158;15,83672;2,395475;26,83582;1;0;
13328;82,78039;9,582696;-22,72208;-34,56147;22,18049;26,51673;2,31064;23,07634;1;0;
13344;-463,8668;-95,63013;-23,28012;-34,85366;112,7503;40,89648;2,035979;22,93172;1;0;
13361;432,0023;-7,30199;-17,28307;-1,281419;174,5943;52,69731;1,959497;18,03282;1;0;
13378;139,3465;119,4212;-23,29092;-31,38055;240,1385;67,57318;1,830151;15,35717;1;0;
13396;139,3465;119,4212;-23,29092;-31,38055;305,5251;82,56821;1,721627;14,34117;1;0;
13414;1084,507;199,9072;-23,58592;-48,69957;361,1928;83,74281;1,584278;12,44083;1;0;
13432;-152,3626;-10,19167;-18,87973;-34,80513;342,3934;75,64548;1,997522;13,70491;1;0;
13448;8,768735;-14,47593;-50,5489;-76,97345;356,7389;70,94084;4,099982;16,10411;1;0;
13466;970,5173;-38,93222;21,08943;-108,6901;337,1826;68,44023;12,39507;17,02114;1;0;
13482;1059,519;-24,79935;-85,70354;-40,64036;350,953;60,1805;23,19109;21,42271;1;0;
13498;-143,7235;-4,330634;-138,6849;-8,179727;373,4086;54,62257;34,9002;29,52381;1;0;
13518;-84,49245;24,66138;-152,0214;-94,55228;349,1242;43,04859;55,12947;37,26309;1;0;
13538;-66,68916;-22,78436;26,55347;-19,48632;282,3164;40,73295;85,39823;51,41013;1;0;
13554;-66,68916;-22,78436;26,55347;-19,48632;244,8187;35,96834;112,489;64,88657;0;0;
13575;-32,55138;-7,522321;-64,89246;-36,89636;176,9368;26,49397;127,3424;73,1937;0;0;
13600;-19,5068;-8,121738;-128,9547;33,32952;78,15334;17,80669;132,812;77,02363;0;0;
13616;-19,5068;-8,121738;-128,9547;33,32952;46,86094;10,19595;132,7837;74,92347;0;0;
13632;-25,64546;-7,016388;56,10702;-30,14071;19,42108;5,603629;120,4017;77,28584;0;0;
13649;-27,06962;-7,640375;-41,0095;24,18027;8,183786;2,578951;92,04672;69,62657;0;0;
13669;-27,90284;-7,302542;-29,58062;-15,13392;6,876373;1,729364;64,9854;59,89288;0;0;
13685;-32,34872;-6,752423;-6,869226;-43,54446;6,806314;1,736534;45,89396;53,31284;0;0;
13702;-33,17637;-8,001324;-23,6626;4,916329;5,865993;1,543042;33,32019;46,63319;0;0;
13718;-38,79175;-7,204603;-42,62643;-31,15918;4,816175;1,505129;19,48766;39,17505;0;0;
13734;-38,79175;-7,204603;-42,62643;-31,15918;4,520426;1,68233;10,9941;30,06253;0;0;
13749;-36,93351;-11,65992;-24,11617;-56,36506;3,710147;1,929541;9,19942;23,97317;0;0;
13765;-35,61368;-4,573963;-20,35151;-33,32862;2,917637;2,05903;8,566869;17,56992;0;0;
13781;-33,11264;-7,768776;13,27087;-40,62339;2,63295;2,030504;9,852774;17,61826;0;0;
13799;-32,26682;-6,379791;-27,10023;-49,62636;2,684674;2,026352;8,261832;16,66823;0;0;
13819;-34,26618;-3,855733;-23,50772;-34,05496;2,220456;1,969736;6,376223;17,18643;0;0;
13835;-34,26618;-3,855733;-23,50772;-34,05496;1,698537;1,902795;5,596109;16,32035;0;0;
13850;-37,57814;-9,877048;-16,00045;16,31226;1,396475;1,791853;5,700556;15,2257;0;0;
13867;-31,58849;-9,171906;-15,80518;-35,48682;1,575075;1,670584;5,500628;16,30848;0;0;
13885;-39,29467;-9,023238;-20,42061;-40,46132;2,049807;1,664432;3,220424;16,66003;0;0;
13902;-38,23312;-9,989695;-28,17919;-28,06588;3,948435;1,716162;3,37378;14,51541;0;0;
13918;-32,74617;-8,611972;-25,18296;-39,86151;6,095286;1,739864;3,458634;11,28094;0;0;
13935;-32,74617;-8,611972;-25,18296;-39,86151;8,181668;1,869817;3,437076;9,280812;0;0;
13950;-30,45757;-8,965003;-25,56973;-47,17612;8,398829;2,035532;3,453976;8,287711;0;0;
13966;-34,8841;-9,112444;-24,91382;-40,99326;7,874192;1,97038;3,051227;8,45184;0;0;
13982;-36,22137;-7,032085;-25,65813;-40,84173;7,107787;2,033927;2,909982;6,515891;0;0;
14001;-35,2187;-11,08568;-28,23588;-31,65996;4,688646;1,96038;3,38496;6,558216;0;0;
14018;-35,50669;-7,902441;-20,60713;-36,37403;2,564816;1,979267;4,828726;6,976761;0;0;
14034;-35,50669;-7,902441;-20,60713;-36,37403;1,513187;2,06892;6,646321;6,318296;0;0;
14049;-32,56499;-6,247849;-23,63513;-43,60669;1,354087;1,657073;6,986632;6,985788;0;0;
14065;-37,56303;-7,049632;-24,72741;-46,34123;1,497463;1,624685;6,815619;6,858624;0;0;
14081;-33,8;-4,228119;-25,60241;-26,59883;1,574031;1,643804;5,864326;8,330773;0;0;
14097;-35,7372;-3,54393;-25,52726;-54,79087;1,489764;1,590609;5,321576;9,894316;0;0;
14114;-35,7372;-3,54393;-25,52726;-54,79087;1,467129;1,523268;3,68383;11,79091;0;0;
14130;-32,37074;-8,1506;-22,38201;-42,95895;1,499599;1,527799;1,978654;12,75382;0;0;
14146;-34,10672;-7,655001;-23,15183;-41,61611;1,416937;1,637845;1,786997;10,76461;0;0;
14163;-32,72437;-9,077292;-28,42769;-45,10429;1,339126;1,591498;1,761835;8,164837;0;0;
14180;-35,85087;-9,598763;-21,85919;-50,82125;1,34636;1,599007;1,610497;6,94076;0;0;
14196;-35,85087;-9,598763;-21,85919;-50,82125;1,266089;1,650305;1,489487;7,468223;0;0;
14212;-34,08582;-7,399575;-27,08022;-40,27194;1,525248;1,630435;1,620315;5,077416;0;0;
14229;-32,41881;-6,048099;-19,96906;-31,6731;1,730925;1,572808;1,726235;5,206688;0;0;
14245;-33,76917;-6,428773;-25,7324;-44,23763;1,818747;1,622104;1,764971;5,605042;0;0;
14264;-29,73704;-9,112065;-24,52795;-40,37687;1,940117;1,574267;1,72872;5,096967;0;0;
14281;-36,59224;-4,962422;-26,50083;-57,13494;2,191084;1,495196;1,696872;4,472252;0;0;
14297;-34,9439;-2,168203;-23,95092;-40,97322;1,905513;1,386443;1,652305;4,887255;0;0;
14314;-34,9439;-2,168203;-23,95092;-40,97322;1,877491;1,489912;1,505759;6,05903;0;0;
14331;-35,61423;-0,6816563;-24,92535;-38,94493;1,660398;1,698784;1,374665;7,915481;0;0;
14347;-32,79041;-9,224402;-27,38582;-43,14378;1,808221;1,997352;1,473861;8,836861;0;0;
14364;-33,0146;-6,054501;-19,64746;-57,8974;1,605122;2,213705;1,718236;9,908177;0;0;
14380;-37,79759;-6,560516;-22,41849;-39,99577;1,592912;2,220007;1,868645;8,719168;0;0;
14397;-37,79759;-6,560516;-22,41849;-39,99577;1,723487;2,163004;1,990239;8,071447;0;0;
14414;-33,90699;-5,525818;-24,14353;-17,48351;1,537969;2,159097;2,033556;8,388784;0;0;
14431;-34,24888;-7,646028;-21,19028;-18,9807;1,61017;1,773264;2,173067;5,952245;0;0;
14446;-32,75253;-6,857515;-24,38754;-21,2137;1,6538;1,384149;2,061677;6,235779;0;0;
14463;-33,91952;-6,068504;-25,72917;-39,84994;1,683177;1,361698;1,934853;5,776433;0;0;
14480;-33,4256;-7,703993;-22,79058;-37,18196;1,641605;1,280623;1,740326;5,169611;0;0;
14495;-33,4256;-7,703993;-22,79058;-37,18196;1,621989;1,203621;1,599249;4,634394;0;0;
14511;-34,24486;-5,903061;-27,38142;-40,25992;1,68088;1,358893;1,531139;4,248291;0;0;
14529;-34,24169;-5,949879;-28,36459;-48,03863;1,64213;1,453031;1,547398;8,658456;0;0;
14547;-33,73412;-7,425669;-25,48004;-41,21127;1,804464;1,47804;1,60894;8,032064;0;0;
14562;-33,87577;-11,32285;-24,96734;-24,32024;1,661432;1,456872;1,652688;7,984413;0;0;
14578;-34,12978;-3,793398;-24,36786;-37,47785;1,599788;1,786679;1,753797;9,363354;0;0;
14596;-34,12978;-3,793398;-24,36786;-37,47785;1,639509;2,042666;1,832057;10,29115;0;0;
14613;-36,10649;-5,737751;-24,70988;-41,30343;1,519686;1,91582;1,658939;9,259995;0;0;
14629;-31,43026;-7,804437;-25,24192;-11,37712;1,415205;1,896838;1,327268;6,902987;0;0;
14645;-36,42247;-6,906789;-26,56038;-40,26753;1,396808;1,932568;1,324446;6,992634;0;0;
14661;-31,78226;-7,250358;-27,18036;-60,5846;1,414733;1,935915;1,360993;8,671183;0;0;
14678;-33,47726;-7,060814;-21,99793;-35,4469;1,387187;1,660644;1,267178;8,91682;0;0;
14694;-33,47726;-7,060814;-21,99793;-35,4469;1,310969;1,450213;1,285006;9,669567;0;0;
14709;-32,54236;-6,557472;-19,4948;-10,10393;1,576297;1,341197;1,462681;9,766261;0;0;
14728;-34,2713;-9,545582;-28,64831;-45,75488;1,641434;1,379208;1,669616;9,149444;0;0;
14749;-38,31127;-5,775653;-20,22012;-38,66778;1,593206;1,251895;1,662711;9,381068;0;0;
14767;-34,76499;-6,921629;-24,74617;-53,31799;1,647643;1,23541;1,599063;7,742739;0;0;
14783;-34,88071;-8,593633;-22,16542;-37,65473;1,632232;1,294071;1,667556;6,503737;0;0;
14799;-35,97252;-8,747494;-25,85433;-43,75389;1,552537;1,492218;1,703931;7,197009;0;0;
14815;-35,97252;-8,747494;-25,85433;-43,75389;1,573065;1,731038;1,425033;7,288998;0;0;
14830;-35,23249;-5,360005;-23,02893;-40,97866;2,070154;1,706122;1,405227;8,404527;0;0;
14845;-34,65464;-7,160818;-27,1405;-45,86103;2,233579;1,847185;1,457813;8,492563;0;0;
14863;-37,94611;-7,657653;-21,19402;-34,72658;2,309923;1,841373;1,638068;8,593514;0;0;
14879;-34,75478;-10,08509;-24,51721;-42,74121;2,330105;1,743499;1,578261;8,425831;0;0;
14896;-34,75478;-10,08509;-24,51721;-42,74121;2,237869;1,637947;1,607969;7,337722;0;0;
14911;-37,20811;-10,10863;-24,08398;-43,14535;1,864383;1,844907;1,641259;6,31314;0;0;
14930;-37,70422;-10,57519;-26,88051;-34,80842;1,725246;1,836468;1,581419;6,523921;0;0;
14945;-32,01187;-10,35542;-23,58061;-40,69708;1,521916;1,893191;1,41641;4,714682;0;0;
14961;-32,919;-6,546042;-25,69204;-9,784659;1,44395;2,140346;1,235038;6,581913;0;0;
14975;-32,919;-6,546042;-25,69204;-9,784659;1,42886;2,249769;1,253964;8,298863;0;0;
14992;-37,20865;-8,035414;-23,94638;-40,89521;1,531461;2,112914;1,321624;7,314775;0;0;
15009;-36,50364;-10,36388;-24,50802;-36,99181;1,562973;1,877729;1,357637;7,128533;0;0;
15026;-32,7303;-6,844368;-26,2142;-37,94715;1,566044;1,847602;1,446524;6,824069;0;0;
15042;-32,05063;-6,682159;-27,17843;-34,82395;1,565987;2,047205;1,443974;6,875545;0;0;
15059;-33,76363;-10,53958;-24,1456;-42,3307;1,546435;2,050419;1,511449;5,059718;0;0;
15076;-33,76363;-10,53958;-24,1456;-42,3307;1,524081;2,179077;1,557853;3,575435;0;0;
15092;-35,12799;-5,075479;-25,23677;-2,288086;1,430176;2,176508;1,52196;5,390777;0;0;
15108;-35,26392;-4,725852;-24,49132;-52,38396;1,560536;2,024992;1,487139;6,315415;0;0;
15126;-36,34474;-9,133224;-25,73306;-35,16877;1,554298;1,799383;1,535045;6,539507;0;0;
15142;-37,48125;-4,8115;-23,02972;-43,57288;1,799467;1,775722;1,624902;6,435567;0;0;
15159;-39,00162;-13,42083;-22,16978;-40,05403;2,786754;3,837944;1,569579;6,136914;0;0;
15176;-39,00162;-13,42083;-22,16978;-40,05403;3,716483;5,899683;1,492542;5,950781;0;0;
15195;-32,78998;-7,553112;-25,05324;-60,62032;3,475429;5,828889;1,420768;4,172769;0;0;
15211;-33,29554;-4,63278;-23,73942;-39,44032;3,446572;5,779488;1,477094;6,05628;0;0;
15229;-33,3947;-7,064685;-25,76548;-39,53206;3,309544;6,038555;1,451954;5,704116;0;0;
15246;-32,76051;-7,998407;-22,48042;-38,30007;2,729303;5,492077;1,403914;5,912945;0;0;
15264;-34,13207;-9,286026;-26,33357;-39,28154;1,786955;3,449175;1,59108;6,023243;0;0;
15280;-32,73968;-7,921262;-24,64742;-11,04036;1,31306;1,956753;1,570679;6,623459;0;0;
15299;-34,88778;-9,036205;-23,52366;6,281027;1,415191;1,970747;1,480986;6,731664;0;0;
15317;-34,88778;-9,036205;-23,52366;6,281027;1,429376;1,920393;1,442291;7,508294;0;0;
15334;-28,87455;-4,818955;-23,70382;-35,43655;1,499876;1,925535;1,425692;8,253448;0;0;
15349;-37,03672;-5,513696;-20,27977;-36,56672;1,535519;1,738559;1,466419;8,031302;0;0;
15367;-32,99096;-5,202517;-24,59359;-30,66225;1,434362;1,587634;1,349174;8,748479;0;0;
15382;-34,08096;-6,062695;-24,26689;-44,76976;1,386389;1,641463;1,301907;7,685668;0;0;
15400;-36,23008;-8,707286;-19,25475;-42,31756;1,310015;1,679612;1,534957;6,13392;0;0;
15416;-36,23008;-8,707286;-19,25475;-42,31756;1,295243;1,603226;1,772158;4,616488;0;0;
15434;-32,62163;-12,27145;-26,05281;-41,32104;1,546046;1,635181;1,929372;4,470912;0;0;
15451;-34,43535;-3,84112;-25,72677;-52,23513;1,465329;1,923442;1,759161;4,68453;0;0;
15467;-35,05704;-6,54663;-27,30378;-30,78099;1,464471;1,908854;1,798757;4,593787;0;0;
15483;-36,63852;-4,965435;-22,43791;-42,57459;1,702656;1,925672;1,881519;4,381939;0;0;
15500;-34,69817;-8,618399;-22,75634;-47,47048;1,758654;1,899815;1,831178;3,984617;0;0;
15515;-34,69817;-8,618399;-22,75634;-47,47048;1,48385;1,852374;1,683884;3,872468;0;0;
15531;-34,89056;-6,415707;-25,60211;-57,38107;1,453717;1,649938;1,684042;4,471701;0;0;
15548;-34,85628;-6,802509;-26,57755;-54,42368;1,473767;1,51251;1,868427;6,884745;0;0;
15564;-35,05118;-8,036711;-24,02395;-35,15381;1,452417;1,639601;1,840163;7,252583;0;0;
15580;-32,71036;-4,942876;-26,40682;-53,98953;1,265623;1,683023;1,685579;7,789871;0;0;
15598;-34,66014;-7,416867;-23,30506;-45,95432;1,315861;1,592977;1,65385;10,51077;1;0;
15615;-34,66014;-7,416867;-23,30506;-45,95432;1,283421;1,518366;1,785235;13,18443;1;0;
15631;-47,85571;-32,96986;-21,56986;-37,92308;2,908121;2,531147;1,87899;11,99279;1;0;
15647;-448,2644;-168,4723;-32,25995;-114,7187;16,43548;15,69656;2,406924;13,13451;1;0;
15665;-1361,292;-96,85774;-77,50797;-86,69295;66,451;39,36153;7,58181;17,29906;1;0;
15682;-245,7919;26,49888;-77,5854;20,38947;159,5906;58,30858;20,33848;24,10581;1;0;
15699;18,597;76,37106;104,5745;-19,65468;229,7988;72,94272;34,09869;28,01412;1;0;
15716;18,597;76,37106;104,5745;-19,65468;299,3181;87,11589;47,89303;32,09599;1;0;
15735;72,19298;53,7294;-130,5613;-82,79095;355,2176;87,78826;81,73919;42,2735;1;0;
15754;25,76148;53,15746;-44,88155;-4,481665;334,3752;74,11805;99,16475;47,20671;0;0;
15771;-12,35048;-68,2963;106,6675;-128,1416;296,3058;67,75503;114,7324;50,68251;0;0;
15789;-103,7604;46,01257;-80,72974;-22,7438;309,394;63,15503;119,6951;52,16019;0;0;
15805;-731,3416;-42,25408;85,00353;-80,98351;317,1804;55,87332;118,8272;51,73144;0;0;
15824;-140,3993;-17,02807;72,41194;-48,71649;265,4822;46,68468;109,9158;50,52018;0;0;
15840;-16,6167;-8,542144;49,52468;-4,55482;240,7527;37,34398;105,6845;49,28109;0;0;
15858;-40,76686;-7,257287;235,5835;48,43229;219,0444;28,49648;92,52256;49,09155;0;0;
15881;-38,93742;-10,59956;-137,2717;-43,81161;141,9595;19,53386;81,26556;50,41925;0;0;
15900;-35,25896;-8,012006;-127,7291;29,75337;94,01263;13,38409;78,76333;46,80393;0;0;
15915;-35,25896;-8,012006;-127,7291;29,75337;18,84362;5,849292;78,50256;44,772;0;0;
15940;-53,41003;-8,956678;-47,55569;-50,6744;8,550277;3,250301;65,59611;40,44344;0;0;
15956;-53,41003;-8,956678;-47,55569;-50,6744;4,764596;2,433508;51,18995;33,05325;0;0;
15971;-29,63776;-9,558138;-36,87267;-3,634713;5,97848;1,91964;35,95029;25,38814;0;0;
15988;-36,97956;-8,142757;-28,79002;-57,78508;5,618616;1,784496;23,92875;19,09039;0;0;
16009;-38,23959;-6,432974;-63,22189;-25,14057;5,603564;1,862411;13,05973;16,17962;0;0;
16028;-37,92862;-8,137503;-31,20229;-27,21636;5,670335;1,727646;11,39058;15,31374;0;0;
16045;-33,88737;-8,375453;-31,21882;-35,8047;5,000987;1,619048;12,28051;14,41264;0;0;
16063;-35,73499;-8,518739;-28,96724;-33,00379;3,442073;1,501651;11,34454;12,48567;0;0;
16080;-32,1125;-3,043153;-23,74238;-27,91759;2,274714;1,416782;9,805522;12,99265;0;0;
16096;-32,1125;-3,043153;-23,74238;-27,91759;2,117137;1,440236;9,214496;13,99626;0;0;
16112;-37,3069;-5,161652;-21,86817;-48,35232;1,84275;1,465545;6,616287;12,49701;0;0;
16130;-32,72138;-11,7958;-27,03242;-41,39033;1,583197;1,473808;5,801909;12,95339;0;0;
16146;-38,42733;-7,896574;-25,46367;-47,71925;1,600706;1,593512;4,688962;13,06616;0;0;
16163;-32,73202;-10,22469;-22,49083;-38,33463;1,763883;1,634088;4,525181;12,01649;0;0;
16180;-33,15371;-7,596691;-22,54259;-47,92609;1,809557;1,625777;4,305605;10,61352;0;0;
16199;-30,84154;-8,400624;-21,48909;-31,53905;1,878195;1,669513;3,617863;9,10884;0;0;
16214;-30,84154;-8,400624;-21,48909;-31,53905;1,756189;1,878492;3,180022;8,581646;0;0;
16231;-32,5359;-4,64886;-27,69844;-42,79362;1,788955;2,117316;2,36245;7,979609;0;0;
16247;-33,43235;-4,105775;-25,18769;-36,82398;1,678882;2,043587;1,696616;7,476669;0;0;
16265;-35,49997;-9,824216;-24,40235;-38,68308;1,877149;2,021399;1,551271;6,921151;0;0;
16282;-33,29135;-7,677098;-21,81745;-39,36209;1,797664;1,971422;1,671521;4,768688;0;0;
16301;-32,54588;-6,27254;-16,39207;-37,28532;1,765229;1,914372;3,354519;3,330768;0;0;
16321;-33,14317;-8,481882;-23,41883;7,09284;1,762412;1,631889;4,751942;5,048986;0;0;
16341;-37,94324;-4,05999;-28,95684;-48,91737;2,061352;1,614425;5,298782;6,532017;0;0;
16359;-33,90689;-10,01388;-19,99377;-3,242107;1,988208;1,774971;5,504938;8,139261;0;0;
16375;-33,90689;-10,01388;-19,99377;-3,242107;1,946463;1,890273;5,57245;9,935899;0;0;
16393;-33,77806;-12,22914;-20,0917;-27,14713;2,050778;2,035401;5,635045;13,33557;0;0;
16408;-35,24691;-11,08043;-22,86506;-45,2911;2,111584;1,960505;3,686352;13,35592;0;0;
16426;-35,08249;-10,72347;-21,39247;-26,92652;1,973446;1,909941;2,240939;11,91132;0;0;
16442;-35,62733;-8,391129;-25,17878;-59,78582;1,774779;1,84175;1,914053;10,55939;0;0;
16459;-35,25072;-6,497088;-25,9446;-37,12909;1,767753;1,639217;1,680264;10,42011;0;0;
16475;-35,25072;-6,497088;-25,9446;-37,12909;1,830327;1,352021;1,467442;10,6528;0;0;
16491;-32,66721;-7,581425;-23,99503;-33,71602;1,951743;1,235819;1,252562;8,833111;0;0;
16506;-33,53067;-10,58391;-27,82469;-48,57058;1,7831;1,456236;1,293624;10,06449;0;0;
16521;-35,58784;-10,0837;-26,0804;-43,7425;1,622839;1,411463;1,300775;9,322542;0;0;
16539;-33,53128;-6,55038;-23,90372;-38,50333;1,657054;1,44315;1,394501;9,320335;0;0;
16557;-33,53128;-6,55038;-23,90372;-38,50333;1,639337;1,42774;1,425269;8,80544;0;0;
16572;-36,17467;-7,103894;-26,43743;-65,21983;1,482366;1,516805;1,458717;7,508949;0;0;
16591;-28,64294;-4,705839;-26,5587;-45,82518;1,597202;1,525399;1,592007;7,458942;0;0;
16607;-33,00279;-6,63703;-25,22631;-55,30893;1,8415;1,422294;1,519835;6,883971;0;0;
16622;-34,49225;-8,574701;-26,11738;-26,84244;1,642713;1,539871;1,53124;7,439346;0;0;
16639;-35,74652;-7,042368;-25,68332;-37,69007;1,76342;1,794063;1,483281;7,789001;0;0;
16659;-31,93713;-8,765265;-24,29787;-38,34541;1,600879;1,759533;1,527559;7,915889;0;0;
16673;-31,93713;-8,765265;-24,29787;-38,34541;1,610868;1,660723;1,345617;7,698163;0;0;
16689;-31,09812;-6,462462;-24,11944;-33,26941;1,726604;1,977489;1,261728;7,495178;0;0;
16705;-35,24637;-7,592906;-24,83275;-24,38261;1,732425;1,841991;1,430503;8,105512;0;0;
16725;-36,41485;-6,986849;-25,48273;-30,74514;1,757672;1,734473;1,488762;9,370858;0;0;
16742;-34,40639;-4,707386;-22,65232;-36,6959;1,665708;1,745566;1,56489;8,878598;0;0;
16759;-34,40639;-4,707386;-22,65232;-36,6959;1,766126;1,949558;1,618662;8,090659;0;0;
16775;-34,40639;-4,707386;-22,65232;-36,6959;1,720901;1,983202;1,626056;7,482051;0;0;
16793;-27,04946;-6,709215;-23,58926;-46,42562;2,003486;1,839415;1,493959;6,931337;0;0;
16808;-36,72598;-9,815085;-23,58496;-57,6854;2,176616;1,850877;1,457926;5,575959;0;0;
16825;-34,63336;-5,34907;-23,55844;-27,77459;2,043056;1,899874;1,597452;5,064108;0;0;
16841;-35,01969;-8,255258;-23,52967;-36,46474;2,27045;1,905987;1,658433;6,419161;0;0;
16858;-38,03071;-9,51589;-22,65354;-49,91597;2,268703;1,755267;1,504347;8,060575;0;0;
16874;-38,03071;-9,51589;-22,65354;-49,91597;2,294345;1,69629;1,30081;9,741983;0;0;
16892;-38,78786;-6,911755;-23,15915;-37,12826;1,882491;1,855134;1,286974;9,946609;0;0;
16911;-36,96427;-7,270691;-24,63009;-43,28451;1,773037;1,741248;1,261687;10,27449;0;0;
16928;-32,99079;-8,40354;-24,4729;-27,00029;1,814637;1,510247;1,405047;10,74131;0;0;
16944;-32,52617;-4,346468;-20,6955;-54,03562;1,532333;1,54389;1,556449;10,51812;0;0;
16961;-36,9463;-4,403163;-27,17874;-41,81;1,582772;1,708754;1,697127;9,710415;0;0;
16978;-32,57013;-8,957212;-24,0588;-59,93219;1,714225;1,548966;1,797647;9,895555;0;0;
16995;-32,57013;-8,957212;-24,0588;-59,93219;1,749059;1,592261;1,941195;10,65859;0;0;
17011;-36,2274;-6,20144;-26,17766;-34,90102;1,792937;1,826858;1,979381;9,862144;0;0;
17028;-33,03209;-4,85339;-26,00545;-41,12397;1,902664;1,97882;1,878656;10,64465;0;0;
17044;-35,86298;-8,926276;-23,88326;-39,54627;1,893783;2,088814;1,919057;9,425217;0;0;
17062;-36,25732;-11,09756;-23,51765;-44,80312;1,833321;2,03615;1,928979;9,883282;0;0;
17080;-34,27826;-5,462809;-26,8161;-40,46436;1,684115;2,175696;1,843044;9,644922;0;0;
17097;-34,27826;-5,462809;-26,8161;-40,46436;1,628478;2,269884;1,648412;9,380356;0;0;
17115;-33,08546;-5,88474;-23,84824;-41,21606;1,663293;2,273607;1,557536;8,831993;0;0;
17131;-35,72273;-6,307555;-24,93963;-41,96276;1,61513;2,02874;1,514536;9,7968;0;0;
17151;-31,15716;-10,54533;-22,7947;-19,06952;1,61137;1,975063;1,667595;9,497742;0;0;
17167;-37,40282;-5,573872;-25,35426;-68,31938;1,704888;1,857806;1,722278;9,592614;0;0;
17183;-35,49245;-7,412602;-24,47805;-16,36403;1,696851;1,819802;1,724697;9,451171;0;0;
17201;-33,29267;-6,277355;-23,34542;-46,65416;1,547054;1,592268;1,628105;10,40122;0;0;
17216;-33,29267;-6,277355;-23,34542;-46,65416;1,381077;1,553614;1,568672;10,88406;0;0;
17233;-34,8858;-3,862553;-23,14111;-35,61642;1,319809;1,760698;1,52357;10,30662;0;0;
17250;-36,2476;-8,631029;-22,52448;-35,16223;1,23147;1,779482;1,523281;9,848078;0;0;
17268;-34,28085;-12,34237;-24,52641;-35,87242;1,193402;2,007414;1,512581;8,528482;0;0;
17287;-31,06994;-8,323476;-22,98283;-43,19538;1,297359;2,280343;1,471429;7,201659;0;0;
17303;-35,26541;-8,722759;-24,50142;-22,3363;1,324518;2,249774;1,458946;5,904682;0;0;
17320;-33,28562;-6,719969;-21,28835;-37,57909;1,445334;2,171883;1,497319;6,631394;0;0;
17338;-33,28562;-6,719969;-21,28835;-37,57909;1,554319;2,133337;1,503096;7,411565;0;0;
17354;-33,28562;-6,719969;-21,28835;-37,57909;1,497454;2,109053;1,465493;8,359889;0;0;
17370;-33,77967;-6,072099;-26,6622;-29,77971;1,511254;1,82625;1,637972;8,550805;0;0;
17387;-34,87783;-7,229862;-26,5193;-37,5194;1,445805;1,677343;1,676767;9,685753;0;0;
17405;-34,26171;-7,107245;-25,22759;-11,20281;1,357703;1,772624;1,764762;11,0332;0;0;
17422;-35,73257;-6,625791;-26,39;-39,90354;1,380316;1,911542;1,82207;9,705512;0;0;
17439;-37,79613;-4,988478;-20,66641;-18,50073;1,412354;1,924985;1,809017;8,940899;0;0;
17456;-37,79613;-4,988478;-20,66641;-18,50073;1,453278;1,839003;1,757319;8,865704;0;0;
17472;-34,25874;-9,919532;-23,52007;-39,83749;1,380376;1,871203;1,507542;7,936786;0;0;
17488;-38,93447;-3,39654;-21,77129;-19,24843;1,68624;1,863425;1,493928;6,626432;0;0;
17505;-34,02059;-11,72536;-23,52065;-40,60608;1,938925;2,001665;1,503319;5,261464;0;0;
17520;-30,17851;-5,216996;-22,82809;-42,55514;2,773841;2,42477;1,436064;6,519668;0;0;
17537;-38,37072;-27,37551;-24,86308;-59,09618;3,914999;3,913287;1,371942;7,876412;1;0;
17553;-38,37072;-27,37551;-24,86308;-59,09618;5,011451;5,417439;1,379758;9,306926;1;0;
17569;67,96413;-81,14094;-25,36654;-40,02994;27,09225;16,894;1,495061;9,345466;1;0;
17587;1724,738;303,6321;-22,87606;-40,74614;117,9658;37,92056;1,506317;8,215455;1;0;
17603;-10,49765;-32,1897;-24,90568;-51,21437;178,638;51,70017;1,620919;9,190068;1;0;
17619;226,1672;-23,17465;-23,06447;-32,09397;248,354;59,78178;1,697435;9,370983;1;0;
17635;226,1672;-23,17465;-23,06447;-32,09397;317,9874;67,14065;1,862279;9,544968;1;0;
17652;-178,3684;-19,46377;-23,75459;-25,06417;356,6498;65,18412;1,796514;8,622705;1;0;
17671;2,104514;5,018987;-24,15464;-44,81367;357,609;58,05185;1,69546;9,306322;1;0;
17687;279,1281;40,49625;-12,06977;-15,07751;262,0839;46,67343;2,175948;10,09411;1;0;
17705;55,97012;7,80494;-21,60148;-22,99212;289,4815;47,0227;2,672565;12,41176;1;0;
17724;-129,9993;-35,69973;-22,52048;-54,7273;239,6832;43,09195;3,761651;12,5707;1;0;
17747;-15,2733;10,581;-25,70159;-32,70565;168,8036;38,08529;3,786239;11,629;1;0;
17761;-41,41498;-11,55479;-24,97306;-39,57761;148,8689;29,80022;3,813002;13,04528;1;0;
17778;-31,396;-8,054417;-24,70031;-39,18722;138,3832;20,93311;3,863206;13,30294;1;0;
17794;-31,396;-8,054417;-24,70031;-39,18722;80,71045;17,19486;3,084412;11,17237;1;0;
17809;-35,73434;-8,157041;6,096505;-125,4775;21,88197;7,049791;11,31726;14,98887;1;0;
17825;-31,76313;-3,568074;-53,58301;-84,96199;10,52469;4,495331;22,2419;19,96471;1;0;
17841;-45,61506;-10,33402;335,1805;1,824982;3,013457;2,144165;52,52045;28,80114;1;0;
17858;-19,13648;-10,05917;-174,9792;-167,7853;3,8694;2,16481;77,44566;38,03825;1;0;
17875;-19,13648;-10,05917;-174,9792;-167,7853;5,205724;2,163769;102,3079;48,63167;0;0;
17891;-34,51276;-7,834787;35,20112;-114,4804;5,238619;2,064128;114,0963;59,68972;0;0;
17911;-37,55065;-9,379748;-50,45745;95,9732;5,335523;2,045803;124,5046;66,87589;0;0;
17928;-35,56606;-3,918056;-1,862514;-149,6879;5,893951;1,771701;126,706;74,94738;0;0;
17949;-36,2784;-8,565615;-45,45248;46,08042;4,958012;1,518452;97,33175;75,57438;0;0;
17965;-35,23521;-10,11971;-27,63499;-32,93548;3,54715;1,393501;74,18828;68,30058;0;0;
17982;-33,15514;-6,571974;-30,17885;-38,73379;2,66871;1,524173;58,40799;56,69566;0;0;
18000;-35,41796;-5,764291;-43,8553;-99,94328;2,667635;1,477468;36,7429;51,01666;0;0;
18016;-35,41796;-5,764291;-43,8553;-99,94328;2,026603;1,416937;20,17479;37,56282;0;0;
18035;-33,95254;-8,281866;-18,42673;-53,18626;1,61276;1,383015;9,308362;28,55841;0;0;
18053;-32,73349;-8,729735;-16,45187;-46,25526;1,321226;1,523505;7,606203;25,1931;0;0;
18069;-33,70282;-7,767606;-25,76509;-30,88857;1,423523;1,559192;6,82146;22,77653;0;0;
18085;-34,45584;-3,857966;-16,72605;-32,16574;1,493373;1,640575;6,966064;22,76832;0;0;
18100;-88,31435;-10,95737;-14,92702;-46,58967;2,715169;1,873891;7,044468;18,50787;0;0;
18115;-88,31435;-10,95737;-14,92702;-46,58967;3,928055;2,090763;6,630634;14,27804;0;0;
18132;-18,17217;-17,09279;-11,08844;-27,95955;7,188739;3,446648;5,990029;11,3028;0;0;
18148;-39,26553;-2,383386;-23,13973;-43,92574;7,387334;3,676093;5,269612;9,765972;0;0;
18164;-35,25558;-9,937011;-23,39982;-41,48039;7,376846;3,832127;4,979435;6,685678;0;0;
18183;-34,35145;-9,55609;-27,80065;-35,3162;7,409149;3,654292;4,136443;5,549351;0;0;
18198;-34,06173;-12,06847;-26,83884;-32,5203;6,377224;3,460339;3,306784;4,936828;0;0;
18214;-34,06173;-12,06847;-26,83884;-32,5203;4,722603;3,259422;2,502043;4,419133;0;0;
18230;-28,41903;-9,376119;-26,05249;-30,99928;2,170113;1,913088;1,94741;4,681434;0;0;
18249;-33,46291;-9,59649;-24,68704;-38,39446;1,844613;1,574129;1,770405;5,40331;0;0;
18265;-24,54369;-4,889773;-22,05888;-42,03765;2,098294;1,431983;1,58779;5,090905;0;0;
18282;-35,85151;-10,72205;-27,6584;-42,57933;1,983798;1,584789;1,69188;4,662558;0;0;
18300;-31,31138;-9,254699;-26,84777;-55,98639;1,940798;1,561291;1,953353;4,648698;0;0;
18323;-39,15555;-8,446207;-26,25459;-47,53178;2,017343;1,614033;2,041438;5,821314;0;0;
18338;-36,04618;-4,098971;-16,35455;-42,58849;1,957027;1,465742;2,708408;4,71515;0;0;
18354;-36,04618;-4,098971;-16,35455;-42,58849;2,02615;1,423568;3,590367;4,68057;0;0;
18368;-33,96995;-5,57838;-28,43451;-45,23611;1,75092;1,431125;4,975505;6,929165;0;0;
18385;-33,00432;-7,757498;-32,56928;-49,01719;1,880075;1,251584;5,899329;9,142874;0;0;
18400;-36,63889;-4,328578;-25,47565;-48,6113;1,757597;1,226086;6,119397;10,13281;0;0;
18416;-36,63889;-4,328578;-25,47565;-48,6113;1,717764;1,299812;6,382001;11,50129;0;0;
18431;-32,92174;-6,7575;-24,10119;-45,6303;1,644443;1,350236;5,671017;14,24625;0;0;
18448;-35,08557;-9,99716;-22,42119;-50,24395;1,577946;1,239828;4,191212;15,22204;0;0;
18466;-35,98889;-11,93957;-24,09943;-33,97527;1,420971;1,591762;3,135168;12,64367;0;0;
18482;-33,72537;-9,295854;-25,48421;-33,13679;1,430497;1,604195;1,998174;10,60271;0;0;
18497;-34,86968;-6,300389;-27,3908;-41,71656;1,347691;1,9274;1,612327;10,07608;0;0;
18515;-34,86968;-6,300389;-27,3908;-41,71656;1,29184;2,313226;1,569329;10,15842;0;0;
18532;-34,51816;-7,412362;-24,98029;-35,49215;1,381823;2,361183;1,528609;8,94078;0;0;
18549;-33,90137;-7,406088;-27,79854;-43,40492;1,534431;2,277826;1,474768;8,72065;0;0;
18565;-33,77877;-6,43598;-23,25555;-17,19457;1,650912;2,120677;1,721904;9,78878;0;0;
18582;-35,72689;-5,057887;-24,47774;-40,25729;1,79064;1,983899;1,680124;10,32823;0;0;
18600;-31,44414;-7,770758;-27,20013;-41,1543;1,977253;1,808525;1,70562;8,857984;0;0;
18616;-31,44414;-7,770758;-27,20013;-41,1543;2,12907;1,822667;1,651233;7,391318;0;0;
18630;-32,1929;-6,012407;-25,8511;-17,44456;2,127307;1,913805;1,602608;7,501427;0;0;
18648;-35,17231;-7,229436;-25,19028;-43,41845;2,095236;1,99524;1,575588;7,590165;0;0;
18666;-35,12402;-10,37101;-27,45882;-44,23631;1,896027;1,820395;1,521213;7,360056;0;0;
18683;-34,45325;-11,17053;-27,46019;-44,82737;1,722443;1,844979;1,51845;8,264921;0;0;
18700;-35,81107;-7,423993;-23,01705;-48,60379;1,474608;1,635485;1,513296;8,577581;0;0;
18716;-35,81107;-7,423993;-23,01705;-48,60379;1,262234;1,414725;1,526158;8,129208;0;0;
18734;-28,27436;-7,395722;-24,19332;-61,07441;1,407186;1,47542;1,625307;9,102812;0;0;
18751;-33,39733;-4,756161;-26,04359;-46,04723;1,52331;1,460627;1,582485;10,69477;0;0;
18767;-34,21733;-8,827805;-27,19645;-31,50758;1,511404;1,365611;1,606018;9,506772;0;0;
18783;-31,58177;-6,52218;-25,24688;-40,25707;1,576354;1,481613;1,718976;9,934579;0;0;
18799;-34,61797;-6,370377;-25,73168;-57,20458;1,598859;1,474589;1,770157;11,06225;0;0;
18817;-37,08514;-10,17248;-23,23501;-46,21774;1,815075;1,571072;1,783545;10,86482;0;0;
18832;-37,08514;-10,17248;-23,23501;-46,21774;1,70676;1,607133;1,793094;9,377435;0;0;
18848;-36,25054;-7,722612;-22,16594;1,534903;1,66642;1,614021;1,787096;9,058257;0;0;
18864;-33,35931;-7,222489;-25,1349;-19,03711;1,638098;1,356722;1,751622;10,34796;0;0;
18881;-31,57297;-10,36212;-24,23216;-44,9508;1,662896;1,327902;1,68923;10,46791;0;0;
18896;-31,57297;-10,36212;-24,23216;-44,9508;1,678796;1,45138;1,539727;9,913391;0;0;
18912;-33,54504;-6,767164;-24,37842;-35,69048;1,486321;1,499232;1,480208;10,17693;0;0;
18931;-35,98434;-6,31847;-26,23497;-40,91739;1,270306;1,405052;1,415625;11,19034;0;0;
18950;-31,12303;-2,989657;-24,10028;-38,5915;1,199739;1,529819;1,495914;9,864138;0;0;
18965;-32,68215;-12,76422;-24,51285;-46,87135;1,278925;1,752499;1,547719;8,692883;0;0;
18982;-32,90911;-11,23189;-22,48189;-40,38275;1,274972;1,778939;1,609815;7,938298;0;0;
19002;-36,09389;-6,291346;-23,04396;-36,37811;1,36202;1,802363;1,65452;10,35505;0;0;
19021;-35,24854;-5,221549;-24,90019;-39,57296;1,461914;1,742358;1,516707;10,28667;0;0;
19038;-32,54535;-5,575918;-23,26267;-38,38604;1,433812;1,837946;1,556996;12,85038;0;0;
19054;-32,54535;-5,575918;-23,26267;-38,38604;1,223476;1,691554;1,599369;16,29084;0;0;
19070;-40,65226;-8,008919;-22,5481;-41,40998;1,540051;1,567904;1,584499;15,02124;0;0;
19085;-39,64884;-4,694318;-25,44374;-37,85017;2,064325;1,805531;1,726822;16,80923;0;0;
19102;-35,43619;-8,778234;-22,79872;-43,33898;2,711349;1,907401;1,767405;14,57568;0;0;
19118;-35,28785;-7,112073;-27,83271;-40,8135;2,782539;2,031958;1,971901;13,48977;0;0;
19133;-35,28785;-7,112073;-27,83271;-40,8135;2,859503;2,100734;2,094896;9,737752;0;0;
19149;-34,7019;-8,864526;-23,01662;-48,25867;2,81702;2,029667;2,123318;7,465456;0;0;
19168;-35,14092;-6,252592;-25,85819;-65,98135;2,587045;2,03077;2,0215;6,132211;0;0;
19185;-34,0755;-5,794964;-23,1486;-30,27761;1,673727;1,997367;1,906753;5,98982;0;0;
19201;-36,63568;-3,753243;-23,99367;-37,02591;1,800143;1,966921;1,749289;6,010934;0;0;
19218;-30,63483;-10,53605;-20,57907;-35,92566;1,97813;2,074873;1,474867;6,113324;0;0;
19233;-30,63483;-10,53605;-20,57907;-35,92566;2,078363;2,236641;1,257615;6,030334;0;0;
19250;-39,90779;-10,59205;-28,89874;-50,40064;2,355596;2,505775;1,241266;5,962926;0;0;
19268;-35,94776;-7,017505;-23,50698;-48,66658;2,879857;2,700462;1,476639;5,755614;0;0;
19284;-37,78202;-8,605497;-23,93736;-18,62487;3,224924;3,040231;1,589126;7,065635;0;0;
19299;-25,90127;85,07063;-23,71097;-62,79549;5,606706;7,026344;1,685216;8,793773;1;0;
19315;-25,90127;85,07063;-23,71097;-62,79549;7,898633;11,02588;1,791829;10,44889;1;0;
19331;-71,05156;-85,34965;-23,66449;-36,82589;20,75457;29,48091;1,758486;10,99399;1;0;
19348;-786,1672;-23,9497;-26,65364;-37,31869;80,16563;38,37042;1,400269;9,854968;1;0;
19363;-1638,665;-18,51807;-23,53516;-43,51353;173,5142;49,28976;1,526273;9,146534;1;0;
19380;-347,9462;-53,54202;-24,70775;-36,15751;255,4221;60,56652;1,557801;7,443447;1;0;
19398;-347,9462;-53,54202;-24,70775;-36,15751;335,1988;68,27861;1,605547;5,356403;1;0;
19415;-66,38919;-82,6503;-27,55622;-58,47115;337,8604;53,44141;1,686365;2,908842;1;0;
19434;341,1771;-8,245169;-22,81963;-41,06241;353,9234;63,27502;2,069284;3,94484;1;0;
19456;-484,9078;-46,59678;-23,53697;-42,59451;349,7373;56,28305;2,128455;4,241829;1;0;
19474;-4,577651;-19,45684;-25,16668;-36,14025;259,4878;47,77284;1,89812;4,628508;1;0;
19495;-27,4945;-10,72838;-27,21073;-39,00805;181,5029;39,35755;1,853876;5,169086;1;0;
19511;-199,2204;-20,44744;-25,58564;-38,11013;163,0636;37,41701;2,46626;5,578416;1;0;
19530;-27,87432;-18,93773;-5,980365;-47,0376;186,0571;29,12894;8,0974;5,827519;1;0;
19547;-69,87586;-11,21879;23,18358;-26,27864;111,1412;18,24446;16,09154;7,985417;1;0;
19563;-29,86434;-5,707408;-105,3505;-160,0084;69,75566;12,42591;31,82821;13,68736;1;0;
19581;-38,28045;-6,080279;-218,6317;-75,54086;62,69024;8,382218;55,12092;22,27448;1;0;
19602;-34,02599;-6,799812;-113,531;108,3532;60,59286;6,606843;76,09142;31,84511;1;0;
19621;-28,15237;-10,086;-0,01438968;-23,91309;40,27483;5,142833;104,0733;46,39334;0;0;
19636;-28,15237;-10,086;-0,01438968;-23,91309;10,62272;2,747018;128,2203;58,66665;0;0;
19655;-23,89406;-7,197283;157,195;19,16776;5,460532;2,551974;133,6808;63,24984;0;0;
19671;-30,94279;-8,920881;-6,855955;-187,2122;5,924124;2,056555;132,5408;61,97289;0;0;
19688;-35,99272;-7,301849;-16,85498;-40,05557;5,348845;1,845756;113,6442;60,57063;0;0;
19704;-41,07399;-4,845629;-25,80115;-69,94694;5,433701;1,714777;94,88759;49,64908;0;0;
19721;-37,0141;-12,06201;-19,80248;-47,64951;5,720565;1,703981;64,88449;37,44696;0;0;
19737;-36,40186;-4,600331;-25,45676;-55,56759;4,941639;1,686959;37,68737;29,96741;0;0;
19754;-36,40186;-4,600331;-25,45676;-55,56759;4,239336;1,599397;22,46083;29,45809;0;0;
19772;-31,30194;-9,556008;-26,01443;-55,61195;3,406472;1,669285;7,497725;21,53566;0;0;
19792;-35,31208;-9,175436;-27,05048;-47,0801;3,140161;1,765111;5,529695;20,85411;0;0;
19814;-37,08921;-5,569634;-29,57158;-52,53116;2,663583;1,711133;6,233294;18,73387;0;0;
19832;-34,821;-6,052521;-28,83193;-101,8452;2,435811;1,630983;6,042662;18,73481;0;0;
19848;-34,45323;-8,422064;-33,3528;-31,44516;1,997424;1,617539;5,299559;15,02691;0;0;
19864;-34,49028;-7,662795;-21,7;-46,22024;1,789029;1,580392;4,803031;11,84432;0;0;
19881;-33,29381;-7,062179;-21,3018;-43,17818;1,817105;1,633532;4,467118;11,14701;0;0;
19897;-33,29381;-7,062179;-21,3018;-43,17818;1,792729;1,643501;3,496189;9,387102;0;0;
19914;-34,95761;-6,821735;-23,7071;-37,75681;1,781248;1,488986;3,262442;8,934794;0;0;
19931;-34,52545;-10,73981;-21,03783;-34,67784;1,600228;1,648238;2,599642;7,525665;0;0;
19946;-31,79925;-7,038215;-29,03414;-49,80611;1,679323;1,611429;2,750933;7,203818;0;0;
19962;-34,39014;-9,641525;-23,59402;-52,4081;1,686375;1,529663;2,591463;6,93326;0;0;
19978;-31,75938;-8,045239;-26,23784;-40,90553;1,494196;1,5145;2,671761;7,108182;0;0;
19996;-31,75938;-8,045239;-26,23784;-40,90553;1,316945;1,620524;2,693694;6,307795;0;0;
20012;-35,40084;-10,22869;-27,78544;-55,62985;1,234547;1,636811;2,656549;6,377371;0;0;
20028;-32,44007;-8,758912;-22,16958;-45,79181;1,246135;1,410877;2,54723;6,019406;0;0;
20044;-33,54022;-6,18457;-25,68411;-44,22755;1,156795;1,354842;2,234108;6,427584;0;0;
20061;-32,9245;-11,08985;-24,01833;-40,54308;1,212325;1,296641;2,249313;6,921623;0;0;
20075;-32,9245;-11,08985;-24,01833;-40,54308;1,27301;1,287358;2,119402;7,774068;0;0;
20092;-33,55283;-7,106155;-40,26833;-59,07039;1,443634;1,455491;3,772032;7,94315;0;0;
20107;-33,414;-5,709668;-34,76004;-40,64582;1,415251;1,616863;4,468027;7,593079;0;0;
20122;-33,53499;-8,269029;-23,40281;-41,70523;1,334015;1,666889;5,147784;8,277427;0;0;
20138;-36,40803;-8,746871;-24,85934;-29,89482;1,2649;1,682472;4,869475;8,530842;0;0;
20154;-36,40803;-8,746871;-24,85934;-29,89482;1,275223;1,698479;4,672267;8,866897;0;0;
20169;-35,30347;-6,405716;-23,50438;-35,43412;1,233337;1,737707;4,047121;8,543937;0;0;
20186;-34,3975;-8,028045;-19,67479;-48,30675;1,235594;1,588227;2,461813;8,317321;0;0;
20201;-32,91016;-6,702013;-23,6275;-24,55554;1,211601;1,565337;1,592636;8,582406;0;0;
20218;-35,99162;-12,11375;-24,72366;-33,97292;1,20381;1,649753;1,310759;7,613219;0;0;
20234;-35,99162;-12,11375;-24,72366;-33,97292;1,207288;1,640652;1,376562;6,511226;0;0;
20250;-31,38836;-9,316279;-24,14234;-40,8567;1,20892;1,477746;1,444982;5,107404;0;0;
20267;-35,73214;-8,747368;-23,14856;-39,29394;1,206047;1,50619;1,637539;4,973136;0;0;
20284;-35,23167;-3,230462;-23,77193;-38,72815;1,33633;1,60865;1,553711;4,662447;0;0;
20299;-33,53429;-9,879013;-26,71961;-38,98813;1,301831;1,533134;1,603323;3,830516;0;0;
20316;-33,53429;-9,879013;-26,71961;-38,98813;1,267119;1,419821;1,584637;3,296806;0;0;
20335;-36,40808;-6,061231;-22,36626;-21,15606;1,241445;1,376436;1,695097;5,551393;0;0;
20350;-35,06371;-7,582486;-21,97068;-38,75423;1,338246;1,341881;1,54177;5,818186;0;0;
20367;-34,76078;-8,022847;-22,81812;-23,60372;1,143362;1,194854;1,6908;6,358278;0;0;
20383;-35,47251;-7,856104;-25,83709;-40,25744;1,164985;1,281056;1,892422;6,301081;0;0;
20399;-31,2812;-5,144993;-24,69676;-30,61637;1,202143;1,364805;1,970756;6,604424;0;0;
20415;-31,2812;-5,144993;-24,69676;-30,61637;1,264118;1,447473;1,964329;6,160362;0;0;
20431;-33,55679;-7,41222;-26,83527;-37,4466;1,202903;1,61476;1,92008;5,109232;0;0;
20447;-30,5556;-5,591317;-23,51808;-40,61705;1,328047;1,733297;1,785454;4,762117;0;0;
20465;-35,88007;-6,954649;-22,90493;-33,53003;1,412088;1,700838;1,49521;5,461118;0;0;
20481;-33,89669;-7,388954;-27,87619;-41,89586;1,400963;1,695905;1,533572;6,024884;0;0;
20495;-33,89669;-7,388954;-27,87619;-41,89586;1,38962;1,689954;1,49552;6,196992;0;0;
20510;-33,65833;-7,855887;-20,99;-34,86946;1,337936;1,617619;1,39403;6,742147;0;0;
20529;-35,4261;-5,205614;-24,95386;-44,31699;1,339761;1,707874;1,634076;6,682822;0;0;
20546;-35,26331;-6,1483;-26,9123;-65,17789;1,181534;1,687256;1,546167;6,296385;0;0;
20562;-35,49103;-8,576905;-23,23224;-45,42937;1,189222;1,799499;1,726007;6,060257;0;0;
20579;-35,49103;-8,576905;-23,23224;-45,42937;1,235984;1,950662;1,785875;5,730619;0;0;
20595;-35,49103;-8,576905;-23,23224;-45,42937;1,329411;2,129512;1,817218;5,61757;0;0;
20612;-33,09144;-7,110026;-29,78153;-56,65512;1,363562;2,004208;1,626602;4,768741;0;0;
20630;-32,63287;-9,453481;-25,39231;-42,4241;1,451303;1,930398;1,818637;4,872449;0;0;
20653;-33,23303;-6,319355;-21,31201;3,709657;1,513172;1,816925;2,023747;5,554231;0;0;
20670;-30,57159;-8,690755;-25,97383;-42,2452;1,529166;1,908072;1,995459;6,142282;0;0;
20689;-32,23356;-5,960885;-24,49367;-41,32773;1,455221;1,747832;1,847688;6,343482;0;0;
20707;-36,3723;-6,922887;-23,69721;-24,73685;1,385192;1,819152;1,785283;6,799507;0;0;
20724;-35,24704;-9,240907;-24,1411;-47,98626;1,36144;1,816395;1,499385;6,858258;0;0;
20742;-32,53414;-9,062598;-24,13821;-62,35693;1,300775;1,763885;1,373759;7,555364;0;0;
20759;-34,59784;-5,140092;-24,69954;-38,81231;1,284554;1,971649;1,211395;6,603312;0;0;
20776;-34,59784;-5,140092;-24,69954;-38,81231;1,191055;2,097006;1,247817;6,430072;0;0;
20795;-32,17426;-7,738811;-26,32066;-42,31742;1,293362;1,930754;1,294681;6,058032;0;0;
20810;-36,46486;-6,054191;-21,61378;-37,1174;1,340048;1,906109;1,259848;4,652339;0;0;
20851;-33,70626;-4,167641;-28,17961;-46,06944;1,241968;1,852419;1,420508;5,256365;0;0;
20868;-34,88769;-4,792053;-23,69366;-48,79557;1,135796;1,664702;1,526386;4,584289;0;0;
20886;-33,27924;-10,46196;-25,66816;-33,25729;1,105067;1,483839;1,427636;5,814754;0;0;
20902;-36,22816;-6,164981;-26,14129;-48,12546;1,13195;1,401979;1,505123;5,789169;0;0;
20920;-35,42312;-10,79792;-23,61858;-47,26089;1,043005;1,482697;1,429129;6,07445;0;0;
20937;-35,42312;-10,79792;-23,61858;-47,26089;1,10445;1,457256;1,323383;5,883885;0;0;
20952;-32,90039;-9,855009;-27,07474;-43,05556;1,140007;1,415709;1,207712;5,667681;0;0;
20968;-35,24588;-4,093922;-19,53946;-15,72786;1,225191;1,536742;1,441338;6,660182;0;0;
20985;-33,45371;-6,41761;-24,5134;-50,63575;1,328719;1,471798;1,685369;6,908114;0;0;
21001;-35,07864;-7,360641;-24,8626;-39,27003;1,380637;1,343685;1,623606;6,938444;0;0;
21018;-31,70374;-6,331914;-26,62311;-42,37907;1,468338;1,601184;1,727487;6,598073;0;0;
21035;-31,70374;-6,331914;-26,62311;-42,37907;1,548796;1,897869;1,863782;6,161409;0;0;
21052;-32,81518;-4,911316;-26,64092;-43,49783;1,557113;2,028288;1,813257;5,86478;0;0;
21071;-32,01677;-7,777234;-25,34008;-37,09747;1,573286;2,037349;1,602654;6,100113;0;0;
21088;-34,28029;-5,445034;-21,92432;-39,79628;1,4718;2,129245;1,666207;5,477326;0;0;
21103;-34,28029;-5,445034;-21,92432;-39,79628;1,45153;2,071513;1,831883;5,955787;0;0;
21120;-18,19113;-7,381361;-23,51535;-54,71431;1,881962;2,211777;1,791359;6,426592;0;0;
21136;-18,19113;-7,381361;-23,51535;-54,71431;2,35239;2,411205;1,641702;6,415487;0;0;
21152;-56,88673;-48,39461;-24,86262;-36,03841;3,240884;3,527128;1,615041;4,267594;0;0;
21167;-30,73866;45,31983;-26,34995;-40,0644;6,523781;8,184324;1,54085;4,556572;1;0;
21187;-160,0234;-65,94443;-25,23016;-43,24372;41,45207;20,44649;1,359287;4,39507;1;0;
21203;342,5453;98,57188;-24,4971;-39,3619;104,4347;39,49671;1,200784;3,868719;1;0;
21220;-714,2028;-27,34438;-25,45491;-54,1336;222,7274;52,4188;1,283834;3,969548;1;0;
21237;-714,2028;-27,34438;-25,45491;-54,1336;340,9664;65,15857;1,38788;4,499927;1;0;
21256;764,6259;49,0631;-23,87866;-39,65364;446,6004;70,20546;1,448363;4,565606;1;0;
21278;220,9174;5,556519;-25,56292;-49,3386;465,6517;68,67651;1,446648;3,986695;1;0;
21293;220,9174;5,556519;-25,56292;-49,3386;471,9949;63,02186;1,447899;3,856982;1;0;
21308;-105,5752;-5,793349;-28,18584;-48,21089;387,1454;52,79347;1,562506;4,044055;1;0;
21326;-102,8635;17,97086;-23,46157;-42,13564;308,2761;45,60489;1,676421;5,388107;1;0;
21341;-115,2263;-21,41566;-21,99739;-39,97535;248,3301;42,2513;1,582444;4,774979;1;0;
21360;-2,610616;-22,00559;-25,28842;-40,97715;204,7467;37,93707;1,682075;5,038124;1;0;
21376;-2,610616;-22,00559;-25,28842;-40,97715;238,8458;31,32973;1,768003;5,023902;1;0;
21393;-24,29478;-3,156709;-78,29025;-28,38169;203,2701;22,60576;8,073157;7,877887;1;0;
21408;-59,392;7,124603;-126,5022;-45,38404;186,1295;20,00314;15,45627;13,27637;1;0;
21425;-27,26351;3,563811;-273,9763;-72,69722;151,7267;11,21783;58,82438;18,34088;1;0;
21441;-40,74866;3,9049;-374,9166;-98,41003;132,0552;7,673494;88,10365;31,33752;1;0;
21457;-40,74866;3,9049;-374,9166;-98,41003;61,45409;6,48652;117,3995;44,23225;0;0;
21473;-30,50469;-1,434872;169,5117;-103,2892;5,526739;9,34253;139,2096;57,91042;0;0;
21492;-35,65089;-4,010532;262,9463;27,56699;5,667129;9,816442;178,8726;74,57845;0;0;
21508;-29,36167;-6,678343;-69,42196;-133,2165;5,239011;8,905369;166,4413;80,16939;0;0;
21528;-34,34591;-8,896783;139,0267;75,31777;5,035816;8,280228;146,0267;80,04254;0;0;
21547;-41,82131;-5,819253;-36,5032;-43,96062;4,790479;7,347092;120,0732;74,48856;0;0;
21563;-31,27304;-8,819233;-56,4661;-68,60186;4,264823;2,831409;103,7975;65,87502;0;0;
21579;-36,06319;-5,717339;-21,30846;-38,34098;3,962279;2,168012;63,16039;60,34745;0;0;
21597;-34,75826;-8,320175;-76,30627;-66,53067;2,464051;1,827277;40,95397;46,0191;0;0;
21613;-34,75826;-8,320175;-76,30627;-66,53067;2,06245;1,815758;31,17533;39,98908;0;0;
21629;-35,12252;-7,820892;-27,30002;27,29175;1,864882;1,854448;35,5629;39,13203;0;0;
21648;-31,20376;-8,990824;-50,46178;-18,40678;1,205909;1,738659;33,72653;38,0053;0;0;
21666;-34,87091;-10,82748;-29,88737;-50,97015;1,333823;1,712609;28,48825;34,25121;0;0;
21686;-34,2625;-10,07859;-25,49079;-46,12445;1,15647;1,681353;27,68899;28,66884;0;0;
21701;-36,5832;-10,58161;-13,97539;-56,70238;1,408929;1,813906;27,16051;26,4422;0;0;
21720;-36,2373;-4,941594;-20,42471;-35,69964;1,704458;2,047702;24,87621;23,76737;0;0;
21738;-34,70554;-9,355595;-30,13782;-35,50434;1,613939;1,854176;9,035904;13,75973;0;0;
21753;-34,70554;-9,355595;-30,13782;-35,50434;1,519823;1,831845;8,307489;10,20806;0;0;
21769;-32,91319;-6,531569;-36,15175;-44,9472;1,489225;1,777271;8,075245;8,356007;0;0;
21787;-35,26657;-7,585866;-16,66384;-38,04758;1,37058;1,675087;7,763681;9,163865;0;0;
21804;-33,40774;-7,873114;-16,81983;-40,02011;1,1084;1,78466;5,502656;9,113523;0;0;
21827;-33,90446;-3,97798;-13,71729;-33,38805;1,062061;1,591385;6,025195;8,915969;0;0;
21843;-32,90701;-9,552032;-33,44357;-34,78826;1,0935;1,756581;7,243408;9,854384;0;0;
21860;-35,24333;-4,552141;-27,6589;-45,45395;1,057523;1,984559;7,337951;10,98166;0;0;
21877;-37,45375;-5,034599;-18,58618;-51,15089;1,181235;2,012702;6,787901;11,04981;0;0;
21894;-37,45375;-5,034599;-18,58618;-51,15089;1,293839;1,943674;6,507231;10,92617;0;0;
21910;-35,1055;-7,887657;-23,77302;-40,39903;1,503233;1,865149;6,704237;11,70478;0;0;
21926;-33,90859;-6,74969;-25,60928;-40,3603;1,499988;1,694327;4,689223;11,30121;0;0;
21942;-31,76517;-7,042246;-28,31551;-9,7286;1,556699;1,551525;4,363884;9,623052;0;0;
21961;-32,91042;-10,30405;-33,30842;-37,73233;1,455576;1,39573;5,764251;9,284914;0;0;
21977;-33,79247;-3,367954;-30,88374;-82,02616;1,233266;1,504035;5,728179;8,575925;0;0;
21995;-33,79247;-3,367954;-30,88374;-82,02616;0,9332375;1,560297;5,143711;6,856086;0;0;
22010;-32,03077;1,149155;-25,91022;-38,16316;0,8506877;1,741152;4,387862;6,670425;0;0;
22026;-36,13086;-8,882729;-26,79985;-40,2869;1,040922;2,189316;4,216454;5,563876;0;0;
22044;-34,76449;-19,95206;-22,68194;-39,82289;1,055891;2,434489;2,55319;4,611103;0;0;
22062;-33,30319;-8,030259;-22,1226;-40,14481;1,32306;2,815419;1,858481;3,862537;0;0;
22077;-32,07845;-4,361869;-27,45282;-47,41196;1,354027;2,67672;1,748454;4,443577;0;0;
22093;-32,07845;-4,361869;-27,45282;-47,41196;1,367386;2,598721;1,849745;4,988825;0;0;
22108;-37,22517;-4,241457;-23,67434;-35,2491;1,408289;2,426794;1,969294;5,808987;0;0;
22126;-36,43185;-10,5243;-25,00786;-34,43066;1,380711;2,569577;1,752125;5,881369;0;0;
22141;-36,59464;-6,538455;-31,10925;-47,74271;1,315732;2,307417;2,418255;6,567977;0;0;
22158;-32,63285;-8,394133;-12,66171;-36,89638;1,198657;1,914873;4,461186;6,708039;0;0;
22173;-32,63285;-8,394133;-12,66171;-36,89638;1,235625;1,81559;6,375309;6,461341;0;0;
22190;-32,54382;-6,148538;-26,10067;-53,74183;1,329492;1,786605;7,116451;7,223281;0;0;
22206;-34,16294;-12,1367;-24,00046;-38,09808;1,275852;1,664215;7,275735;8,1062;0;0;
22221;-33,86789;-6,684468;-21,86123;-42,3862;1,236166;1,597673;7,146476;10,11129;0;0;
22238;-35,12934;-5,62327;-26,53576;-4,647116;1,166728;1,730149;6,670466;11,09879;0;0;
22255;-35,12934;-5,62327;-26,53576;-4,647116;1,150777;1,884354;4,651394;11,70229;0;0;
22272;-32,25351;-7,110543;-22,15076;-46,00024;1,297892;1,929234;2,310614;10,12861;0;0;
22288;-38,56455;-5,20661;-26,46447;-39,53552;1,296515;2,060422;2,011562;9,007303;0;0;
22305;-34,88958;-6,103022;-22,9792;-47,46811;1,328546;1,925819;1,895056;7,852749;0;0;
22322;-35,25431;-10,02387;-22,00175;-43,04685;1,537205;1,811506;1,886936;7,851581;0;0;
22337;-35,25431;-10,02387;-22,00175;-43,04685;1,737828;1,766185;1,934764;7,827151;0;0;
22354;-35,25431;-10,02387;-22,00175;-43,04685;1,869254;1,724217;1,90295;8,112401;0;0;
22370;-34,85417;-8,469018;-22,20491;-44,25653;1,869432;1,87882;1,906854;9,172098;0;0;
22387;-34,5173;-9,139491;-25,61533;-30,07245;1,727879;1,837625;1,99066;9,726665;0;0;
22405;-35,86508;-8,368829;-27,35501;-44,2392;1,696691;1,878648;1,989395;10,25168;0;0;
22422;-33,2887;-4,053174;-24,67532;-40,64265;1,416932;1,889296;1,878949;8,507008;0;0;
22438;-31,99086;-10,15473;-23,5217;-19,3774;1,293867;2,202384;1,802634;8,503326;0;0;
22459;-33,26935;-6,687063;-20,5137;-36,09703;1,233778;2,099033;1,754957;8,350792;0;0;
22474;-33,26935;-6,687063;-20,5137;-36,09703;1,122012;1,915493;1,646878;7,747942;0;0;
22490;-32,55985;-5,87462;-25,6199;-50,47642;1,201223;1,798285;1,519622;6,46234;0;0;
22506;-33,27537;-9,018622;-24,32067;-42,03294;1,282745;1,797837;1,442942;7,144937;0;0;
22524;-38,43692;-6,075646;-20,80345;-39,12527;1,301123;1,461299;1,465177;6,986178;0;0;
22541;-34,85051;-7,11214;-26,17049;-36,47089;1,543842;1,385446;1,609839;6,217815;0;0;
22556;-34,85051;-7,11214;-26,17049;-36,47089;1,850852;1,365021;1,644364;6,421365;0;0;
22571;-36,21265;-6,501685;-24,2056;-25,69997;1,835143;1,373338;1,514344;7,51872;0;0;
22589;-35,40793;-7,77953;-25,12145;-49,29015;1,883582;1,470601;1,590861;8,293237;0;0;
22607;-34,25991;-8,259092;-24,99827;-42,93835;1,993977;1,657534;1,615478;7,927991;0;0;
22623;-34,94583;-8,831363;-24,97282;-45,07858;1,860288;1,839412;1,528385;8,447823;0;0;
22640;-33,83871;-8,460314;-24,99555;-46,20625;1,614533;1,873094;1,415943;8,302547;0;0;
22659;-36,42917;-6,907848;-28,98347;-70,87466;1,571121;1,76105;1,517732;7,001888;0;0;
22676;-36,42917;-6,907848;-28,98347;-70,87466;1,493637;1,525107;1,481841;5,530518;0;0;
22693;-34,43909;-7,498867;-23,17802;-39,03893;1,451844;1,519161;1,402013;4,815742;0;0;
22707;-34,43909;-7,498867;-23,17802;-39,03893;1,395062;1,438906;1,339484;5,084269;0;0;
22724;-35,25294;-9,472306;-25,31058;-63,35728;1,320536;1,290453;1,230717;5,547418;0;0;
22739;-37,82966;-9,813674;-23,69466;-36,96519;1,287073;1,491322;1,260985;6,603543;0;0;
22755;-37,82966;-9,813674;-23,69466;-36,96519;1,253092;1,686781;1,261879;7,832449;0;0;
22770;-35,60854;-4,161963;-23,26931;-48,72442;1,26713;1,699067;1,367298;8,034158;0;0;
22787;-30,31116;-11,47101;-23,30289;-37,64434;1,421521;1,85169;1,470286;7,930742;0;0;
22805;-33,09124;-6,572052;-20,90307;-23,89038;1,512714;2,047605;1,578762;8,932289;0;0;
22825;-35,50523;-8,849356;-25,47054;-39,7344;1,544178;2,091762;1,614923;7,714918;0;0;
22841;-34,93622;-10,43017;-24,15705;-36,9957;1,645023;1,907189;1,7569;6,310201;0;0;
22859;-33,04629;-11,59487;-25,07876;-43,97902;1,606285;1,890181;1,838939;6,097785;0;0;
22875;-33,04629;-11,59487;-25,07876;-43,97902;1,498572;1,737402;1,940749;6,009166;0;0;
22893;-34,39663;-5,525643;-25,86767;-38,11123;1,384151;1,66159;1,792631;6,630029;0;0;
22909;-32,64276;-6,902614;-25,59335;-55,31965;1,325788;1,578394;1,760961;5,397029;1;0;
22925;-26,78378;-2,044748;-24,29259;-46,51181;1,924931;1,834161;2,006151;6,698722;1;0;
22941;-389,7331;-146,0356;-26,13959;-46,01067;13,30339;11,08725;1,856452;6,268166;1;0;
22959;-348,4072;165,5425;-23,60284;-39,80209;55,74662;34,0135;1,661179;5,520773;1;0;
22979;594,5579;15,45682;-23,21821;-49,82043;145,1013;44,53027;1,645019;4,955266;1;0;
22994;594,5579;15,45682;-23,21821;-49,82043;234,5043;55,11007;1,836159;5,339779;1;0;
23010;-158,6568;-85,45023;-25,01953;-37,22456;251,553;59,19215;1,614647;4,143157;1;0;
23027;-77,25061;-19,3547;-22,50513;-38,43723;261,1782;70,07935;1,722459;4,539116;1;0;
23044;-54,07347;-33,37921;-23,29992;-20,57005;246,439;62,12572;1,69432;5,621925;1;0;
23066;-88,19082;-9,724172;-24,75398;-39,07397;194,3319;52,00416;1,677412;5,856925;1;0;
23080;-21,65414;1,377135;-23,34616;-39,43225;111,885;48,62394;1,54923;5,910703;1;0;
23099;-33,78933;-8,965815;-17,83146;-40,59866;48,4679;39,97393;1,579955;5,857879;1;0;
23117;-33,00384;-11,26648;-17,03998;-37,645;37,58866;24,50539;2,349738;6,388901;1;0;
23138;-37,56955;-7,591555;61,55092;-10,81154;22,55409;17,02259;14,70867;11,79456;1;0;
23155;-37,56955;-7,591555;61,55092;-10,81154;17,55423;10,27787;27,17483;17,65264;1;0;
23170;-33,92289;-7,417593;-47,03677;-113,9492;5,493282;4,944398;41,46044;26,3504;1;0;
23186;-38,37286;-8,877246;106,4007;-10,13349;3,260229;2,202323;64,5334;35,48057;1;0;
23203;-25,27141;-9,090491;596,9593;28,73438;4,750716;2,142909;92,63705;40,88177;1;0;
23221;-28,77354;-10,57457;-345,7117;-77,68877;6,277347;1,6926;118,5597;41,0467;0;0;
23238;-31,82638;-10,54775;-180,4217;36,18625;6,195151;1,687902;129,8976;47,11506;0;0;
23256;-31,82638;-10,54775;-180,4217;36,18625;6,262534;1,897009;135,4689;55,53856;0;0;
23273;-36,46755;-11,58782;53,36863;46,36691;6,553019;2,085714;134,7141;56,84055;0;0;
23292;-34,51546;-9,314132;135,3392;-100,6972;5,132967;2,186989;139,1282;60,16298;0;0;
23307;-37,30951;-3,015399;79,73221;21,7489;3,738957;2,197388;119,578;62,27578;0;0;
23326;-34,74548;-8,129391;-68,80386;-165,5005;2,480671;2,120558;103,9184;60,78458;0;0;
23346;-34,26012;-5,789975;150,2874;-22,93371;2,16296;2,026639;90,89007;55,81742;0;0;
23362;-32,81045;-9,553948;111,2131;-68,76491;1,733049;1,936494;79,43891;50,87806;0;0;
23377;-32,81045;-9,553948;111,2131;-68,76491;1,423048;1,842533;56,80187;44,56226;0;0;
23394;-37,58204;-4,44012;-13,56549;-39,84646;1,321597;1,914731;41,50839;34,43574;0;0;
23411;-32,08234;-10,53507;-19,92046;-11,68494;1,44683;2,226558;32,1412;29,52541;0;0;
23426;-33,22356;-6,736347;-20,25201;-34,38982;1,368649;1,998883;23,32148;24,13346;0;0;
23441;-35,91056;-8,931418;-20,86255;-36,58168;1,32501;2,021972;13,36974;16,50761;0;0;
23458;-32,92331;-8,933894;93,31302;-38,79787;1,35303;1,990577;11,7193;12,01435;0;0;
23474;-32,92331;-8,933894;93,31302;-38,79787;1,444299;1,955167;11,82773;8,47843;0;0;
23490;-35,25298;-8,495622;-35,73594;-37,50733;1,243402;1,85377;14,9426;8,209803;0;0;
23506;-32,74014;-7,789237;-20,1204;-45,57604;1,339322;1,625322;14,32506;7,974752;0;0;
23525;-33,24261;-8,569578;-18,22365;-44,40601;1,434497;1,499175;13,93725;8,22084;0;0;
23544;-34,86531;-6,051104;-21,3056;-41,53104;1,705416;1,435002;13,78194;9,957637;0;0;
23560;-35,60885;-9,023575;-16,67047;-40,35189;1,663191;1,304193;11,45074;9,536803;0;0;
23576;-35,60885;-9,023575;-16,67047;-40,35189;1,703045;1,221557;6,18185;8,268707;0;0;
23594;-32,78636;-6,670356;-102,2081;-50,05597;1,638474;1,095614;7,061265;7,081658;0;0;
23611;-33,70584;-8,401969;-38,60681;-29,24577;1,580775;1,200021;10,71751;7,560965;0;0;
23626;-32,05962;-10,16719;-23,15055;-32,38717;1,323126;1,281249;10,37466;6,08261;0;0;
23642;-36,2236;-6,037305;-22,48883;-23,44958;1,273571;1,336249;9,80636;6,472487;0;0;
23660;-33,03999;-5,330899;-19,30637;-39,28391;1,238732;1,548992;8,922696;7,101374;0;0;
23675;-33,03999;-5,330899;-19,30637;-39,28391;1,184983;1,695684;7,868398;7,66705;0;0;
23692;-33,8003;-4,218258;-30,4496;-33,32382;1,245424;1,624214;3,050947;8,863523;0;0;
23708;-32,55119;-7,754426;-28,32247;-51,73865;1,155487;1,727209;2,445489;8,700782;0;0;
23724;-31,29976;-6,192717;-31,85027;-50,25129;1,203118;1,811837;3,359262;10,64058;0;0;
23741;-33,24203;-6,893293;-24,23776;-38,6322;1,179652;1,760247;3,453923;9,549113;0;0;
23757;-32,53497;-8,774804;-19,98312;-39,27679;1,358423;1,603723;3,304255;8,633565;0;0;
23773;-32,53497;-8,774804;-19,98312;-39,27679;1,415227;1,536189;3,003478;8,321558;0;0;
23789;-32,65054;-5,946458;-26,47964;-42,97866;1,512361;1,441238;2,583007;5,668326;0;0;
23806;-32,65054;-5,946458;-26,47964;-42,97866;1,54829;1,418509;1,707984;3,140062;0;0;
23821;-34,15671;-10,80296;-24,50668;-40,56713;1,468935;1,611018;1,240443;2,946225;0;0;
23837;-34,15671;-10,80296;-24,50668;-40,56713;1,435199;1,71324;1,21426;4,241443;0;0;
23855;-36,55811;-7,853167;-31,59752;-43,32363;1,310372;1,751831;1,55586;4,471872;0;0;
23871;-36,13593;-5,660859;-27,97105;-39,25135;1,339969;1,895717;4,17363;4,887724;0;0;
23888;-35,24369;-6,906013;-35,85616;-45,78433;1,330297;1,926371;5,953842;4,556283;0;0;
23907;-31,94073;-8,115834;-28,18728;-74,91418;1,339995;1,880517;6,562616;3,901277;0;0;
23925;-31,20299;-8,5966;-22,83035;-33,69974;1,614528;1,956765;6,712276;3,994739;0;0;
23941;-33,29683;-7,347155;-25,49254;-41,58031;1,724949;2,909164;6,281805;4,639684;0;0;
23957;-33,29683;-7,347155;-25,49254;-41,58031;1,682812;3,699698;5,362589;5,12749;0;0;
23972;-35,43534;-9,598703;-24,91911;-64,5975;1,499217;3,919157;3,468662;5,755729;0;0;
23988;-32,19244;-8,015929;-25,93427;-44,56264;1,598731;3,80955;1,989182;7,067369;0;0;
24006;-33,96636;-10,78564;-22,48143;-44,64967;1,5628;3,82727;1,765607;5,803465;0;0;
24022;-35,73291;-6,570735;-26,22995;-48,19299;1,498499;3,199368;1,577142;5,899127;0;0;
24039;-31,93653;-5,690303;-21,36269;-39,55515;1,418077;2,162562;1,589731;6,399005;0;0;
24056;-31,93653;-5,690303;-21,36269;-39,55515;1,36626;1,415235;1,661426;7,310099;0;0;
24077;-35,61378;-11,60343;-24,88435;-42,46154;1,401271;1,409383;1,60078;6,651654;0;0;
24094;-35,61378;-11,60343;-24,88435;-42,46154;1,297754;1,433201;1,713818;7,581048;0;0;
24109;-36,20314;-9,556849;-25,07885;-44,3737;1,327133;1,504419;1,578335;7,185034;0;0;
24125;-31,93019;-8,987105;-27,18145;-27,83945;1,270372;1,710214;1,603299;7,831396;0;0;
24140;-34,39722;-7,051165;-24,49798;-36,39217;1,380565;1,739661;1,500166;7,017753;0;0;
24156;-34,39722;-7,051165;-24,49798;-36,39217;1,459115;1,687538;1,35369;6,431262;0;0;
24171;-31,99443;-2,38883;-22,16342;-35,94073;1,577867;1,742875;1,523957;5,920983;0;0;
24190;-35,88547;-9,36466;-23,98598;-40,97376;1,700146;1,694077;1,531401;5,120962;0;0;
24207;-33,41174;-4,229962;-26,71685;-53,53671;1,671832;1,684406;1,680928;5,116742;0;0;
24224;-30,84593;-6,050771;-23,86005;-42,09949;1,852516;1,577432;1,765528;5,625535;0;0;
24239;-33,7783;-11,27479;-25,49678;-36,08747;1,817951;1,577628;1,76651;6,745287;0;0;
24256;-33,7783;-11,27479;-25,49678;-36,08747;1,707302;1,61814;1,612111;7,659411;0;0;
24271;-33,76514;-9,38392;-25,69578;-39,22292;1,536326;1,361877;1,598855;7,528852;0;0;
24289;-35,4437;-8,395503;-24,69437;-43,62555;1,450984;1,190736;1,506706;7,623867;0;0;
24305;-31,57479;-4,608077;-19,64268;-37,22806;1,565904;1,111593;1,475292;5,762408;0;0;
24323;-34,89552;-5,440877;-23,94698;-14,17078;1,47569;1,201434;1,507861;7,631352;0;0;
24339;-32,82001;-4,36149;-25,83399;-41,37881;1,412946;1,319052;1,624272;6,457023;0;0;
24356;-32,82001;-4,36149;-25,83399;-41,37881;1,453242;1,406564;1,654013;5,473565;0;0;
24372;-33,91169;-7,774245;-25,86183;-38,81971;1,523468;1,445703;1,678312;7,264611;0;0;
24388;-34,63847;-5,682684;-26,50777;-46,97664;1,252201;1,50406;1,779049;9,588282;0;0;
24405;-35,11798;-6,067615;-25,13086;-35,78515;1,284079;1,574103;1,591259;8,91372;0;0;
24423;-34,52698;-7,568169;-24,64659;-31,45184;1,288324;1,5798;1,521598;8,714174;0;0;
24438;-33,17323;-8,39839;-24,98902;-35,81836;1,162642;1,410978;1,415004;8,243061;0;0;
24454;-33,17323;-8,39839;-24,98902;-35,81836;1,072936;1,270421;1,395819;7,670264;0;0;
24471;-36,43792;-11,35234;-25,67321;-35,10354;1,234358;1,466879;1,239847;4,179081;0;0;
24488;-33,17646;-14,25222;-21,97997;-24,40121;1,39048;1,679494;1,418423;5,455729;0;0;
24505;-33,26843;-6,181033;-28,66789;-50,7798;1,393798;1,847251;1,419702;6,726614;0;0;
24521;-33,84719;-11,06565;-24,23738;-38,29321;1,373477;2,030638;1,361361;6,505237;0;0;
24538;-33,77563;-8,773295;-24,13389;-42,7123;1,420709;2,18377;1,305696;6,619369;0;0;
24555;-33,77563;-8,773295;-24,13389;-42,7123;1,383632;2,305465;1,293951;6,657461;0;0;
24573;-35,13106;-5,869581;-23,76108;-44,1671;1,086324;2,274068;1,423819;6,733791;0;0;
24591;-34,07559;-5,312283;-28,16309;-29,99947;1,070694;1,943506;1,454707;4,515408;0;0;
24607;-33,03177;-8,246947;-25,91855;-41,36785;1,337693;1,81259;1,517924;4,846423;0;0;
24624;-34,44317;-9,044991;-22,02454;-39,64519;1,523857;1,877896;1,569929;6,238751;0;0;
24639;-34,42324;-6,420025;-25,12514;-35,02758;2,180874;2,63158;1,707705;6,721998;0;0;
24655;-34,42324;-6,420025;-25,12514;-35,02758;2,831863;3,434251;1,670548;6,877797;0;0;
24670;-38,02037;-0,3855149;-22,67295;-46,68147;5,15045;6,342615;1,64347;7,45142;0;0;
24687;-41,6618;-12,53732;-22,37994;-41,80864;7,298056;9,544146;1,558439;6,511312;0;0;
24703;25,41442;49,11273;-22,18166;-37,36543;13,13447;19,04508;1,571643;7,147685;1;0;
24720;-47,11745;159,5573;-21,96823;-43,61572;20,06151;33,33575;1,411866;6,911196;1;0;
24737;-47,11745;159,5573;-21,96823;-43,61572;26,89255;47,6126;1,275679;6,980957;1;0;
