Time; EMG1; EMG2; EMG3; EMG4; EMG1_F; EMG2_F; EMG3_F; EMG4_F;Note_R;Note_V;;Level 2;Joueur;Notes hit;% Reussite R;Offset EMG1;Onset EMG1;% Reussite V;Offset EMG2;Onset EMG2
11;-32,23208;-9,312356;-25,87943;-41,19361;1,940706;1,708325;1,65121;2,275591;0;0;;;1;91;83,87096;-24,77558;48,63196;95,12195;-7,50142;69,18228
27;-32,23208;-9,312356;-25,87943;-41,19361;1,772742;1,57727;1,498548;2,64873;0;0;;;2;72;61,29032;-34,15545;353,6;82,92683;-7,50142;41,1299
41;-34,27873;-6,248423;-22,00722;-37,93421;1,722103;1,597858;1,637113;2,792815;0;0;
54;-34,4497;-6,610199;-23,82971;-40,98681;1,51087;1,659548;1,581393;2,800278;0;0;
71;-35,24818;-5,873469;-24,7741;-38,4283;1,262153;1,712966;1,597396;2,595103;0;0;
85;-35,24818;-5,873469;-24,7741;-38,4283;1,156696;1,647696;1,550091;2,503518;0;0;
105;-32,0363;-7,412621;-24,14736;-38,42155;1,237694;1,629607;1,443713;2,337595;0;0;
124;-35,60005;-10,06244;-26,59752;-40,4734;1,160653;1,676085;1,298542;1,897159;0;0;
141;-31,34843;-9,755693;-24,69057;-39,91542;1,266235;1,616273;1,251762;1,953413;0;0;
161;-36,60623;-11,8073;-27,01976;-43,08648;1,28273;1,6137;1,415958;2,211556;0;0;
175;-33,8976;-5,333993;-25,74114;-42,59321;1,32522;1,524385;1,260469;2,324325;0;0;
190;-38,7397;-6,060357;-26,52377;-38,65399;1,417031;1,500082;1,287231;2,157154;0;0;
206;-38,7397;-6,060357;-26,52377;-38,65399;1,251879;1,486671;1,387736;2,167785;0;0;
222;-33,75663;-3,995673;-26,45424;-35,839;1,320962;1,59474;1,37785;2,48362;0;0;
237;-31,65617;-9,378963;-24,85491;-36,81974;1,205537;1,650689;1,199144;2,482373;0;0;
251;-32,28849;-5,091939;-25,2878;-50,71877;1,240231;1,655801;1,223077;2,960637;0;0;
266;-32,28849;-5,091939;-25,2878;-50,71877;1,308409;1,681806;1,265676;3,388422;0;0;
279;-31,55043;-6,680646;-24,01033;-38,66963;1,316972;1,795418;1,289713;3,478411;0;0;
293;-35,6193;-10,80233;-22,80407;-36,89423;1,246067;1,84852;1,273897;3,180687;0;0;
307;-35,6193;-10,80233;-22,80407;-36,89423;1,154213;1,744349;1,270747;2,963882;0;0;
321;-34,13705;-7,053172;-22,29183;-43,48262;1,231232;1,8021;1,317079;3,078941;0;0;
337;-35,36091;-7,674522;-24,9391;-35,40654;1,213179;1,84272;1,431499;2,643033;0;0;
350;-35,26073;-10,10605;-27,3754;-35,10585;1,201257;1,595842;1,412318;2,843032;0;0;
364;-35,26073;-10,10605;-27,3754;-35,10585;1,113828;1,520896;1,542144;3,522057;0;0;
378;-32,9317;-11,08314;-26,52351;-37,3718;1,23481;1,642878;1,512302;3,793151;0;0;
395;-36,21457;-6,605173;-25,02;-41,48292;1,3013;1,506308;1,518336;3,780421;0;0;
410;-35,25554;-9,881438;-27,15802;-42,38407;1,343094;1,307445;1,488928;3,662224;0;0;
425;-35,25554;-9,881438;-27,15802;-42,38407;1,382045;1,361728;1,453113;3,557449;0;0;
440;-32,69141;-5,511894;-24,13035;-39,25859;1,514971;1,495444;1,315603;2,920339;0;0;
453;-35,45266;-9,572312;-25,05796;-40,51136;1,49757;1,499483;1,348423;2,570103;0;0;
469;-34,89915;-8,859557;-27,46219;-37,63363;1,337674;1,487161;1,414468;2,603618;0;0;
481;-34,89915;-8,859557;-27,46219;-37,63363;1,109174;1,609021;1,468587;2,751307;0;0;
494;-32,29575;-11,21408;-24,5813;-42,57067;1,022108;1,722143;1,484486;2,862445;0;0;
507;-32,29575;-11,21408;-24,5813;-42,57067;1,011376;1,847542;1,517726;2,805347;0;0;
520;-32,55257;-5,684487;-26,46996;-39,12063;0,887802;1,648091;1,445472;2,75276;0;0;
534;-33,1627;-9,518758;-24,10872;-41,91118;1,026379;1,59057;1,348466;2,955516;0;0;
548;-36,71234;-10,33938;-25,49104;-35,47628;1,10412;1,604442;1,379786;2,982901;0;0;
561;-36,71234;-10,33938;-25,49104;-35,47628;1,151896;1,645334;1,3844;2,905438;0;0;
574;-33,72071;-3,978533;-23,89246;-38,08387;1,153519;1,487288;1,307809;3,071422;0;0;
588;-33,72071;-3,978533;-23,89246;-38,08387;1,1073;1,394796;1,284139;3,207029;0;0;
603;-33,84037;-6,7078;-21,81536;-46,94944;1,170998;1,427869;1,520314;3,353408;0;0;
616;-32,02044;-4,353104;-26,6905;-46,478;1,167521;1,579594;1,48673;3,32248;0;0;
629;-32,02044;-4,353104;-26,6905;-46,478;1,175048;1,592871;1,46866;3,401971;0;0;
642;-32,02044;-4,353104;-26,6905;-46,478;1,17961;1,635087;1,552847;3,292366;0;0;
655;-33,94985;-6,081861;-24,97343;-37,17816;1,155931;1,687208;1,572629;2,910824;0;0;
669;-34,13434;-8,839159;-26,22369;-37,55543;1,103859;1,720292;1,473645;2,822768;0;0;
682;-34,13434;-8,839159;-26,22369;-37,55543;1,093122;1,67694;1,402554;2,640662;0;0;
697;-31,92679;-4,416073;-24,48936;-38,39446;1,112214;1,81588;1,253584;2,347965;0;0;
711;-32,94151;-11,69958;-25,8474;-40,99268;1,164684;1,956943;1,174096;2,06457;0;0;
727;-32,94151;-11,69958;-25,8474;-40,99268;1,21017;2,087717;1,072368;1,858613;0;0;
743;-31,935;-5,712353;-23,02462;-44,30278;1,301602;2,150968;1,170687;1,880139;0;0;
759;-32,91372;-7,839192;-25,81393;-47,70448;1,286359;2,128976;1,190002;2,008292;0;0;
774;-35,6095;-6,938057;-26,53538;-40,76007;1,322336;2,189626;1,290781;2,117616;0;0;
790;-35,24511;-7,501076;-24,38564;-38,15742;1,253526;1,931288;1,420176;2,382723;0;0;
804;-35,24511;-7,501076;-24,38564;-38,15742;1,180203;1,756791;1,520301;2,547177;0;0;
819;-35,43319;-5,190199;-26,46281;-37,67886;1,193711;1,571923;1,546444;2,462504;0;0;
834;-35,33414;-9,366571;-25,30491;-38,55429;1,200497;1,564927;1,506797;2,68214;0;0;
847;-35,33414;-9,366571;-25,30491;-38,55429;1,228152;1,573758;1,462899;2,453881;0;0;
863;-33,29554;-8,500233;-25,34308;-40,11306;1,237626;1,470479;1,281195;2,327152;0;0;
876;-33,71019;-8,941607;-24,77847;-35,427;1,203674;1,513041;1,162513;2,561548;0;0;
892;-34,2788;-5,709094;-26,28701;-32,89115;1,103204;1,644331;1,198777;3,756093;0;0;
908;-31,57057;-8,647386;-22,31751;-41,81125;1,169075;1,567957;1,255989;3,806775;0;0;
923;-31,57057;-8,647386;-22,31751;-41,81125;1,2342;1,474576;1,303346;3,590823;0;0;
940;-33,64348;-5,170806;-25,00034;-40,57337;1,292265;1,484796;1,312907;3,397889;0;0;
955;-33,64348;-5,170806;-25,00034;-40,57337;1,212687;1,473287;1,336842;3,25835;0;0;
968;-34,02447;-4,030678;-25,6724;-39,28271;1,341912;1,624298;1,536605;1,814156;0;0;
981;-34,02447;-4,030678;-25,6724;-39,28271;1,398038;1,717334;1,656901;1,373594;0;0;
994;-36,24003;-6,316175;-24,19603;-37,35723;1,307839;1,762371;1,539673;1,259393;0;0;
1007;-31,81956;-8,585407;-25,2189;-38,65447;1,343025;2,040477;1,594825;1,23744;0;0;
1022;-31,81956;-8,585407;-25,2189;-38,65447;1,396301;2,223822;1,641742;1,217467;0;0;
1037;-33,53041;-4,733752;-22,71737;-38,40899;1,409183;2,209572;1,382805;1,239859;0;0;
1053;-33,28154;-7,955896;-27,17606;-39,81812;1,51301;2,120562;1,164886;1,228791;0;0;
1066;-33,28154;-7,955896;-27,17606;-39,81812;1,587515;2,154785;1,1178;1,255098;0;0;
1079;-33,76739;-8,873691;-27,52932;-40,25046;1,64371;1,946589;1,22248;1,219471;0;0;
1094;-35,9136;-8,400356;-23,72753;-39,00059;1,546041;1,973709;1,19804;1,119004;0;0;
1106;-35,9136;-8,400356;-23,72753;-39,00059;1,429451;2,21087;1,251113;1,061068;0;0;
1120;-35,01735;-6,631733;-25,57153;-36,7524;1,379412;2,021413;1,267218;1,133465;0;0;
1133;-32,63558;-6,236802;-24,01635;-37,2517;1,23626;2,090347;1,373112;1,20316;0;0;
1150;-33,65493;-4,03771;-25,96996;-40,32796;1,149521;2,235689;1,262954;1,161174;0;0;
1164;-33,65493;-4,03771;-25,96996;-40,32796;1,109204;2,362101;1,151993;1,144599;0;0;
1182;-33,29087;-4,971453;-25,35725;-39,97696;1,187062;2,353351;1,194705;1,302105;0;0;
1197;-35,24195;-7,748167;-25,30797;-41,7737;1,138937;2,22543;1,254117;1,282633;0;0;
1211;-33,61325;-8,927361;-26,83519;-41,35489;1,097571;2,219215;1,189265;1,166822;0;0;
1227;-33,61325;-8,927361;-26,83519;-41,35489;1,059574;2,153565;1,077536;1,148741;0;0;
1239;-34,04356;-4,976228;-27,71605;-40,01268;1,013506;2,03138;1,221673;1,191707;0;0;
1253;-31,07426;-6,430325;-24,51018;-37,80188;1,1648;1,760111;1,235772;1,223541;0;0;
1266;-31,07426;-6,430325;-24,51018;-37,80188;1,283446;1,42069;1,239427;1,182118;0;0;
1280;-35,71653;-6,321761;-24,88658;-40,85412;1,309418;1,451657;1,230379;1,171448;0;0;
1296;-34,88681;-10,33965;-23,23259;-39,61653;1,319021;1,574038;1,286025;1,182078;0;0;
1310;-32,27477;-7,726755;-26,50188;-40,2552;1,42674;1,656281;1,275792;1,186966;0;0;
1326;-32,27477;-7,726755;-26,50188;-40,2552;1,441216;1,842017;1,207554;1,194075;0;0;
1341;-34,27465;-4,631332;-27,17591;-39,50756;1,23843;2,080354;1,190802;1,116988;0;0;
1355;-35,79816;-4,577212;-25,1158;-40,37556;1,088984;2,373008;1,228506;1,086568;0;0;
1367;-35,79816;-4,577212;-25,1158;-40,37556;1,118951;2,450916;1,243653;1,017255;0;0;
1379;-35,62839;-8,791242;-25,04024;-44,38626;1,032819;2,383437;1,332318;1,233532;0;0;
1394;-31,57114;-10,44053;-24,02312;-42,84517;1,091597;2,419857;1,463718;1,677544;0;0;
1408;-34,90167;-3,002671;-24,60284;-39,14849;1,170938;2,40488;1,444088;2,11518;0;0;
1421;-34,90167;-3,002671;-24,60284;-39,14849;1,302913;2,367132;1,290753;2,530845;0;0;
1436;-34,28041;-6,135269;-24,92058;-45,93962;1,453306;2,172436;1,285784;2,921044;0;0;
1449;-36,60353;-9,846532;-23,49365;-40,19133;1,48563;2,028685;1,269493;2,968153;0;0;
1462;-36,60353;-9,846532;-23,49365;-40,19133;1,42;1,788801;1,070256;2,723958;0;0;
1478;-33,88965;-7,398031;-22,80754;-41,32491;1,375319;1,720956;1,090891;2,234066;0;0;
1493;-34,90005;-2,687336;-25,53873;-41,40079;1,338737;1,73202;1,176332;2,025663;0;0;
1505;-34,90005;-2,687336;-25,53873;-41,40079;1,312915;1,836812;1,15963;2,080543;0;0;
1519;-34,25922;-10,70984;-21,44166;-35,47211;1,220713;2,165965;1,25301;1,871663;0;0;
1535;-35,92019;-7,638282;-23,14746;-40,44641;1,250783;2,10252;1,236035;1,841748;0;0;
1551;-33,73401;-7,441182;-25,93427;-38,63906;1,152875;2,315565;1,384019;1,967273;0;0;
1566;-33,73401;-7,441182;-25,93427;-38,63906;1,077094;2,610635;1,38583;1,877964;0;0;
1581;-31,88513;-9,257542;-26,47375;-36,45499;1,007331;2,462305;1,434982;1,7828;0;0;
1596;-33,39168;-9,138833;-27,02464;-40,27837;1,114815;1,934018;1,427016;1,85357;0;0;
1611;-35,99785;-6,62158;-24,67749;-37,68598;1,063749;1,903681;1,369098;1,908985;0;0;
1625;-35,99785;-6,62158;-24,67749;-37,68598;0,9872405;1,836872;1,345612;2,209478;0;0;
1640;-33,23346;-11,08371;-27,0081;-41,97961;1,056255;1,639084;1,323965;2,167999;0;0;
1653;-33,52216;-7,384663;-23,89565;-39,75085;1,14465;1,595952;1,483435;2,063118;0;0;
1667;-33,52216;-7,384663;-23,89565;-39,75085;1,187092;1,689847;1,779965;1,866454;0;0;
1679;-31,26975;-7,775645;-24,49539;-40,08944;1,221787;1,776932;1,84159;1,570827;0;0;
1694;-33,88886;-8,152575;-21,21482;-39,64454;1,203714;1,819067;1,850585;1,303888;0;0;
1706;-33,88886;-8,152575;-21,21482;-39,64454;1,142745;1,846669;1,800965;1,285469;0;0;
1718;-34,50514;-4,343729;-28,43792;-40,07402;1,139242;1,719221;1,847046;1,27377;0;0;
1735;-33,05919;-9,173091;-22,43677;-39,2822;1,122778;1,670185;1,902682;1,309478;0;0;
1748;-34,43667;-3,194436;-24,64376;-41,36134;1,075789;1,620893;1,632808;1,268907;0;0;
1761;-34,43667;-3,194436;-24,64376;-41,36134;1,17025;1,469148;1,596988;1,254763;0;0;
1775;-32,90141;-4,77829;-26,48087;-39,31574;1,233627;1,301961;1,734721;1,253094;0;0;
1790;-34,07608;-7,830839;-24,86186;-38,65999;1,304009;1,295315;1,761821;1,244364;0;0;
1803;-34,07608;-7,830839;-24,86186;-38,65999;1,310762;1,408015;1,598523;1,319942;0;0;
1816;-34,62287;-8,786443;-24,70837;-41,23342;1,258937;1,496666;1,355217;1,378924;0;0;
1830;-34,71161;-6,048213;-20,92575;-39,25575;1,169496;1,846272;1,398437;1,382868;0;0;
1845;-34,71161;-6,048213;-20,92575;-39,25575;1,147624;2,201958;1,427523;1,302299;0;0;
1859;-35,24892;-8,376602;-23,33263;-41,09697;1,079158;2,224129;1,327737;1,226954;0;0;
1873;-33,51848;-6,078451;-23,17151;-39,89647;1,163127;2,147242;1,283746;1,090496;0;0;
1888;-33,51848;-6,078451;-23,17151;-39,89647;1,270439;2,054837;1,269429;1,039569;0;0;
1900;-35,39017;-7,244925;-24,49965;-41,20664;1,36035;1,989564;1,227172;1,030679;0;0;
1913;-35,0104;-6,379236;-21,63885;-41,97308;1,485539;1,736488;1,249634;1,043804;0;0;
1928;-33,22338;-8,028577;-26,47031;-43,67766;1,451311;1,421466;1,281136;1,050228;0;0;
1941;-33,22338;-8,028577;-26,47031;-43,67766;1,363895;1,340542;1,362257;1,121369;0;0;
1954;-36,23306;-8,266262;-23,78449;-42,77132;1,280179;1,567963;1,53255;1,167831;0;0;
1969;-32,06077;-9,721951;-21,94468;-41,40504;1,319422;1,596136;1,476293;1,284184;0;0;
1982;-32,06077;-9,721951;-21,94468;-41,40504;1,39444;1,542894;1,517518;1,317906;0;0;
1998;-35,08273;-9,209985;-23,96561;-41,18919;1,358927;1,544484;1,411574;1,408196;0;0;
2012;-37,95795;-6,765493;-24,73139;-36,95465;1,468802;1,704236;1,358248;1,468422;0;0;
2026;-37,95795;-6,765493;-24,73139;-36,95465;1,532595;1,75526;1,296209;1,54493;0;0;
2040;-30,06886;-7,047122;-23,76684;-38,7674;1,558793;1,667216;1,263798;1,56206;0;0;
2053;-35,60592;-7,288921;-25,47358;-40,60717;1,740913;1,705513;1,261754;1,471875;0;0;
2067;-35,60592;-7,288921;-25,47358;-40,60717;1,910107;1,74244;1,184712;1,443238;0;0;
2080;-30,83585;-5,63118;-23,88627;-38,82121;2,087372;1,695513;1,12804;1,368314;0;0;
2095;-34,51688;-10,46729;-21,54184;-42,04384;1,990661;1,716087;1,131321;1,340025;0;0;
2108;-34,51688;-10,46729;-21,54184;-42,04384;1,925591;1,812124;1,09342;1,343763;0;0;
2121;-32,80442;-8,537997;-25,50985;-45,29526;1,706125;1,671125;1,123499;1,45446;0;0;
2136;-36,09789;-7,198738;-26,20766;-41,96872;1,480801;1,624125;1,150278;1,597494;0;0;
2149;-34,8712;-7,28018;-23,70692;-37,90915;1,367131;1,749534;1,232076;1,728387;0;0;
2163;-34,8712;-7,28018;-23,70692;-37,90915;1,199965;1,681332;1,300173;1,727791;0;0;
2177;-38,92281;-8,486235;-22,045;-39,66462;1,364338;1,570672;1,35068;1,733564;0;0;
2190;-33,79793;-8,519309;-27,82715;-41,10164;1,43411;1,556756;1,401462;1,542074;0;0;
2204;-33,79793;-8,519309;-27,82715;-41,10164;1,391505;1,56049;1,380724;1,363149;0;0;
2217;-33,52341;-8,867417;-26,04489;-40,99195;1,371819;1,569553;1,374061;1,277282;0;0;
2232;-37,21123;-7,645578;-23,58712;-40,26431;1,360705;1,632689;1,409615;1,212057;0;0;
2245;-37,21123;-7,645578;-23,58712;-40,26431;1,383183;1,739897;1,437737;1,165125;0;0;
2261;-35,9342;-6,060495;-20,46025;-40,51216;1,204334;1,593879;1,35938;1,227068;0;0;
2274;-34,5294;-10,59869;-22,75577;-40,25962;1,286512;1,579504;1,340382;1,327172;0;0;
2294;-32,69933;-9,382648;-24,21111;-38,05686;1,284966;1,611565;1,508736;1,43497;0;0;
2309;-34,10151;-7,593346;-24,50121;-39,63132;1,257125;1,62791;1,433882;1,40973;0;0;
2326;-34,10151;-7,593346;-24,50121;-39,63132;1,273037;1,570231;1,34919;1,401616;0;0;
2340;-34,87006;-8,394552;-24,73325;-37,92468;1,32797;1,543605;1,260618;1,383326;0;0;
2354;-33,52699;-8,38172;-28,38067;-36,65802;1,37397;1,511705;1,278918;1,526342;0;0;
2367;-33,52699;-8,38172;-28,38067;-36,65802;1,297042;1,522453;1,230465;1,672781;0;0;
2381;-35,72089;-4,228566;-25,86254;-38,91565;1,358454;1,491646;1,178235;1,519892;0;0;
2395;-32,93708;-9,266351;-27,0766;-39,64003;1,33544;1,423638;1,135739;1,55542;0;0;
2408;-33,21979;-7,018864;-22,27175;-38,22712;1,237099;1,299403;1,22763;1,521759;0;0;
2422;-33,21979;-7,018864;-22,27175;-38,22712;1,171912;1,336494;1,306279;1,451758;0;0;
2436;-35,617;-10,7431;-24,31605;-38,10256;1,216203;1,519391;1,318864;1,269351;0;0;
2449;-35,617;-10,7431;-24,31605;-38,10256;1,211507;1,724877;1,357633;1,175555;0;0;
2463;-35,617;-10,7431;-24,31605;-38,10256;1,341419;1,894635;1,436062;1,139245;0;0;
2477;-35,05482;-6,266499;-26,92767;-42,10321;1,420124;1,945572;1,400682;1,122354;0;0;
2492;-35,24706;-6,806576;-25,00875;-41,48605;1,539634;1,88009;1,271656;1,104112;0;0;
2505;-35,24706;-6,806576;-25,00875;-41,48605;1,594698;1,717482;1,140264;1,081257;0;0;
2517;-33,91359;-5,955269;-26,83182;-38,47786;1,535164;1,456638;1,180381;1,145255;0;0;
2533;-35,19152;-8,395899;-23,17402;-36,38199;1,390665;1,335606;1,110982;1,202985;0;0;
2547;-35,19152;-8,395899;-23,17402;-36,38199;1,288226;1,306305;1,094256;1,252045;0;0;
2560;-34,98203;-3,495097;-29,90117;-38,91484;1,16815;1,574717;1,614801;1,432143;0;0;
2574;-33,78089;-7,784436;-26,17419;-39,63575;1,078164;1,736402;2,008927;1,540174;0;0;
2587;-33,78089;-7,784436;-26,17419;-39,63575;0,9983113;1,916318;2,409087;1,597902;0;0;
2601;-32,99219;-7,631231;-25,61713;-39,82042;1,076314;1,931797;2,335577;1,471264;0;0;
2614;-33,89069;-5,779893;-22,18517;-39,48683;1,161924;2,024335;2,421999;1,464722;0;0;
2629;-33,26951;-8,740609;-23,0148;-40,68795;1,167089;1,856667;2,132074;1,32371;0;0;
2646;-33,26951;-8,740609;-23,0148;-40,68795;1,206881;1,73742;1,675635;1,161552;0;0;
2663;-34,88776;-5,133441;-24,85583;-40,44496;1,21747;1,807921;1,535455;1,085313;0;0;
2679;-34,15762;-11,67543;-24,49503;-41,3086;1,161398;2,116041;1,504197;1,065916;0;0;
2694;-33,35067;-3,991278;-24,97515;-40,2576;1,103107;1,985274;1,442736;1,0061;0;0;
2711;-33,15736;-10,16441;-25,12881;-40,1317;1,108541;2,063947;1,492899;1,0908;0;0;
2726;-33,15736;-10,16441;-25,12881;-40,1317;1,076889;2,237956;1,50208;1,244969;0;0;
2742;-34,88784;-10,73983;-23,34191;-39,56776;1,098233;2,249766;1,35754;1,356061;0;0;
2757;-31,57632;-7,276282;-23,35201;-40,74165;1,053024;1,984041;1,290264;1,444876;0;0;
2771;-35,07416;-8,039574;-25,00798;-41,23193;1,174011;1,711594;1,420071;1,458157;0;0;
2786;-35,07416;-8,039574;-25,00798;-41,23193;1,31254;1,454681;1,491323;1,330382;0;0;
2800;-34,18167;-5,94221;-28,78783;-39,92751;1,246955;1,344849;1,530962;1,558004;0;0;
2816;-37,40997;-6,886821;-25,59689;-47,48455;1,452499;1,307357;1,720945;1,555559;0;0;
2830;-34,87054;-7,122356;-25,98508;-40,51166;1,531217;1,370133;1,708805;1,583262;0;0;
2844;-34,87054;-7,122356;-25,98508;-40,51166;1,401055;1,475343;1,670259;1,584843;0;0;
2858;-33,89147;-2,53838;-27,65404;-41,9359;1,310067;1,646124;1,64021;1,836737;0;0;
2872;-32,9115;-8,244625;-23,24061;-41,62132;1,376473;1,768893;1,629602;1,943834;0;0;
2885;-32,9115;-8,244625;-23,24061;-41,62132;1,328025;1,908539;1,601583;1,836148;0;0;
2898;-33,4346;-5,709083;-23,9659;-40,97962;1,293426;1,91098;1,553061;1,683945;0;0;
2910;-33,96498;-6,43695;-22,1844;-39,2711;1,236957;1,880717;1,624993;1,681637;0;0;
2924;-33,96498;-6,43695;-22,1844;-39,2711;1,185933;1,881532;1,69932;1,69369;0;0;
2939;-32,56966;-10,58846;-24,71788;-39,81263;1,188992;1,9357;1,716709;1,564504;0;0;
2951;-32,16386;-6,931455;-21,8265;-37,52229;1,232864;1,814675;1,655642;1,378186;0;0;
2965;-32,16386;-6,931455;-21,8265;-37,52229;1,18807;1,796354;1,469744;1,242907;0;0;
2978;-32,06801;-6,071205;-24,32106;-38,28285;1,360822;1,81093;1,468521;1,248712;0;0;
2992;-31,56517;-9,037076;-24,701;-39,87967;1,377582;1,746449;1,357666;1,154106;0;0;
3005;-31,56517;-9,037076;-24,701;-39,87967;1,413191;1,495924;1,195052;1,030405;0;0;
3019;-32,72826;-12,56195;-21,9833;-40,55185;1,381575;1,532969;1,402716;0,9791882;0;0;
3033;-34,92711;-6,690095;-25,72457;-39,64774;1,279438;1,569675;1,34278;0,9507558;0;0;
3047;-34,92711;-6,690095;-25,72457;-39,64774;1,075274;1,541454;1,300328;0,9284554;0;0;
3062;-35,59478;-4,175973;-26,82188;-41,62197;1,003665;1,659712;1,305008;0,9361051;0;0;
3076;-32,58032;-11,56284;-21,7884;-39,62162;1,062756;1,886345;1,364532;0,9689518;0;0;
3089;-33,76669;-10,37592;-25,24135;-37,65815;1,009596;1,87502;1,373393;0,9372587;0;0;
3102;-33,76669;-10,37592;-25,24135;-37,65815;0,9922742;1,769322;1,328015;0,9500273;0;0;
3114;-34,53651;-3,377763;-24,5173;-38,74271;1,05915;1,743649;1,376737;0,9809662;0;0;
3128;-34,16793;-7,412421;-23,7711;-38,87373;1,048946;1,798477;1,375189;1,0422;0;0;
3141;-34,16793;-7,412421;-23,7711;-38,87373;0,8977872;1,688123;1,310592;1,120198;0;0;
3156;-33,97335;-8,109069;-26,22675;-40,71996;0,9717941;1,486725;1,176174;1,278797;0;0;
3170;-35,00399;-8,527018;-22,24753;-40,25278;1,148453;1,4746;1,064991;1,34981;0;0;
3182;-35,00399;-8,527018;-22,24753;-40,25278;1,289242;1,517778;1,010782;1,393816;0;0;
3197;-32,2068;-6,071745;-21,89929;-39,26793;1,305322;1,407257;1,145852;1,280559;0;0;
3210;-35,74291;-9,86814;-24,87151;-39,27464;1,427632;1,356508;1,210453;1,29212;0;0;
3225;-35,74291;-9,86814;-24,87151;-39,27464;1,526447;1,28324;1,28598;1,294897;0;0;
3238;-34,15277;-3,367566;-23,52722;-39,27103;1,41274;1,308272;1,302824;1,131206;0;0;
3252;-32,2011;-9,304796;-26,8317;-40,31269;1,283413;1,363916;1,307357;1,011143;0;0;
3266;-32,2011;-9,304796;-26,8317;-40,31269;1,148568;1,536754;1,234494;0,9647586;0;0;
3279;-35,7305;-4,221935;-27,00984;-43,07279;1,1459;1,645794;1,095318;1,203314;0;0;
3293;-33,87273;-6,484828;-23,87443;-39,95227;1,214121;1,768812;1,019894;1,188384;0;0;
3306;-33,87273;-6,484828;-23,87443;-39,95227;1,388979;1,792079;1,050243;1,189712;0;0;
3319;-36,23536;-8,030767;-24,47802;-41,27412;1,512379;1,621056;1,206686;1,37162;0;0;
3334;-32,73898;-7,893627;-22,55382;-36,81906;1,578168;1,648164;1,291576;1,528093;0;0;
3347;-32,73898;-7,893627;-22,55382;-36,81906;1,576727;1,668372;1,340076;1,622479;0;0;
3361;-32,22271;-4,338099;-26,56213;-37,64048;1,679987;1,797956;1,376611;2,102803;0;0;
3373;-34,37063;-5,678223;-24,63338;-40,94782;1,598893;1,730888;1,477164;2,275121;0;0;
3386;-34,37063;-5,678223;-24,63338;-40,94782;1,55981;1,682918;1,520548;2,367792;0;0;
3402;-33,5281;-5,382607;-27,01742;-40,87322;1,418881;1,881862;1,414853;2,349535;0;0;
3420;-32,24086;-8,745581;-22,3029;-36,76137;1,413872;1,880689;1,48131;2,339363;0;0;
3433;-35,13746;-7,052303;-23,17877;-40,26275;1,486215;1,839667;1,464529;2,14857;0;0;
3449;-31,58169;-8,749698;-28,30699;-40,51895;1,403432;1,897494;1,56488;1,739843;0;0;
3462;-31,58169;-8,749698;-28,30699;-40,51895;1,401963;1,97813;1,632849;1,600073;0;0;
3476;-35,24926;-6,574899;-26,44427;-40,87006;1,288044;1,951943;1,969172;1,422176;0;0;
3490;-35,43684;-8,948926;-27,38477;-36,38914;1,294588;1,660102;1,829129;1,580952;0;0;
3502;-35,43684;-8,948926;-27,38477;-36,38914;1,180652;1,615319;1,57906;1,708052;0;0;
3515;-33,03178;-7,663393;-24,86886;-41,59861;1,318279;1,535528;1,444134;1,853982;0;0;
3529;-36,27147;-8,100554;-27,17958;-42,69105;1,549313;1,408691;1,349266;1,825595;0;0;
3545;-36,27147;-8,100554;-27,17958;-42,69105;1,836769;1,296597;1,155702;1,844401;0;0;
3559;-32,74414;-5,331127;-21,31432;-40,24678;1,913646;1,343267;0,9855721;1,738907;0;0;
3573;-36,85144;-5,880261;-25,22607;-40,85623;1,905256;1,479308;1,077799;1,713916;0;0;
3586;-36,85144;-5,880261;-25,22607;-40,85623;1,816724;1,622384;1,143803;1,577587;0;0;
3601;-36,45075;-6,036666;-26,03919;-40,73418;1,640371;1,872325;1,226052;1,547122;0;0;
3614;-32,29604;-6,054388;-24,01766;-39,12047;1,537654;1,865073;1,152339;1,503717;0;0;
3629;-34,88138;-4,236821;-21,55518;-41,73618;1,418489;1,795586;1,339567;1,430104;0;0;
3641;-34,88138;-4,236821;-21,55518;-41,73618;1,542051;1,698819;1,50896;1,329699;0;0;
3655;-30,90076;-5,334808;-28,19435;-41,22527;1,639477;1,722881;1,534684;1,226591;0;0;
3669;-35,73042;-12,11008;-24,63721;-42,83205;1,621302;1,946797;1,509521;1,295739;0;0;
3682;-35,73042;-12,11008;-24,63721;-42,83205;1,569613;1,965338;1,508256;1,385738;0;0;
3694;-34,32942;-6,548098;-24,3142;-40,07934;1,543989;2,120912;1,42098;1,474784;0;0;
3707;-34,32942;-6,548098;-24,3142;-40,07934;1,681905;2,128153;1,153513;1,568224;0;0;
3723;-35,53275;-9,374243;-24,43309;-38,29753;1,871522;1,980523;0,9740072;1,673515;0;0;
3736;-34,25717;-4,858552;-26,28671;-37,46336;1,755966;2,053309;0,9843614;1,632785;0;0;
3748;-35,6091;-7,845483;-21,27443;-41,5868;1,632815;1,894412;1,079302;1,653522;0;0;
3762;-35,6091;-7,845483;-21,27443;-41,5868;1,440324;1,820385;1,195252;1,596441;0;0;
3776;-31,081;-5,059443;-24,21591;-37,43725;1,300544;1,991826;1,467765;1,617786;0;0;
3789;-35,23957;-8,121825;-24,15165;-41,48043;1,142636;2,187577;1,603311;1,705727;0;0;
3802;-35,23957;-8,121825;-24,15165;-41,48043;1,076758;2,21999;1,674176;1,748343;0;0;
3816;-35,60006;-5,918335;-24,22941;-40,86323;1,21467;2,211289;1,651448;1,741945;0;0;
3830;-33,56506;-6,984189;-24,35625;-43,68626;1,338932;2,246047;1,53931;1,596313;0;0;
3844;-33,56506;-6,984189;-24,35625;-43,68626;1,477658;2,146914;1,265892;1,473831;0;0;
3859;-33,96224;-5,805905;-22,65759;-38,99224;1,357822;2,016274;1,185408;1,468486;0;0;
3873;-32,91909;-4,569263;-24,38171;-38,88279;1,385207;1,976711;1,197839;1,367903;0;0;
3886;-32,91909;-4,569263;-24,38171;-38,88279;1,313755;1,903708;1,251486;1,272177;0;0;
3900;-31,76867;-3,355149;-25,71989;-38,56153;1,373883;1,827511;1,255373;1,236537;0;0;
3912;-32,90092;-7,601154;-24,14318;-41,09979;1,33107;1,741517;1,315653;1,350534;0;0;
3927;-32,90092;-7,601154;-24,14318;-41,09979;1,311515;1,752083;1,365241;1,379783;0;0;
3940;-33,99274;-8,257129;-25,48713;-36,94984;1,311646;1,718837;1,281762;1,59061;0;0;
3954;-36,97137;-5,960764;-24,98287;-43,80523;1,374008;1,680257;1,252681;1,708954;0;0;
3968;-32,19271;-7,666928;-26,08186;-37,33289;1,321278;1,734578;1,206546;1,883406;0;0;
3980;-32,19271;-7,666928;-26,08186;-37,33289;1,317097;1,744942;1,138697;2,04129;0;0;
3994;-34,88664;-10,58374;-21,69579;-39,36853;1,31101;1,903262;1,03119;1,881472;0;0;
4008;-29,38273;-9,486971;-25,23222;-43,04539;1,36481;2,016092;1,030378;1,754454;0;0;
4021;-29,38273;-9,486971;-25,23222;-43,04539;1,308723;2,166688;0,9977125;1,632714;0;0;
4036;-33,38751;-4,978033;-25,1262;-41,23647;1,18002;2,295536;0,9605895;1,567883;0;0;
4051;-33,71018;-6,664878;-24,1302;-40,83786;1,169824;2,256459;0,9434902;1,641473;0;0;
4063;-33,71018;-6,664878;-24,1302;-40,83786;1,15856;2,1276;0,9595855;1,750318;0;0;
4077;-33,2177;-8,854741;-22,64118;-42,2009;1,222318;2,127443;1,025173;1,820985;0;0;
4091;-31,84065;-7,35422;-26,34935;-43,07007;1,254274;1,903911;1,087793;2,016569;0;0;
4103;-31,84065;-7,35422;-26,34935;-43,07007;1,293459;1,635731;1,20339;2,191787;0;0;
4116;-32,93401;-7,882926;-26,94343;-39,88687;1,451009;1,552217;1,284126;2,349705;0;0;
4131;-36,23702;-8,571235;-23,53112;-41,95343;1,454393;1,529154;1,276123;2,028975;0;0;
4144;-36,23702;-8,571235;-23,53112;-41,95343;1,481643;1,342044;1,28197;1,762683;0;0;
4157;-36,21532;-6,05215;-23,53682;-37,11184;1,400373;1,423244;1,20377;1,679792;0;0;
4170;-34,89931;-10,78757;-22,79569;-45,02244;1,315638;1,468979;1,203333;1,570117;0;0;
4183;-34,89931;-10,78757;-22,79569;-45,02244;1,266511;1,532776;1,213559;1,222339;0;0;
4199;-34,38692;-0,9533543;-26,66261;-40,63107;1,466463;1,840309;1,182508;1,553469;0;0;
4211;-32,71969;-8,615954;-23,51634;-42,54139;1,511635;2,012774;1,242617;1,928238;0;0;
4224;-32,71969;-8,615954;-23,51634;-42,54139;1,539752;2,06419;1,324076;2,269989;0;0;
4237;-34,69498;-7,664341;-24,96999;-39,28854;1,632737;2,181338;1,32895;2,38735;0;0;
4250;-35,23684;-10,17108;-22,17582;-39,52208;1,667706;2,289115;1,233538;2,340426;0;0;
4264;-35,23684;-10,17108;-22,17582;-39,52208;1,465573;2,351002;1,101568;2,285446;0;0;
4279;-35,75665;-3,992482;-24,51404;-42,06751;1,329222;1,945888;1,103069;2,205442;0;0;
4294;-33,60122;-6,776391;-24,49839;-38,27628;1,401873;1,825769;1,20096;1,998722;0;0;
4307;-33,60122;-6,776391;-24,49839;-38,27628;1,462707;1,822192;1,248693;1,798857;0;0;
4322;-33,56728;-10,09601;-22,31142;-37,89972;1,558412;1,640221;1,342246;1,703289;0;0;
4337;-33,55087;-9,110921;-24,8548;-43,77748;1,886659;1,525201;1,432617;1,948051;0;0;
4351;-38,11713;-4,707339;-21,56687;-36,52602;1,833474;1,645322;1,438683;2,110588;0;0;
4366;-38,11713;-4,707339;-21,56687;-36,52602;1,707481;1,692296;1,470739;2,001432;0;0;
4379;-38,73988;-9,445509;-24,50505;-45,46778;1,741389;1,643125;1,395376;2,340978;0;0;
4392;-33,90501;-4,320669;-24,68658;-47,79455;1,586955;1,653569;1,318909;2,959263;0;0;
4406;-33,90501;-4,320669;-24,68658;-47,79455;1,390149;1,725451;1,181448;3,524683;0;0;
4420;-34,60722;-7,008652;-23,4038;-11,99101;1,151525;1,861173;1,228044;4,757258;0;0;
4434;-34,25571;-6,87615;-29,54466;-28,76969;1,381874;1,721063;1,426496;8,151881;0;0;
4446;-34,25571;-6,87615;-29,54466;-28,76969;1,475325;1,638999;1,573234;11,58022;0;0;
4460;-32,54559;-6,565102;-21,1958;-38,48142;1,611231;1,634043;1,768161;11,82527;0;0;
4474;-34,26604;-7,441226;-22,91097;-40,33376;1,647476;1,633629;1,848157;11,16822;0;0;
4489;-34,35341;-4,55799;-23,51659;-40,74006;1,772172;1,644031;1,847777;10,4098;0;0;
4502;-34,35341;-4,55799;-23,51659;-40,74006;1,78666;1,756045;1,662189;7,813567;0;0;
4520;-33,50885;-8,360224;-21,86494;-43,16623;1,713007;1,718837;1,578384;4,562685;0;0;
4536;-36,18822;-6,323963;-25,95321;-40,71504;1,439057;1,632415;1,468243;2,710829;0;0;
4549;-35,3814;-6,941529;-24,62968;-30,29378;1,578642;1,728359;1,245127;2,781266;0;0;
4563;-35,3814;-6,941529;-24,62968;-30,29378;1,696032;1,625981;1,217583;3,019876;0;0;
4576;-33,11368;-7,362627;-23,7082;-37,72063;1,641778;1,479168;1,284696;3,250299;0;0;
4589;-36,22691;-10,59336;-26,70099;-48,6986;1,522038;1,479679;1,41753;3,535221;0;0;
4603;-36,22691;-10,59336;-26,70099;-48,6986;1,436671;1,502673;1,421122;3,778005;0;0;
4615;-29,1324;-5,677101;-23,784;-35,79399;1,987542;1,585075;1,354031;3,289743;0;0;
4628;-31,32702;-8,279805;-24,94609;-52,13554;2,120833;1,941963;1,276825;3,555422;0;0;
4641;-31,32702;-8,279805;-24,94609;-52,13554;2,222735;2,27796;1,224343;3,960307;0;0;
4656;-33,17824;-5,030089;-24,86062;-45,86386;2,306313;2,418766;1,151395;4,023636;0;0;
4670;-35,24686;-7,631073;-23,5049;-36,77;2,485229;2,297237;1,010105;3,980668;0;0;
4684;-35,24686;-7,631073;-23,5049;-36,77;2,487346;2,177219;0,9062415;4,221481;0;0;
4697;-37,04398;-5,503082;-23,40279;-38,04505;1,977091;1,803476;0,8540464;4,380142;0;0;
4710;-32,4236;-10,43494;-23,03442;-34,74249;1,650823;1,429952;1,026496;4,173295;0;0;
4723;-32,4236;-10,43494;-23,03442;-34,74249;1,484689;1,27274;1,175115;3,89376;0;0;
4738;-33,25539;-7,670172;-25,81511;-40,25537;1,402829;1,185705;1,255757;3,46054;0;0;
4751;-32,1916;-12,32224;-27,69257;-36,93264;1,249063;1,338951;1,406763;3,03157;0;0;
4764;-32,1916;-12,32224;-27,69257;-36,93264;1,156569;1,454788;1,55816;2,553052;0;0;
4777;-36,12103;-5,939922;-30,33939;-37,61099;1,154875;1,587854;1,895996;2,410885;0;0;
4792;-34,59125;-9,833322;-26,31329;-49,69586;1,182114;1,568948;1,977708;2,414293;0;0;
4805;-34,59125;-9,833322;-26,31329;-49,69586;1,233112;1,610213;2,190557;2,558024;0;0;
4820;-32,80474;-5,086664;-24,84399;-37,09293;1,338088;1,59102;2,177148;2,700796;0;0;
4833;-33,09917;-9,431078;-21,19396;-37,04602;1,467589;1,446429;2,05972;3,178139;0;0;
4846;-33,09917;-9,431078;-21,19396;-37,04602;1,629244;1,333013;1,796896;3,62636;0;0;
4861;-34,27507;-7,425572;-24,69344;-41,35485;1,535227;1,204251;1,329643;3,720751;0;0;
4873;-31,29896;-8,585822;-20,8031;-35,24298;1,601337;1,393443;1,253899;3,503184;0;0;
4887;-31,29896;-8,585822;-20,8031;-35,24298;1,724032;1,599423;1,335015;3,301522;0;0;
4901;-36,22948;-7,114999;-23,74788;-41,98706;1,544429;1,79492;1,417733;2,981593;0;0;
4914;-29,33855;-6,726988;-22,96512;-45,46378;1,608331;1,804225;1,638221;2,937302;0;0;
4929;-35,60441;-6,425654;-26,28853;-41,55505;1,709091;1,858439;1,553589;3,11318;0;0;
4941;-35,60441;-6,425654;-26,28853;-41,55505;1,797536;1,773946;1,57776;3,442549;0;0;
4954;-35,97771;-8,179858;-27,85117;-37,58165;1,856764;1,664086;1,555812;3,342714;0;0;
4968;-34,22351;-7,534829;-23,74954;-36,81584;1,804803;1,471361;1,432032;3,921321;0;0;
4981;-34,22351;-7,534829;-23,74954;-36,81584;1,788067;1,309074;1,31618;4,557699;0;0;
4995;-32,70621;-10,21812;-29,1589;-45,67746;1,433717;1,315101;1,363202;4,783048;0;0;
5009;-34,12644;-8,836699;-21,13904;-40,07122;1,370346;1,525824;1,6047;4,724951;0;0;
5022;-34,12644;-8,836699;-21,13904;-40,07122;1,353116;1,731676;1,803123;4,842422;0;0;
5036;-27,86138;-14,38711;-45,90158;-39,86384;1,702322;2,495899;3,84175;5,320032;0;0;
5050;0,07234459;-5,903712;-24,44887;-85,63772;4,741054;4,512332;6,268644;8,267792;0;0;
5065;0,07234459;-5,903712;-24,44887;-85,63772;7,782822;6,476395;8,679646;11,36526;0;0;
5080;-74,07674;9,783702;-44,62201;14,98532;19,46269;18,19116;11,24835;16,22724;0;0;
5094;-195,0403;-56,7684;-57,93829;-41,71623;37,23417;27,41621;20,3371;22,76087;1;0;
5107;-195,0403;-56,7684;-57,93829;-41,71623;54,96435;36,51917;28,8214;28,98607;1;0;
5120;-547,7327;-229,0579;-11,72962;-54,52048;97,54387;59,81711;38,67114;37,27407;1;0;
5135;-60,65228;130,8256;-38,77258;-0,6061518;208,8218;74,24276;44,89492;37,08672;1;0;
5148;-60,65228;130,8256;-38,77258;-0,6061518;316,7095;85,10528;50,73993;36,77973;1;0;
5163;-17,10018;9,450293;-12,43473;5,324467;332,9293;88,97864;52,79316;36,56269;0;0;
5178;-178,8034;-28,16959;-48,34651;-16,93092;394,2856;92,97224;50,45387;37,99579;0;0;
5195;296,7341;112,9711;19,92383;-217,5332;436,6272;93,37572;49,8131;43,41285;0;0;
5210;1308,317;105,396;-1,559107;53,17885;500,2027;90,7196;46,80871;44,29945;0;0;
5224;1308,317;105,396;-1,559107;53,17885;508,4948;89,5099;48,77477;50,14445;0;0;
5238;-751,5887;77,92699;-76,71529;1,003005;454,6628;79,27675;58,62878;52,35617;0;0;
5253;641,9973;114,4389;-205,1181;-94,93627;479,8265;84,23519;67,62415;63,89954;0;0;
5270;-42,57698;-27,79636;-118,007;18,50761;439,8756;83,18684;76,31365;60,65524;0;0;
5285;-42,57698;-27,79636;-118,007;18,50761;398,7073;69,46702;78,07118;55,62727;0;0;
5298;682,5452;-25,82572;16,03835;-15,60213;431,1273;64,7412;82,85286;51,69328;0;0;
5315;-61,52536;-23,52636;-14,80748;-16,08327;329,6047;58,57785;74,62881;48,89228;0;0;
5329;-38,88158;-15,09574;-40,10223;-1,091176;290,813;41,70526;63,36604;50,65014;0;0;
5342;-38,88158;-15,09574;-40,10223;-1,091176;233,2022;31,28751;49,88499;47,90334;0;0;
5355;-7,395256;-4,339963;-19,78518;-60,53567;204,5844;24,00924;35,01018;43,8247;0;0;
5371;-40,3833;-10,44799;-24,51397;-35,62178;178,0141;14,35439;18,72459;36,44695;0;0;
5386;-40,3833;-10,44799;-24,51397;-35,62178;27,14712;6,152894;10,77971;34,05574;0;0;
5400;-37,45203;-2,258257;-26,45529;-30,83716;10,14459;4,58078;6,899028;25,69811;0;0;
5415;-31,3641;-7,411796;-25,9891;-36,94576;7,016385;3,230433;4,018789;15,15418;0;0;
5430;-29,2597;-10,27755;-34,6921;-26,37552;5,731691;2,321144;3,212006;8,55291;0;0;
5442;-29,2597;-10,27755;-34,6921;-26,37552;5,471513;1,922222;3,537581;6,936798;0;0;
5455;-40,58331;-9,215553;-22,2935;-38,38784;8,483315;1,860388;3,826503;5,511879;0;0;
5470;-42,31946;-10,20795;-24,64735;-36,56576;16,28189;1,558228;3,671161;5,482517;0;0;
5485;-42,31946;-10,20795;-24,64735;-36,56576;23,94083;1,275185;3,664668;4,937203;0;0;
5501;-44,88972;-8,376966;-19,30101;-40,79085;25,51978;1,443164;2,94559;3,679952;0;0;
5514;-27,19898;-5,356079;-23,48595;-40,33211;27,7288;1,627829;2,461905;2,803778;0;0;
5529;-50,80181;-8,180983;-22,69004;-36,03553;26,54544;1,571659;1,615751;2,728619;0;0;
5542;-50,80181;-8,180983;-22,69004;-36,03553;24,89819;1,59521;1,341868;3,049709;0;0;
5558;-48,42575;-10,12162;-24,24858;-41,81157;17,53976;1,716645;1,270164;3,611961;0;0;
5572;-44,284;-12,05594;-27,22522;-39,97377;12,18275;1,993782;1,32367;4,026784;0;0;
5587;-44,284;-12,05594;-27,22522;-39,97377;11,992;2,123387;1,17388;4,666236;0;0;
5601;-30,69964;-3,852528;-21,08166;-42,27936;9,436912;2,018061;1,346176;4,900977;0;0;
5620;-19,88566;-7,063093;-25,35449;-40,46165;9,27483;2,183208;1,446249;5,073259;0;0;
5633;-40,64284;-6,888215;-29,21806;-75,16938;8,740793;2,207118;1,558405;6,763922;0;0;
5645;-40,64284;-6,888215;-29,21806;-75,16938;7,840594;2,124038;1,726636;8,003598;0;0;
5659;-32,97887;-10,11155;-25,46526;-64,60794;6,121836;1,857964;1,669338;12,33994;0;0;
5674;-31,81304;-4,535203;-23,76504;-33,83909;5,343358;1,800722;1,690132;14,93499;0;0;
5687;-31,81304;-4,535203;-23,76504;-33,83909;5,272829;1,899023;1,50695;17,43615;0;0;
5702;-33,5317;-7,785308;-26,04176;-58,45485;2,84467;2,208442;1,548549;19,56926;0;0;
5715;-34,20927;-9,054058;-24,23137;-48,51455;2,048779;2,153767;1,480068;19,21626;0;0;
5731;-33,12365;-8,400307;-27,18751;-35,40382;1,806284;2,007234;1,375697;16,03316;0;0;
5744;-33,12365;-8,400307;-27,18751;-35,40382;1,711352;1,858134;1,388709;13,06434;0;0;
5757;-33,39391;-5,878005;-24,86884;-38,25532;1,450036;1,660891;1,356501;10,16126;0;0;
5769;-32,73906;-5,227741;-23,31635;-37,94724;1,270706;1,614106;1,310753;8,754512;0;0;
5783;-32,73906;-5,227741;-23,31635;-37,94724;1,211527;1,569827;1,247997;6,123544;0;0;
5799;-35,30764;-6,147373;-24,99329;-37,74965;1,22124;1,720229;1,269065;5,919009;0;0;
5813;-34,94834;-6,572181;-23,50063;-43,30611;1,118961;1,749418;1,286562;5,474392;0;0;
5828;-32,55848;-10,53869;-25,00496;-43,53271;1,014385;1,961863;1,336967;5,036273;0;0;
5840;-32,55848;-10,53869;-25,00496;-43,53271;1,082672;2,153235;1,384783;5,228971;0;0;
5853;-33,28731;-4,452435;-26,18854;-38,91977;1,273374;2,197198;1,492689;5,357813;0;0;
5868;-33,99128;-5,522721;-27,91005;-63,53946;1,253662;2,11629;1,46154;5,908078;0;0;
5882;-33,99128;-5,522721;-27,91005;-63,53946;1,216887;2,289002;1,508877;4,700643;0;0;
5897;-32,89978;-3,366231;-27,94214;-38,65357;1,210772;2,220184;1,489839;4,920865;0;0;
5910;-33,28577;-8,572578;-19,38076;-40,86054;1,273618;2,180032;1,724341;5,060363;0;0;
5924;-33,28577;-8,572578;-19,38076;-40,86054;1,324097;2,074693;1,977535;5,160804;0;0;
5939;-34,26495;-10,07506;-23,156;-36,21353;1,298391;2,180847;2,160183;5,279362;0;0;
5953;-34,27045;-4,5322;-25,00609;-36,2033;1,273795;2,078916;2,248999;5,158561;0;0;
5965;-34,27045;-4,5322;-25,00609;-36,2033;1,223565;2,031751;2,35608;4,460268;0;0;
5978;-34,98761;-6,056429;-25,87926;-18,8828;1,237922;2,065936;2,154592;5,943779;0;0;
5993;-35,1139;-9,223101;-25,23578;-37,80501;1,07893;2,06518;1,925452;5,830973;0;0;
6007;-35,1139;-9,223101;-25,23578;-37,80501;0,8703497;2,136504;1,619591;5,596746;0;0;
6020;-32,55433;-4,89499;-28,88606;-30,03097;0,9675874;1,891368;1,806227;5,025002;0;0;
6034;-36,06229;-8,541512;-25,23998;-37,89943;1,158189;1,975548;2,071693;4,711775;0;0;
6048;-35,62846;-7,344543;-21,00821;-41,84912;1,45555;1,932349;2,033881;3,322028;0;0;
6063;-35,62846;-7,344543;-21,00821;-41,84912;1,720642;1,835883;2,061168;2,57907;0;0;
6077;-32,05484;-5,711192;-24,2282;-45,70554;1,863329;1,569119;1,964826;2,704494;0;0;
6091;-28,03156;-6,028314;-27,19379;-41,24515;2,155762;1,463071;1,783322;3,607013;0;0;
6105;-28,03156;-6,028314;-27,19379;-41,24515;2,327448;1,558049;1,458522;4,161984;0;0;
6118;-34,50048;-7,056618;-24,33318;-46,28954;2,317244;1,256664;1,192072;4,356402;0;0;
6133;-32,78502;-11,10419;-23,70404;-40,93267;2,218349;1,275508;1,159004;5,365405;0;0;
6146;-32,78502;-11,10419;-23,70404;-40,93267;2,083975;1,400776;1,156702;6,156272;0;0;
6160;-35,44133;-10,10995;-23,01892;-34,71657;2,062657;1,467429;1,333123;5,326949;0;0;
6173;-33,78189;-7,403611;-24,73575;-38,56686;1,7682;1,408384;1,376826;4,792256;0;0;
6186;-33,78189;-7,403611;-24,73575;-38,56686;1,599372;1,360675;1,388472;5,108439;0;0;
6199;-35,25322;-7,411842;-23,96396;-40,36435;1,404827;1,319973;1,417353;5,063596;0;0;
6212;-35,24335;-11,5813;-22,4891;-45,00003;1,285615;1,287462;1,360162;4,495357;0;0;
6226;-35,24335;-11,5813;-22,4891;-45,00003;1,210351;1,32251;1,244997;4,114464;0;0;
6239;-30,83384;-5,268561;-26,20367;-31,39669;1,281157;1,338531;1,283978;4,468233;0;0;
6254;-34,88146;-9,764256;-23,29865;-44,53619;1,321888;1,412584;1,401603;5,001186;0;0;
6268;-34,89202;-10,22252;-22,77894;-35,35571;1,447492;1,640412;1,50197;5,822783;0;0;
6281;-34,89202;-10,22252;-22,77894;-35,35571;1,548959;1,883563;1,538735;6,994047;0;0;
6295;-32,92781;-4,579284;-25,07677;-36,12689;1,461714;1,870502;2,002052;7,22352;0;0;
6309;-31,38434;-7,225451;-27,86971;-32,6517;1,447567;1,946716;2,312016;8,910038;0;0;
6322;-31,38434;-7,225451;-27,86971;-32,6517;1,360137;1,886083;2,40257;10,0509;0;0;
6337;-33,13834;-4,579409;-27,44438;-53,6526;1,343037;1,75693;2,555749;11,0429;0;0;
6350;-32,88985;-6,303178;-22,40214;-29,33558;1,258344;1,615124;2,545511;10,60605;0;0;
6364;-32,88985;-6,303178;-22,40214;-29,33558;1,246568;1,543032;2,336613;10,40585;0;0;
6379;-33,53272;-4,578315;-26,22677;-47,96279;1,326142;1,609881;1,937198;10,23858;0;0;
6393;-36,94043;-2,837329;-24,94367;-26,79593;1,327524;1,545519;1,704696;9,31453;0;0;
6406;-36,94043;-2,837329;-24,94367;-26,79593;1,199476;1,569061;1,562694;7,782349;0;0;
6418;-30,94106;-9,61177;-23,04884;-54,09281;1,220692;1,792568;1,452068;7,409943;0;0;
6432;-35,12701;-8,126572;-23,51977;-43,43372;1,280387;1,860648;1,516709;7,21279;0;0;
6444;-35,12701;-8,126572;-23,51977;-43,43372;1,362864;1,981309;1,713556;7,070807;0;0;
6457;-30,0326;-8,864204;-25,66093;-26,67447;1,46402;2,045493;1,815398;7,167132;0;0;
6473;-35,88324;-6,431071;-24,48299;-40,93076;1,481817;2,071312;1,759425;6,718111;0;0;
6488;-35,42694;-8,880476;-23,95727;-36,98635;1,441502;1,878195;1,67875;6,296256;0;0;
6503;-35,42694;-8,880476;-23,95727;-36,98635;1,401986;1,628498;1,533801;5,679706;0;0;
6516;-31,56242;-7,752779;-23,15698;-42,33507;1,362978;1,579802;1,335445;5,173183;0;0;
6532;-35,36097;-7,879933;-27,33905;-38,0251;1,48063;1,728055;1,380722;4,851047;0;0;
6545;-35,36097;-7,879933;-27,33905;-38,0251;1,44336;1,92337;1,406809;4,251521;0;0;
6559;-32,38944;-13,73375;-25,21468;-40,35267;1,644846;2,191504;1,35303;4,566006;0;0;
6573;-34,77156;-10,35932;-28,72395;-38,06906;1,751017;2,3772;1,322415;4,824229;0;0;
6586;-34,77156;-10,35932;-28,72395;-38,06906;1,803629;2,454252;1,369018;5,42208;0;0;
6602;-34,49996;-7,000597;-25,73888;-62,92856;1,906355;2,395478;1,480993;5,282183;0;0;
6616;-33,74938;-7,849706;-25,23579;-33,31668;1,841487;2,133823;1,311781;6,149707;0;0;
6630;-37,03323;-11,71469;-25,85656;-37,19704;1,780329;1,80904;1,249115;6,488902;0;0;
6643;-37,03323;-11,71469;-25,85656;-37,19704;1,616528;1,688612;1,255884;7,156984;0;0;
6656;-35,24609;-9,844105;-22,62467;-36,73241;1,469793;1,614243;1,451252;8,133999;0;0;
6672;-32,44168;-7,659359;-23,41171;-27,67506;1,453735;1,598969;1,602738;9,645215;0;0;
6685;-32,44168;-7,659359;-23,41171;-27,67506;1,523655;1,586708;1,660603;11,03918;0;0;
6705;-35,62934;-9,579073;-25,6078;-42,29591;1,540437;1,617495;1,747762;10,15897;0;0;
6719;-32,78994;-6,139644;-27,0894;-39,27338;2,083722;1,60517;1,686088;9,282653;0;0;
6734;-30,95517;-5,086386;-24,49855;-38,353;2,111584;1,530868;1,633522;9,086417;0;0;
6746;-30,95517;-5,086386;-24,49855;-38,353;2,214164;1,608502;1,320841;6,266263;0;0;
6761;-36,60272;-4,70417;-25,84581;-41,59737;2,095005;1,544764;1,075493;4,526769;0;0;
6775;-34,24893;-8,484443;-24,61614;-39,91263;1,915146;1,504211;0,9146807;4,094068;0;0;
6789;-36,21617;-6,35926;-26,34841;-46,14957;1,664004;1,374465;0,9442159;4,077446;0;0;
6803;-36,21617;-6,35926;-26,34841;-46,14957;1,365274;1,337288;1,094774;4,363748;0;0;
6815;-35,72836;-4,593677;-25,46614;-40,92083;1,414092;1,238637;1,212653;5,07052;0;0;
6829;-33,90817;-6,676671;-25,90921;-47,49773;1,240723;1,316691;1,259822;4,984807;0;0;
6842;-33,90817;-6,676671;-25,90921;-47,49773;1,168813;1,416863;1,33011;4,515704;0;0;
6856;-38,60572;-6,062822;-26,21666;-35,617;1,264589;1,825993;1,47866;4,687641;0;0;
6871;-33,05252;-9,129196;-25,68101;-37,86197;1,353427;1,858732;1,424009;4,811821;0;0;
6883;-33,05252;-9,129196;-25,68101;-37,86197;1,440597;1,894258;1,330101;4,687888;0;0;
6898;-33,61157;-10,08215;-22,17519;-44,9768;1,340654;1,844457;1,357703;4,451282;0;0;
6911;-34,09556;-7,827048;-25,80114;-48,83308;1,477054;1,890964;1,313274;4,577796;0;0;
6924;-34,09556;-7,827048;-25,80114;-48,83308;1,507163;1,761161;1,280975;4,590724;0;0;
6936;-34,88999;-5,891978;-26,02506;-40,08679;1,308475;1,707886;1,265313;4,138855;0;0;
6949;-35,25682;-10,11136;-21,51416;-36,84941;1,21003;1,864626;1,545637;3,613982;0;0;
6964;-35,25682;-10,11136;-21,51416;-36,84941;1,184886;2,07003;1,759414;3,207272;0;0;
6976;-34,41937;-12,4213;-26,98047;-38,78336;1,194441;2,092337;2,018421;2,874815;0;0;
6991;-34,41937;-12,4213;-26,98047;-38,78336;1,184265;2,025997;2,301424;2,666073;0;0;
7006;-34,41937;-12,4213;-26,98047;-38,78336;1,249371;1,923642;2,501373;2,528166;0;0;
7018;-34,05141;-5,182489;-25,53315;-17,20506;1,470301;1,856557;2,343035;3,337994;0;0;
7035;-34,28022;-6,191561;-24,38878;-36,95679;1,584864;1,623767;2,035925;3,472733;0;0;
7047;-34,28022;-6,191561;-24,38878;-36,95679;1,659532;1,455206;1,626736;3,568826;0;0;
7062;-34,4464;-6,006699;-23,90069;-40,5544;1,644113;1,522844;1,418531;3,548482;0;0;
7076;-32,68976;-6,568099;-25,46405;-48,27779;1,671563;1,571184;1,154924;3,546926;0;0;
7089;-33,28194;-7,845422;-25,67054;-49,99752;1,752931;1,588355;1,083957;3,520205;0;0;
7102;-33,28194;-7,845422;-25,67054;-49,99752;1,830395;1,643017;1,125853;3,335738;0;0;
7115;-32,74585;-10,3566;-27,31763;-43,07845;1,641248;1,775695;1,214386;3,431891;0;0;
7130;-32,56131;-9,834998;-25,48806;-39,87253;1,613936;1,801009;1,187367;3,27124;0;0;
7142;-32,56131;-9,834998;-25,48806;-39,87253;1,567977;1,899481;1,134487;3,053797;0;0;
7157;-34,70408;-10,10956;-20,10047;-39,06129;1,517564;1,875234;1,324624;3,071953;0;0;
7170;-34,49776;-7,997555;-25,22615;-44,25675;1,298546;2,015817;1,365326;2,996492;0;0;
7183;-34,49776;-7,997555;-25,22615;-44,25675;1,234859;2,130221;1,482721;2,800204;0;0;
7197;-33,50301;-10,10113;-20,29201;-38,39454;1,320827;2,129791;1,422149;3,05995;0;0;
7210;-33,89853;-8,751682;-25,22834;-42,85701;1,235972;2,044681;1,542137;3,556165;0;0;
7224;-33,89853;-8,751682;-25,22834;-42,85701;1,040332;1,965851;1,573121;3,928987;0;0;
7237;-33,91095;-4,703479;-24,49946;-40,8115;1,035711;1,831333;1,424047;3,696722;0;0;
7251;-36,44738;-6,921624;-25,8463;-37,26054;0,9933928;1,625004;1,366917;3,278212;0;0;
7265;-36,44738;-6,921624;-25,8463;-37,26054;0,9531655;1,500459;1,378291;2,759406;0;0;
7279;-35,88058;-5,728821;-24,87192;-39,14757;0,9801776;1,563507;1,397592;2,715326;0;0;
7295;-33,08831;-6,407468;-23,37183;-49,18071;1,065828;1,607333;1,337476;2,726263;0;0;
7307;-33,08831;-6,407468;-23,37183;-49,18071;1,069682;1,660395;1,314517;2,783803;0;0;
7321;-35,04936;-8,403327;-24,61947;-38,98966;1,208571;1,636248;1,239308;2,932163;0;0;
7333;-32,55479;-6,733932;-25,24341;-35,23968;1,147482;1,552003;1,28799;3,238648;0;0;
7346;-32,55479;-6,733932;-25,24341;-35,23968;1,006539;1,470506;1,248591;3,204681;0;0;
7362;-32,73667;-11,80834;-26,33283;-39,47461;0,9445086;1,475186;1,261202;3,263607;0;0;
7375;-32,73667;-11,80834;-26,33283;-39,47461;0,8580779;1,611399;1,291885;3,114497;0;0;
7390;-32,71854;-8,127383;-24,34597;-35,62098;0,8921048;1,663606;1,225792;3,241188;0;0;
7404;-32,71854;-8,127383;-24,34597;-35,62098;0,9505624;1,797126;1,208697;3,696134;0;0;
7419;-33,75976;-10,71498;-27,01206;-35,75188;1,12385;2,152985;1,172603;3,514806;0;0;
7433;-33,7202;-7,296509;-24,67647;-36,47404;1,224293;2,271277;1,103898;3,538647;0;0;
7446;-33,7202;-7,296509;-24,67647;-36,47404;1,323818;2,256167;0,9962455;3,55671;0;0;
7460;-34,87253;-5,497453;-24,99738;-43,30142;1,278897;2,191526;0,8996595;3,051766;0;0;
7474;-35,28381;-3,97137;-26,20334;-38,36678;1,272517;2,124998;0,8968306;2,528843;0;0;
7488;-35,28381;-3,97137;-26,20334;-38,36678;1,27134;2,073784;0,8825493;2,201964;0;0;
7501;-35,28381;-3,97137;-26,20334;-38,36678;1,225502;1,774995;0,8343248;2,110392;0;0;
7515;-33,95007;-7,773524;-26,22101;-36,55981;1,212179;1,659761;1,024529;1,854526;0;0;
7529;-36,47175;-8,879737;-24,70326;-40,17686;1,29425;1,55359;1,209642;1,77247;0;0;
7543;-36,47175;-8,879737;-24,70326;-40,17686;1,279103;1,578132;1,383545;2,071815;0;0;
7556;-33,54143;-6,180041;-27,06433;-40,32713;1,246874;1,461838;1,472285;2,367364;0;0;
7570;-32,3148;-9,939676;-26,1076;-39,26755;1,198211;1,633223;1,516095;2,358591;0;0;
7585;-32,3148;-9,939676;-26,1076;-39,26755;1,150216;1,773921;1,48561;2,248309;0;0;
7599;-33,54093;-10,72333;-23,69155;-35,7711;1,239522;1,951941;1,379249;2,689134;0;0;
7614;-33,01672;-6,972796;-27,89832;-36,4052;1,231452;1,961233;1,383284;2,676299;0;0;
7628;-32,55688;-4,068027;-23,15977;-36,91767;1,255727;2,13571;1,39384;2,776503;0;0;
7642;-32,55688;-4,068027;-23,15977;-36,91767;1,3268;2,359845;1,422332;3,023078;0;0;
7655;-32,57443;-8,378152;-22,03849;-35,47435;1,265099;2,146614;1,530229;3,107678;0;0;
7669;-31,40542;-7,053042;-23,94646;-42,15396;1,32456;2,123151;1,558678;3,42811;0;0;
7681;-31,40542;-7,053042;-23,94646;-42,15396;1,29602;2,015096;1,54728;3,158762;0;0;
7695;-33,17921;-7,903716;-24,63317;-47,27037;1,401986;2,159219;1,477555;2,983459;0;0;
7710;-34,44246;-8,418449;-26,10462;-46,48509;1,263399;2,077329;1,428951;3,158523;0;0;
7723;-34,44246;-8,418449;-26,10462;-46,48509;1,156038;2,007161;1,371157;3,519624;0;0;
7736;-35,34464;-10,54464;-24,80702;-38,62199;1,251504;1,914795;1,351462;3,895116;0;0;
7749;-32,42468;-8,134728;-25,86975;-40,964;1,303922;1,799215;1,29869;3,780225;0;0;
7766;-32,42468;-8,134728;-25,86975;-40,964;1,298612;1,731694;1,236612;3,639106;0;0;
7779;-34,16262;-6,548799;-19,38402;-44,07956;1,365511;1,714288;1,507275;3,514361;0;0;
7794;-34,58268;-11,57391;-26,3362;-42,61882;1,434317;1,672553;1,666493;3,094333;0;0;
7809;-34,90306;-6,553919;-26,2666;-42,34904;1,532419;1,623191;1,968973;2,63998;0;0;
7822;-34,90306;-6,553919;-26,2666;-42,34904;1,675244;1,686722;2,354756;2,456226;0;0;
7835;-35,61378;-9,245916;-25,20734;-36,70711;1,594731;1,604497;2,29109;3,119222;0;0;
7851;-34,38435;-7,832197;-24,24239;-39,22033;1,56122;1,42312;2,154892;2,89563;0;0;
7865;-34,38435;-7,832197;-24,24239;-39,22033;1,536898;1,424011;1,824792;3,002735;0;0;
7880;-34,95383;-4,735292;-25,3299;-29,68933;1,593963;1,572326;1,751764;3,273026;0;0;
7895;-32,37529;-3,612799;-25,55652;-39,5062;1,576339;1,66942;1,424525;3,595731;0;0;
7908;-37,44624;-8,016485;-22,78287;-40,11955;1,452114;1,823636;1,256208;3,254928;0;0;
7923;-37,44624;-8,016485;-22,78287;-40,11955;1,520813;2,006823;1,308102;3,008773;0;0;
7936;-32,35524;-8,28955;-22,77527;-30,47307;1,536284;2,103039;1,311044;3,374517;0;0;
7949;-33,28122;-6,85867;-24,95944;-41,59882;1,667835;1,978108;1,256157;3,337823;0;0;
7964;-33,28122;-6,85867;-24,95944;-41,59882;1,731548;1,631036;1,202272;2,672499;0;0;
7976;-32,53823;-4,183425;-21,18149;-39,34467;1,731734;1,604417;1,237697;2,849031;0;0;
7989;-35,6064;-5,871907;-23,14763;-46,02495;1,862308;1,430318;1,251587;2,86266;0;0;
8004;-35,6064;-5,871907;-23,14763;-46,02495;1,978121;1,23855;1,248307;2,905713;0;0;
8018;-34,25048;-3,014028;-23,89919;-34,24885;2,022627;1,39888;1,407075;2,701442;0;0;
8033;-34,94977;-10,09096;-23,74982;-48,6645;1,896634;1,628095;1,637946;2,887797;0;0;
8046;-34,94977;-10,09096;-23,74982;-48,6645;1,746185;1,740434;1,841516;2,913076;0;0;
8059;-37,33627;-6,260278;-24,30755;-39,06939;1,675899;1,727285;1,813293;2,717438;0;0;
8074;-32,01184;-8,381565;-24,50173;-39,00805;1,481191;1,640214;1,833445;2,462755;0;0;
8086;-32,01184;-8,381565;-24,50173;-39,00805;1,395059;1,51708;1,735149;2,228187;0;0;
8100;-34,03308;-4,111983;-24,86895;-42,44336;1,296751;1,337375;1,66769;2,202425;0;0;
8115;-32,39269;-5,778956;-23,74531;-41,78686;1,303487;1,185852;1,509173;2,07083;0;0;
8130;-35,48203;-4,225119;-23,53493;-35,14494;1,348242;1,092556;1,363169;2,133899;0;0;
8143;-35,48203;-4,225119;-23,53493;-35,14494;1,29119;1,122999;1,277781;2,265685;0;0;
8157;-32,81393;-3,905426;-21,42907;-40,79565;1,288302;1,294434;1,29597;2,203042;0;0;
8171;-30,19828;-10,54224;-21,73578;-38,51592;1,501177;1,449195;1,4892;1,851162;0;0;
8185;-30,19828;-10,54224;-21,73578;-38,51592;1,611363;1,440404;1,614439;1,564682;0;0;
8201;-34,16321;-6,348057;-25,85887;-37,50589;1,589139;1,70706;1,565364;1,697722;0;0;
8215;-34,26988;-3,55193;-23,97501;-39,03551;1,585889;2,049606;1,577956;1,850132;0;0;
8229;-32,4967;-6,437566;-22,03654;-34,19753;1,565818;2,236057;1,684914;2,052235;0;0;
8242;-32,4967;-6,437566;-22,03654;-34,19753;1,529398;2,355589;1,684046;2,469758;0;0;
8258;-35,24041;-3,75043;-24,46089;-44,56665;1,391187;2,262919;1,615801;3,165088;0;0;
8271;-34,63647;-10,37873;-22,24226;-41,56985;1,268531;2,343503;1,660405;3,390064;0;0;
8283;-34,63647;-10,37873;-22,24226;-41,56985;1,236355;2,392824;1,674804;3,447947;0;0;
8297;-33,54473;-7,634324;-23,15128;-39,81228;1,261797;2,010987;1,620662;3,369633;0;0;
8310;-35,26128;-5,688567;-24,8858;-39,8247;1,240898;1,789945;1,476114;3,165147;0;0;
8323;-35,26128;-5,688567;-24,8858;-39,8247;1,213283;1,775082;1,353232;2,674621;0;0;
8338;-36,3902;-4,72222;-26,44311;-31,27919;1,235956;1,760114;1,399542;3,049148;0;0;
8351;-34,52207;-10,35638;-23,1503;-37,70199;1,243023;1,600899;1,456383;3,050241;0;0;
8365;-34,52207;-10,35638;-23,1503;-37,70199;1,193161;1,462706;1,462409;3,004207;0;0;
8378;-33,77883;-6,050756;-24,99375;-44,62619;1,151358;1,509401;1,430265;2,526538;0;0;
8392;-33,78321;-7,631663;-25,10484;-41,44545;1,101395;1,517566;1,433865;2,484487;0;0;
8405;-33,78321;-7,631663;-25,10484;-41,44545;1,045989;1,507365;1,512871;2,298362;0;0;
8418;-32,06681;-11,07057;-24,03571;-39,88342;1,053355;1,782604;1,59534;2,270503;0;0;
8432;-32,06681;-11,07057;-24,03571;-39,88342;1,092514;2,062504;1,756638;2,504373;0;0;
8445;-32,06681;-11,07057;-24,03571;-39,88342;1,123274;2,377319;1,907102;2,909329;0;0;
8460;-35,21278;-10,62496;-24,32558;-38,76634;1,22578;2,318398;2,064271;2,934623;0;0;
8473;-34,02929;-6,931312;-23,7035;-39,74639;1,202776;2,490553;2,255087;2,781795;0;0;
8485;-34,02929;-6,931312;-23,7035;-39,74639;1,111689;2,500839;2,351259;2,465955;0;0;
8501;-31,51392;-8,888445;-27,19805;-35,36679;1,153214;2,389709;2,168069;2,399937;0;0;
8515;-34,76498;-6,303423;-26,46004;-35,78967;1,137544;2,052241;2,059957;2,170555;0;0;
8530;-34,61196;-8,699912;-25,68498;-35,59669;1,079886;2,005817;1,925801;2,175333;0;0;
8543;-34,61196;-8,699912;-25,68498;-35,59669;1,062985;2,119572;1,745968;2,496308;0;0;
8556;-34,75333;-7,109148;-24,4737;-41,25312;1,263561;1,91946;1,480866;2,72743;0;0;
8569;-34,77644;-5,07217;-24,59122;-40,3629;1,282134;1,787086;1,299229;2,771675;0;0;
8581;-34,77644;-5,07217;-24,59122;-40,3629;1,298677;1,741658;1,284559;2,663012;0;0;
8597;-32,57806;-9,926186;-27,90676;-39,53228;1,478827;1,627723;1,167846;2,459074;0;0;
8611;-30,34416;-7,888279;-21,07783;-38,40424;1,586176;1,573938;1,304708;2,385268;0;0;
8624;-30,34416;-7,888279;-21,07783;-38,40424;1,623996;1,639446;1,500993;2,301337;0;0;
8637;-36,4686;-7,539751;-22,70242;-38,89634;1,655342;1,671586;1,600529;2,433361;0;0;
8650;-37,93333;-7,266946;-25,74696;-41,47356;1,770624;1,574065;1,730427;2,157486;0;0;
8663;-37,93333;-7,266946;-25,74696;-41,47356;1,830812;1,543522;1,901692;2,013831;0;0;
8676;-33,72746;-7,990822;-24,14707;-52,77632;1,770859;1,732937;1,85362;2,329138;0;0;
8689;-33,78178;-7,009038;-24,6678;-29,14188;1,811648;1,707414;1,765238;3,013148;0;0;
8702;-33,78178;-7,009038;-24,6678;-29,14188;1,918772;1,742343;1,69347;3,693641;0;0;
8716;-33,70322;-4,701464;-28,19144;-41,84874;1,738112;1,856767;1,682853;3,526055;0;0;
8731;-32,89941;-11,27318;-24,64419;-39,18932;1,587361;2,049598;1,502795;3,678518;0;0;
8744;-32,89941;-11,27318;-24,64419;-39,18932;1,420143;2,162574;1,393342;3,612955;0;0;
8758;-34,69559;-4,679429;-23,05283;-38,07388;1,421266;1,950255;1,390513;2,935814;0;0;
8771;-33,21199;-6,31164;-24,72901;-40,97091;1,332159;2,163456;1,31882;2,453326;0;0;
8784;-33,21199;-6,31164;-24,72901;-40,97091;1,213369;2,354846;1,326676;2,291742;0;0;
8801;-31,06695;-5,88579;-25,95108;-37,91931;1,327384;2,362223;1,240793;2,40996;0;0;
8820;-34,52361;-7,85428;-26,45943;-65,02559;1,270784;2,206085;1,305824;3,122183;0;0;
8834;-35,69715;-5,876317;-27,28045;-44,28791;1,358447;2,08866;1,38672;3,580278;0;0;
8847;-35,69715;-5,876317;-27,28045;-44,28791;1,414341;2,01553;1,277882;3,820642;0;0;
8862;-39,20284;-4,05433;-26,93032;-27,74662;1,895606;2,031017;1,287342;3,964823;0;0;
8875;-37,57084;8,395048;-24,97955;-36,2638;4,630176;4,902956;1,307865;4,916423;1;0;
8887;-37,57084;8,395048;-24,97955;-36,2638;7,354191;7,836453;1,310902;5,957766;1;0;
8900;-81,75905;5,785328;-25,59191;-35,79975;10,90092;10,87507;1,311317;5,351194;1;0;
8914;-70,3569;-106,6894;-23,2776;-27,60758;17,86909;20,4228;1,337539;5,275275;1;0;
8928;48,32386;53,76584;-8,944332;-33,9268;53,14198;34,65246;2,429997;6,725382;1;0;
8941;48,32386;53,76584;-8,944332;-33,9268;87,43753;48,79272;3,553347;7,253876;1;0;
8955;-15,39422;-22,81778;-23,58897;-38,5677;163,9105;62,05738;8,632425;12,1766;1;0;
8968;-125,259;23,82801;-12,66254;-46,4903;265,3181;72,42731;10,03758;20,19813;1;0;
8981;-125,259;23,82801;-12,66254;-46,4903;364,2722;82,12997;11,41855;28,94147;1;0;
8995;-26,62179;61,53192;-25,55128;-60,48606;477,2914;75,20242;11,30998;31,18465;1;0;
9010;-804,7207;-153,3835;-25,86813;-46,42471;512,8787;74,65166;10,23424;32,19724;1;0;
9028;-226,8603;-9,941119;-28,33087;-67,34265;491,9227;71,64009;9,052844;30,65757;1;0;
9043;-226,8603;-9,941119;-28,33087;-67,34265;419,3941;61,49504;4,426618;22,20743;1;0;
9056;-93,96471;-41,2349;-25,26052;-38,29894;351,7808;53,56934;3,889246;14,61161;1;0;
9072;641,6116;73,225;-60,16357;-7,086054;339,5854;54,82123;5,25799;12,49783;1;0;
9085;641,6116;73,225;-60,16357;-7,086054;246,1676;50,90163;7,141879;11,00746;1;0;
9098;-71,01897;-11,74947;-89,41546;-21,38165;208,4925;42,30097;15,04872;13,27937;1;0;
9113;-114,9035;0,9995877;75,14756;-22,34495;182,8435;37,59747;24,8312;17,24873;1;0;
9127;-114,9035;0,9995877;75,14756;-22,34495;165,4209;37,52437;34,51964;20,8427;1;0;
9141;-35,06681;-16,08488;-72,89871;114,257;136,0466;34,37116;44,52665;30,67454;1;0;
9156;-30,39879;-5,695965;16,03024;-53,08492;92,37051;25,6708;52,94415;45,96623;1;0;
9172;-31,21302;-7,614499;-104,6298;-25,23687;50,7309;17,72362;61,05629;55,37543;0;0;
9188;-31,21302;-7,614499;-104,6298;-25,23687;35,16652;12,81521;59,79678;63,52832;0;0;
9205;-30,38684;-7,30326;-45,34877;-48,60301;15,36647;8,132746;57,71602;67,30786;0;0;
9218;-14,0822;-4,113643;-30,67446;-24,56472;4,98455;2,967954;52,75645;61,29855;0;0;
9236;-77,34091;-4,914779;-14,27612;-63,00554;7,233682;2,221069;44,1664;48,64725;0;0;
9250;-11,32089;-9,309664;-18,26143;-25,34905;11,48921;2,391673;37,29958;45,31754;0;0;
9264;-11,32089;-9,309664;-18,26143;-25,34905;15,66249;2,350907;28,27021;38,08281;0;0;
9277;-57,87963;-5,385403;-25,24268;-57,11072;18,12667;2,184747;16,21211;25,66483;0;0;
9291;-59,44235;-8,279433;-48,81492;-43,85499;21,6698;2,255545;12,32842;22,94396;0;0;
9304;-59,44235;-8,279433;-48,81492;-43,85499;24,44039;2,15086;9,541567;22,44717;0;0;
9319;-42,54307;-9,194316;-26,42078;-35,1101;25,51074;2,117586;9,324589;18,44418;0;0;
9336;-53,1644;-10,45737;-18,0934;-43,94212;22,51205;1,916682;8,956119;14,59583;0;0;
9351;-50,82118;-6,074336;-19,75696;-68,0878;22,07699;1,989934;8,005531;13,15204;0;0;
9364;-50,82118;-6,074336;-19,75696;-68,0878;21,88549;2,103597;8,488773;13,3618;0;0;
9377;-29,01954;-6,150032;-26,8269;-52,18158;17,91908;2,127324;8,346782;11,85137;0;0;
9392;-35,24413;-6,944915;-23,33006;-14,83118;11,64333;2,093966;5,602405;11,38457;0;0;
9406;-35,24413;-6,944915;-23,33006;-14,83118;10,31847;2,140396;3,863246;12,26884;0;0;
9418;-42,51189;-7,392912;-23,17557;-41,30283;8,421305;2,119316;3,1165;12,18352;0;0;
9433;-31,22584;-2,877788;-26,82585;-36,85188;5,339937;2,014661;3,117681;10,36773;0;0;
9445;-31,22584;-2,877788;-26,82585;-36,85188;3,996754;1,892638;2,911098;9,316322;0;0;
9458;-33,89859;-2,208856;-23,28726;-44,05091;3,434861;1,943055;2,849531;8,646195;0;0;
9472;-33,34357;-10,45672;-24,14977;-42,04139;3,139309;1,984857;3,011366;7,070764;0;0;
9486;-33,34357;-10,45672;-24,14977;-42,04139;2,663386;2,034777;3,097747;5,028704;0;0;
9500;-34,39159;-6,368785;-25,15116;-59,78305;1,614819;1,881955;2,76205;5,174098;0;0;
9515;-34,72185;-4,577748;-23,76067;-51,57174;1,273181;1,77274;2,027159;6,283908;0;0;
9530;-37,20856;-5,941981;-24,14524;-47,73853;1,289343;1,693056;1,672757;6,935397;0;0;
9544;-37,20856;-5,941981;-24,14524;-47,73853;1,535983;1,588721;1,724145;7,861701;0;0;
9557;-32,18814;-7,669964;-27,83031;-40,1356;1,54643;1,526261;1,584034;8,630689;0;0;
9570;-33,91584;-8,647025;-27,458;-39,58762;2,054818;1,400906;1,470958;7,905201;0;0;
9583;-33,91584;-8,647025;-27,458;-39,58762;2,602928;1,347669;1,512776;6,806322;0;0;
9599;-41,22432;-7,876036;-26,3925;-43,75853;2,922147;1,197746;1,835793;7,753589;0;0;
9613;-31,93248;-4,570756;-25,24327;-57,12233;2,77026;1,144601;1,904208;9,125183;0;0;
9628;-31,93248;-4,570756;-25,24327;-57,12233;2,773882;1,122945;1,997453;10,86457;0;0;
9643;-33,12506;-9,635488;-23,64848;-28,89776;3,073421;1,285987;1,957006;11,81866;0;0;
9657;-35,78809;-8,248724;-26,88105;-58,45382;3,128226;1,417517;1,876105;13,91052;0;0;
9672;-31,56701;-3,559841;-23,94629;-54,42192;2,808158;1,503786;1,728036;16,06217;0;0;
9686;-31,56701;-3,559841;-23,94629;-54,42192;2,318587;1,562869;1,477317;18,80381;0;0;
9700;-32,56241;-5,94034;-23,84845;-37,6899;2,364548;1,734006;1,266029;16,47017;0;0;
9713;-32,56241;-5,94034;-23,84845;-37,6899;2,446452;1,753861;1,026626;14,05197;0;0;
9727;-32,56241;-5,94034;-23,84845;-37,6899;1,70041;1,866358;0,9799727;13,05973;0;0;
9741;-31,76123;-9,403652;-30,01616;-48,96283;1,59346;1,967455;1,174989;10,3506;0;0;
9753;-33,17407;-10,30184;-27,37921;-38,83207;1,641658;2,000925;1,329617;7,093162;0;0;
9767;-33,17407;-10,30184;-27,37921;-38,83207;1,666329;1,96746;1,42754;4,962118;0;0;
9782;-32,35863;-5,579137;-23,20657;-40,71125;1,627136;1,846282;1,415449;5,59581;0;0;
9796;-34,23877;-6,694847;-27,37555;-42,18794;1,497632;1,766457;1,375582;5,463536;0;0;
9811;-35,10647;-7,434254;-22,36837;-34,41822;1,374916;1,612757;1,607985;7,190979;0;0;
9823;-35,10647;-7,434254;-22,36837;-34,41822;1,339632;1,500778;1,553719;8,625231;0;0;
9836;-35,41214;-8,982858;-26,23073;-36,35595;1,341663;1,356437;1,538541;9,554091;0;0;
9850;-33,16475;-11,07965;-20,91396;23,00968;1,344783;1,335568;1,503505;12,37756;0;0;
9864;-33,16475;-11,07965;-20,91396;23,00968;1,334357;1,270415;1,554365;15,25619;0;0;
9884;-37,19706;-5,212296;-25,44925;-36,93756;1,520932;1,433836;1,710995;15,77817;0;0;
9898;-34,30049;-6,669962;-20,80848;-41,32698;1,557047;1,50303;1,586799;14,23868;0;0;
9913;-37,43024;-10,08477;-30,36971;-61,79199;1,592687;1,603642;1,6908;14,13344;0;0;
9927;-37,43024;-10,08477;-30,36971;-61,79199;1,564754;1,685329;1,859281;14,11293;0;0;
9940;-29,14173;-9,183464;-27,51339;-8,779163;1,997616;1,644861;2,06895;14,38845;0;0;
9953;-30,23804;-7,248441;-25,84136;-18,99639;3,052595;1,496175;2,01972;13,13008;0;0;
9967;-30,23804;-7,248441;-25,84136;-18,99639;4,057378;1,389393;1,972655;13,5807;0;0;
9980;-48,33709;-6,03515;-21,99736;-35,97885;5,618499;1,642854;2,013994;13,9567;0;0;
9996;-35,95475;-1,174917;-27,44134;-46,85983;6,274882;1,597069;1,791314;12,43624;0;0;
10009;-32,58174;-10,58839;-26,62495;-36,08632;5,96611;1,965565;1,506007;11,09063;0;0;
10022;-32,58174;-10,58839;-26,62495;-36,08632;5,370035;2,390158;1,523194;7,899156;0;0;
10036;-33,10478;-6,524726;-24,11904;-41,743;4,38713;2,340809;1,479825;6,920384;0;0;
10049;-34,50636;-7,988415;-29,03784;-52,24006;2,863028;2,233192;1,563563;5,956003;0;0;
10065;-34,50636;-7,988415;-29,03784;-52,24006;1,802478;2,116937;1,657494;6,664829;0;0;
10080;-34,25544;-5,508567;-22,7114;-22,36668;1,418299;1,90419;1,671981;7,448484;0;0;
10095;-33,17465;-7,291836;-23,78159;-41,16374;1,244572;1,491536;1,795075;7,392288;0;0;
10109;-35,42727;-10,21132;-27,366;-40,82301;1,259862;1,382306;1,8275;6,616116;0;0;
10123;-35,42727;-10,21132;-27,366;-40,82301;1,291362;1,421229;1,831676;6,747758;0;0;
10137;-34,51078;-4,174498;-23,50882;-34,6334;1,201493;1,420914;1,613865;5,893349;0;0;
10151;-32,82503;-6,041851;-25,17253;-52,78454;1,081599;1,493066;1,565623;5,374855;0;0;
10164;-32,82503;-6,041851;-25,17253;-52,78454;1,122087;1,537613;1,558342;4,583013;0;0;
10177;-35,24871;-5,438486;-27,0081;-44,52216;1,181947;1,802965;1,70388;5,946246;0;0;
10190;-36,22135;-11,08497;-23,28743;-32,66079;1,20125;1,83925;1,784581;6,270444;0;0;
10203;-36,22135;-11,08497;-23,28743;-32,66079;1,277827;1,886075;2,004641;6,823843;0;0;
10216;-31,58192;-6,317973;-23,78863;-45,86647;1,637183;1,981843;2,015947;7,304362;0;0;
10232;-34,36742;-3,959169;-25,22449;-37,90394;1,896972;1,975289;1,984684;6,624205;0;0;
10246;-34,36742;-3,959169;-25,22449;-37,90394;2,061015;1,867235;1,817003;4,665554;0;0;
10259;-34,38722;-3,989611;-26,225;-36,54818;2,058288;2,118008;1,67431;4,113554;0;0;
10274;-31,57251;-8,525563;-18,87896;-26,37845;1,976139;2,19725;1,567638;5,578512;0;0;
10288;-37,19979;-8,578526;-22,88726;-37,61053;2,068207;1,898693;1,452151;5,942503;0;0;
10301;-37,19979;-8,578526;-22,88726;-37,61053;1,790695;1,641361;1,412842;6,682378;0;0;
10314;-32,94748;-10,71637;-27,74922;-39,66107;1,709423;1,573696;1,283669;6,985312;0;0;
10329;-33,91053;-4,96861;-25,2227;-48,97134;1,396489;1,479476;1,564007;9,365062;0;0;
10341;-33,91053;-4,96861;-25,2227;-48,97134;1,296161;1,208143;1,802653;11,30473;0;0;
10354;-33,05069;-10,07512;-24,48898;-42,54896;1,301465;1,145853;1,824516;10,39867;0;0;
10366;-33,05069;-10,07512;-24,48898;-42,54896;1,26321;1,232531;1,846895;10,45921;0;0;
10379;-33,75577;-5,079698;-25,3696;-47,6273;1,234049;1,321353;1,838977;9,899439;0;0;
10395;-32,42204;-2,200687;-27,88772;-16,16789;1,062909;1,434652;1,744419;10,12452;0;0;
10408;-33,12155;-10,16001;-22,3057;-35,76058;1,167266;1,49204;1,6153;8,536618;0;0;
10421;-33,12155;-10,16001;-22,3057;-35,76058;1,187719;1,545823;1,605522;7,714321;0;0;
10435;-31,84123;-8,034972;-23,36281;-41,24015;1,173535;1,675404;1,520576;7,143063;0;0;
10450;-35,95588;-8,272163;-26,34292;-39,16365;1,370088;1,689188;1,629373;7,534005;0;0;
10466;-35,95588;-8,272163;-26,34292;-39,16365;1,572657;1,704482;1,829996;8,7496;0;0;
10479;-30,2885;-5,909427;-26,72635;-36,45167;1,659357;1,549501;1,581053;7,54722;0;0;
10494;-34,92376;-7,765249;-24,48015;-43,86243;1,709812;1,630487;1,437561;8,571008;0;0;
10547;-33,72972;-6,179539;-27,47198;-59,74524;1,697644;1,726517;1,451408;8,036849;0;0;
10560;-33,77848;-8,354438;-27,64458;-33,92787;1,687016;1,66987;1,566875;8,341885;0;0;
10576;-31,93594;-11,37733;-24,84756;-42,02489;1,512439;1,741521;1,403954;7,52887;0;0;
10592;-33,89459;-8,62985;-26,22035;-10,97762;1,459957;1,833524;1,339538;7,435326;0;0;
10606;-33,89459;-8,62985;-26,22035;-10,97762;1,469468;1,80842;1,363192;8,52177;0;0;
10619;-33,8848;-11,56866;-28,55936;-29,52779;1,59682;1,973305;1,371819;7,73129;0;0;
10633;-32,00522;-10,12102;-25,47216;-45,62469;1,59478;1,793356;1,54377;7,330238;0;0;
10646;-32,00522;-10,12102;-25,47216;-45,62469;1,610478;1,6947;1,609659;7,256992;0;0;
10660;-35,31598;-9,750906;-22,19822;-46,3632;1,694386;1,607266;1,776039;7,811914;0;0;
10674;-35,31598;-9,750906;-22,19822;-46,3632;1,641187;1,48809;1,939422;7,945895;0;0;
10688;-33,07019;-10,23041;-23,02816;-37,68201;1,613546;1,61916;1,901243;7,274795;0;0;
10701;-33,07019;-10,23041;-23,02816;-37,68201;1,634404;1,685777;1,698636;6,65012;0;0;
10714;-33,90323;-8,253591;-25,33264;-43,46105;1,612854;1,60772;1,573904;6,283836;0;0;
10729;-34,01382;-11,17266;-24,87679;-41,77441;1,668208;1,759033;1,629995;6,020828;0;0;
10743;-34,01382;-11,17266;-24,87679;-41,77441;1,669588;1,878138;1,616416;4,81557;0;0;
10758;-33,97273;-4,72016;-23,4187;-49,06729;1,61978;1,885964;1,625315;5,549415;0;0;
10771;-34,58525;-7,265925;-27,37333;-36,46146;1,452858;1,831334;1,63016;6,719106;0;0;
10784;-34,58525;-7,265925;-27,37333;-36,46146;1,352582;1,996099;1,591351;8,115529;0;0;
10798;-33,53817;-2,45373;-24,7719;-31,5785;1,245478;2,143087;1,621541;8,418833;0;0;
10811;-35,7491;-7,391952;-23,78487;-38,2566;1,250847;2,28464;1,474367;9,284143;0;0;
10826;-35,7491;-7,391952;-23,78487;-38,2566;1,393484;2,324156;1,332194;9,538619;0;0;
10842;-32,34927;-8,947948;-23,50665;-40,73978;1,323802;2,133479;1,290376;8,328353;0;0;
10856;-31,50105;-11,24911;-25,32791;-41,767;1,404955;1,980946;1,292493;6,757836;0;0;
10870;-32,65213;-10,23526;-26,70193;-40,80083;1,368236;2,0746;1,270685;7,391716;0;0;
10883;-32,65213;-10,23526;-26,70193;-40,80083;1,276386;2,189633;1,277699;7,479358;0;0;
10896;-34,70568;-7,654786;-22,42658;-46,83663;1,181692;2,218692;1,364139;8,256302;0;0;
10908;-35,07391;-5,717681;-26,09398;-35,41596;1,11235;2,182571;1,474724;7,960876;0;0;
10922;-35,07391;-5,717681;-26,09398;-35,41596;1,070614;2,128266;1,564628;7,716022;0;0;
10935;-33,54784;-8,241603;-25,4881;-21,35412;0,9954067;2,030851;1,622339;9,607778;0;0;
10949;-32,8679;-5,320863;-24,32628;-41,77741;1,118399;2,067562;1,613557;8,23227;0;0;
10968;-35,22801;-5,146764;-24,63621;-42,04495;1,044819;1,816942;1,463218;7,850021;0;0;
10982;-35,22801;-5,146764;-24,63621;-42,04495;1,013889;1,683594;1,319692;8,348112;0;0;
10996;-31,93332;-5,585822;-26,12643;-31,52069;1,099008;1,755928;1,18819;8,204514;0;0;
11010;-33,1556;-8,393037;-24,2692;-40,69563;1,207591;1,673431;1,500576;8,02386;0;0;
11024;-33,1556;-8,393037;-24,2692;-40,69563;1,333713;1,47857;1,800086;7,063899;0;0;
11037;-33,92962;-4,001274;-26,8608;-48,36024;1,356468;1,623305;1,97595;6,293219;0;0;
11050;-33,28381;-12,03714;-24,51402;-50,29809;1,384216;1,679828;2,060852;5,006787;0;0;
11064;-33,28381;-12,03714;-24,51402;-50,29809;1,383481;1,710634;2,118623;4,419482;0;0;
11078;-31,38609;-8,824682;-24,5709;-65,07356;1,318163;1,615081;1,930126;7,192983;0;0;
11091;-35,71481;-9,847131;-24,14771;-40,51159;1,330554;1,648932;1,542352;6,867738;0;0;
11104;-35,71481;-9,847131;-24,14771;-40,51159;1,358969;1,612484;1,32985;6,644403;0;0;
11117;-34,96979;-6,803537;-23,12657;-41,10025;1,343575;1,47072;1,397887;7,008397;0;0;
11132;-33,40541;-6,682102;-25,83825;-39,87421;1,415842;1,513092;1,406732;6,707016;0;0;
11146;-33,40541;-6,682102;-25,83825;-39,87421;1,417323;1,577796;1,34612;5,037766;0;0;
11160;-34,24784;-7,407974;-25,24752;-46,95124;1,394804;1,516878;1,279941;4,963749;0;0;
11173;-33,91322;-6,637273;-22,33485;-37,46827;1,207927;1,398493;1,413672;4,694206;0;0;
11186;-33,91322;-6,637273;-22,33485;-37,46827;1,092308;1,313061;1,479655;4,421254;0;0;
11199;-33,62819;-10,89649;-25,684;-33,22894;1,088531;1,128671;1,51677;6,447606;0;0;
11213;-32,1853;-5,87933;-23,16072;-41,37832;0,9702835;1,213558;1,417926;7,842503;0;0;
11226;-32,1853;-5,87933;-23,16072;-41,37832;0,7702667;1,329756;1,371924;7,937704;0;0;
11239;-35,61494;-9,353773;-23,11541;-45,0523;1,031667;1,669935;1,428921;8,108937;0;0;
11253;-33,54131;-8,401521;-26,82785;-68,10231;1,055384;1,814566;1,426397;8,961928;0;0;
11267;-33,54131;-8,401521;-26,82785;-68,10231;1,048868;1,97995;1,405553;8,848188;0;0;
11280;-36,77154;-6,311297;-28,63955;-40,97741;1,305968;2,000104;1,400941;7,658679;0;0;
11295;-35,69823;-3,732811;-27,21071;-46,92823;1,435874;1,942569;1,624126;6,561108;0;0;
11307;-35,69823;-3,732811;-27,21071;-46,92823;1,332005;1,853845;1,799224;5,957338;0;0;
11321;-35,69823;-3,732811;-27,21071;-46,92823;1,377921;1,700686;1,826055;5,037714;0;0;
11336;-32,98253;-6,319715;-27,79974;-51,5658;1,39873;1,622001;1,741471;4,415216;0;0;
11350;-31,19572;-6,498812;-26,82775;-38,17019;1,338295;1,695637;1,92185;4,307323;0;0;
11364;-31,19572;-6,498812;-26,82775;-38,17019;1,257448;1,774273;2,057989;4,879292;0;0;
11380;-32,91617;-6,914826;-25,66912;-44,93356;1,257805;1,800784;1,863694;4,903806;0;0;
11393;-33,78004;-9,042762;-24,50128;-42,41316;1,205877;1,778417;1,627302;5,109938;0;0;
11406;-33,78004;-9,042762;-24,50128;-42,41316;1,173466;1,775762;1,43514;5,228213;0;0;
11420;-33,54057;-7,825765;-26,48124;-47,64299;1,159833;1,796929;1,31146;5,026627;0;0;
11433;-35,23929;-4,70716;-26,46676;-55,93088;1,510833;1,605847;1,193774;4,921447;0;0;
11449;-33,90828;-8,396496;-21,43111;4,378576;1,384315;1,643246;1,350251;6,683049;0;0;
11462;-33,90828;-8,396496;-21,43111;4,378576;1,253291;1,701442;1,581281;8,120752;0;0;
11477;-36,39691;-6,436891;-25,12698;-39,49254;1,304477;1,684361;1,664529;8,168292;0;0;
11488;-33,17655;-9,565691;-25,85611;-50,28869;1,592587;1,784539;1,725503;7,669463;0;0;
11501;-33,17655;-9,565691;-25,85611;-50,28869;1,655125;1,97598;1,717338;7,68023;0;0;
11514;-34,00945;-9,009774;-24,26084;-31,64568;1,490391;1,989289;1,577134;8,309101;0;0;
11528;-37,69893;-8,953848;-26,04155;-41,0996;1,61695;1,738928;1,517126;8,512406;0;0;
11542;-37,69893;-8,953848;-26,04155;-41,0996;1,685269;1,633303;1,59663;9,407706;0;0;
11555;-30,97326;-5,315562;-21,90816;-38,06968;1,538071;1,585911;1,632909;9,113433;0;0;
11569;-35,24551;-9,467586;-22,3187;-55,9769;1,379149;1,388035;1,669476;9,442849;0;0;
11583;-35,24551;-9,467586;-22,3187;-55,9769;1,283649;1,166786;1,762186;9,13079;0;0;
11597;-34,53081;-11,70819;-25,04826;9,170312;1,370685;1,108173;1,568227;8,483921;0;0;
11611;-35,95847;-8,93369;-20,60413;-2,71995;1,451381;1,245062;1,473336;8,960769;0;0;
11624;-35,95847;-8,93369;-20,60413;-2,71995;1,610924;1,379565;1,535723;10,07326;0;0;
11637;-35,45372;-6,319125;-23,14571;-27,28602;1,639794;1,365976;1,40209;9,915813;0;0;
11652;-34,71637;-9,742831;-24,46667;-39,61987;1,698368;1,503793;1,53492;9,609845;0;0;
11665;-34,71637;-9,742831;-24,46667;-39,61987;1,681468;1,646795;1,671683;9,027393;0;0;
11678;-31,21285;-6,956167;-24,87979;-40,34677;1,577823;1,641866;1,683295;7,971196;0;0;
11692;-37,16775;-7,831979;-27,2079;-69,725;1,50427;1,574554;1,671551;6,281041;0;0;
11705;-37,16775;-7,831979;-27,2079;-69,725;1,386272;1,573747;1,710186;6,431097;0;0;
11718;-35,05632;-3,834421;-25,65017;-26,06872;1,371132;1,445882;1,67261;7,314109;0;0;
11735;-32,55544;-5,699071;-27,19657;-36,61648;1,337375;1,342921;1,434867;7,198739;0;0;
11749;-31,74919;-7,922544;-25,72886;-40,03357;1,28381;1,56791;1,4754;7,617569;0;0;
11762;-31,74919;-7,922544;-25,72886;-40,03357;1,265748;1,804431;1,542925;7,336262;0;0;
11774;-33,53123;-8,517091;-27,5997;-35,50779;1,143313;1,775852;1,601239;7,914028;0;0;
11788;-34,43415;-6,913936;-26,45884;-44,91788;1,190625;1,710944;1,750199;8,241775;0;0;
11802;-34,43415;-6,913936;-26,45884;-44,91788;1,278458;1,649569;1,755633;7,808321;0;0;
11815;-33,85854;-7,379403;-22,67245;-61,70567;1,3875;1,474564;1,95235;7,976528;0;0;
11826;-33,85854;-7,379403;-22,67245;-61,70567;1,55858;1,217661;2,047073;7,73641;0;0;
11840;-32,5451;-7,453539;-25,66112;-47,47582;1,609456;1,229807;1,914522;8,216439;0;0;
11854;-35,49782;-9,571589;-23,52417;-40,83661;1,639418;1,376412;1,887838;7,662085;0;0;
11869;-34,39227;-10,58288;-21,32462;-39,7848;1,602591;1,549744;1,759783;7,076443;0;0;
11881;-34,39227;-10,58288;-21,32462;-39,7848;1,591851;1,78102;1,580068;6,478538;0;0;
11895;-32,54684;-8,010165;-25,1548;-39,03939;1,537381;1,696756;1,370816;6,213539;0;0;
11908;-34,69349;-6,624377;-25,8584;-32,14737;1,413589;1,574273;1,247482;5,910932;0;0;
11920;-34,69349;-6,624377;-25,8584;-32,14737;1,422969;1,538377;1,060471;6,147499;0;0;
11934;-31,02042;-10,02222;-27,39242;-34,15825;1,505015;1,617832;1,425565;7,518281;0;0;
11949;-34,98474;-2,161536;-23,1714;-50,69048;1,468931;1,748072;1,515405;8,211499;0;0;
11963;-34,98474;-2,161536;-23,1714;-50,69048;1,394541;1,965728;1,547847;8,957009;0;0;
11978;-36,23346;-7,756031;-25,36395;-0,5000176;1,426466;2,061923;1,664804;9,876945;0;0;
11992;-34,27372;-9,020433;-20,04027;-44,17445;1,423115;2,017055;1,94601;9,463913;0;0;
12012;-32,91976;-8,807946;-23,77266;-34,21601;1,326414;2,416895;1,944554;7,168332;0;0;
12027;-32,91976;-8,807946;-23,77266;-34,21601;1,186837;2,567012;2,006214;6,332591;0;0;
12042;-35,24496;-5,533617;-21,54173;-41,08778;1,121209;2,308446;2,122222;5,719408;0;0;
12056;-32,55191;-6,056055;-23,94058;-36,92984;1,143534;2,130274;2,011585;4,638798;0;0;
12071;-36,41951;-12,64699;-24,50391;-37,02968;1,124112;2,387475;1,971598;2,929961;0;0;
12086;-36,41951;-12,64699;-24,50391;-37,02968;1,200478;2,60733;1,766304;2,806521;0;0;
12100;-34,41389;-8,650996;-26,30925;-44,62263;1,232924;2,230227;1,554934;2,825132;0;0;
12113;-36,09863;-8,640594;-24,70672;-10,94267;1,302002;2,056354;1,233036;3,421819;0;0;
12126;-36,09863;-8,640594;-24,70672;-10,94267;1,323364;2,11594;1,151784;4,402139;0;0;
12140;-34,89426;-8,052435;-23,63371;-33,20086;1,290345;2,032531;1,14948;5,072248;0;0;
12153;-33,22886;-8,249236;-28,17912;-44,17061;1,210679;1,752486;1,26927;5,41215;0;0;
12166;-33,22886;-8,249236;-28,17912;-44,17061;1,102999;1,4532;1,442205;5,760383;0;0;
12180;-36,84335;-7,285254;-24,5097;-48,67018;1,401974;1,494868;1,577987;6,190346;0;0;
12194;-32,93219;-4,109398;-25,72417;-68,45299;1,442446;1,668005;1,734161;7,685891;0;0;
12207;-32,93219;-4,109398;-25,72417;-68,45299;1,427001;1,991191;1,930623;9,021754;0;0;
12220;-37,57921;-5,157233;-27,90577;-27,27307;1,593028;2,204293;3,952409;10,4121;0;0;
12235;-42,41103;-1,937017;-24,36142;-29,41774;1,887485;2,413115;5,978312;15,36205;0;0;
12250;-29,24587;-9,216617;12,27703;-28,32145;2,154475;2,635041;8,328163;18,819;0;0;
12265;-29,24587;-9,216617;12,27703;-28,32145;2,512752;2,704719;10,6006;21,00981;0;0;
12278;-24,7822;-11,01193;-23,33502;-41,18781;3,648173;3,037074;11,06524;19,62093;0;0;
12292;-23,43359;-23,66804;-26,39565;-37,67695;4,899057;3,706578;10,97233;18,30454;0;0;
12304;-23,43359;-23,66804;-26,39565;-37,67695;6,194765;4,746288;8,169155;16,64577;0;0;
12317;-58,3046;-23,566;-26,47272;-38,19303;9,154972;8,430142;6,134029;11,34476;1;0;
12332;-48,0121;-61,29479;-25,59427;-32,75214;28,07787;27,42065;3,616619;8,992496;1;0;
12346;-48,0121;-61,29479;-25,59427;-32,75214;46,85106;46,12733;1,532425;7,777397;1;0;
12360;-2,588016;-28,67522;-21,68247;-46,70794;71,26433;53,20256;1,576391;8,396549;1;0;
12373;-2,588016;-28,67522;-21,68247;-46,70794;95,67725;59,65772;1,689691;9,264196;1;0;
12385;-2,588016;-28,67522;-21,68247;-46,70794;118,701;64,25704;1,820758;10,24336;1;0;
12398;137,9936;23,43251;-3,376477;-46,13423;172,2775;61,86898;3,127034;10,03903;1;0;
12411;69,15246;7,169362;-38,25194;-17,05185;167,3671;48,20322;6,225237;11,38859;1;0;
12428;-231,4996;80,82963;-57,22771;-55,7992;186,8289;42,57969;9,883638;15,2112;1;0;
12441;-231,4996;80,82963;-57,22771;-55,7992;196,4018;43,18287;13,31977;18,87282;1;0;
12455;-295,9254;-20,47993;-70,99089;-75,79265;271,0511;44,8521;20,85043;24,19743;1;0;
12469;-130,2381;-35,89808;-115,3096;-67,07151;230,4215;42,36806;28,79088;35,49623;1;0;
12484;-130,2381;-35,89808;-115,3096;-67,07151;238,7239;43,2142;35,28558;45,79172;1;0;
12497;-33,62844;-104,5085;52,77177;-61,38855;235,2884;43,89134;37,40726;49,01888;1;0;
12511;-254,4418;-50,8271;1,629327;-33,33343;218,3051;42,51815;43,09367;46,05688;1;0;
12524;-254,4418;-50,8271;1,629327;-33,33343;132,1119;39,38342;46,39476;41,61935;1;0;
12540;-53,86293;-8,845886;-35,25751;-52,79851;99,09643;31,63993;42,05663;35,31885;1;0;
12554;-26,91902;-1,598711;-22,48993;-38,03584;73,87496;27,46947;33,96306;22,86148;1;0;
12569;-45,06603;-12,91154;-22,31663;-39,63477;60,53995;22,6913;26,9799;12,13866;1;0;
12582;-45,06603;-12,91154;-22,31663;-39,63477;32,74736;14,35681;19,3629;7,233697;1;0;
12595;-39,34127;-3,01979;-25,858;-39,23101;15,52477;7,837288;9,925858;5,344011;1;0;
12609;-44,31038;-5,582411;-24,18466;-27,03928;10,6697;4,721491;2,874454;3,812737;1;0;
12622;-44,31038;-5,582411;-24,18466;-27,03928;9,369552;4,281805;1,791724;3,570857;1;0;
12635;12,72598;-8,396889;-27,69695;-34,26564;11,75253;2,046721;2,488042;4,503018;1;0;
12648;-13,00991;-12,26062;-31,59431;-43,22253;15,42685;1,845516;3,320717;5,54817;1;0;
12663;-13,00991;-12,26062;-31,59431;-43,22253;19,18708;1,857369;4,267076;6,354333;1;0;
12675;-58,18491;-8,940464;-25,55908;-40,31093;19,68084;1,744222;4,309986;7,125115;0;0;
12689;-54,51815;-11,9007;-24,49873;-38,74954;22,08172;1,808664;4,219456;6,355825;0;0;
12702;-54,51815;-11,9007;-24,49873;-38,74954;24,49849;1,88192;3,72714;5,572195;0;0;
12716;-29,12876;-5,868064;-33,56626;-43,87595;21,10319;2,051928;3,495848;5,216259;0;0;
12732;20,42667;-11,07488;-24,86279;-36,57633;22,15021;2,027875;3,042567;4,275404;0;0;
12748;20,42667;-11,07488;-24,86279;-36,57633;25,41141;1,936687;3,152718;3,550227;0;0;
12762;-35,14596;-7,285976;-21,19085;-34,81881;23,04689;1,899714;3,236181;2,911546;0;0;
12776;-49,65264;-10,75076;-26,49142;-37,3641;20,76275;1,795124;3,041743;3,146333;0;0;
12790;-49,65264;-10,75076;-26,49142;-37,3641;17,76863;1,522081;2,406818;3,245575;0;0;
12803;-49,65264;-10,75076;-26,49142;-37,3641;17,47857;1,546425;1,749401;3,239696;0;0;
12817;-27,75911;-5,422761;-24,86986;-38,41411;12,22293;1,664202;1,234399;4,103599;0;0;
12830;-27,75911;-5,422761;-24,86986;-38,41411;7,714066;1,752852;1,086375;4,795238;0;0;
12844;-27,75911;-5,422761;-24,86986;-38,41411;7,505606;1,88676;0,9887118;5,248062;0;0;
12858;-30,55351;-7,43154;-25,48912;-49,61826;5,791572;1,863596;1,146962;5,164633;0;0;
12870;-30,55351;-7,43154;-25,48912;-49,61826;4,077538;1,840432;1,305212;5,081203;0;0;
12884;-30,55351;-7,43154;-25,48912;-49,61826;2,439444;1,788312;1,434343;4,884956;0;0;
12897;-31,91816;-8,309443;-28,17687;-43,3312;2,066429;1,614113;1,639106;5,056845;0;0;
12914;-29,1157;-5,499965;-25,88821;-37,33075;1,852945;1,590644;1,74793;4,153948;0;0;
12928;-33,30928;-10,54352;-24,47455;-44,03307;2,788432;1,510074;1,708043;4,354799;0;0;
12943;-33,30928;-10,54352;-24,47455;-44,03307;3,823962;1,590893;1,631564;5,018215;0;0;
12958;-39,64144;-7,060482;-24,14133;-33,54893;5,131239;1,63992;1,587958;6,023503;0;0;
12972;-34,52506;-8,517582;-27,39571;-40,75906;5,221436;1,709687;1,638544;6,010826;0;0;
12987;-34,52506;-8,517582;-27,39571;-40,75906;5,383868;1,662254;1,570781;5,526436;0;0;
13003;-33,81337;-7,57532;-24,67411;-36,93393;4,749289;1,584668;1,676054;6,47659;0;0;
13018;-33,11192;-8,261105;-26,07702;-45,88598;3,656838;1,43222;1,734933;5,82876;0;0;
13033;-32,7645;-11,08235;-24,04487;5,906316;2,271738;1,587758;1,715541;6,008426;0;0;
13052;-33,25116;-3,871639;-25,86405;-51,95874;1,430754;1,501175;1,757469;5,401856;0;0;
13069;-35,22704;-11,38905;-24,22943;-35,2675;1,305732;1,838282;1,869427;5,320251;0;0;
13082;-35,22704;-11,38905;-24,22943;-35,2675;1,360155;2,116203;1,952863;5,353844;0;0;
13095;-33,2246;-9,13568;-26,44602;-46,08929;1,400786;2,214087;1,932187;4,50613;0;0;
13107;-33,2246;-9,13568;-26,44602;-46,08929;1,337584;2,364384;2,014395;4,960001;0;0;
13120;-36,95173;-6,244878;-25,17316;-39,87059;1,421402;2,117624;1,911898;4,594533;0;0;
13133;-36,33795;-7,171415;-23,27843;-10,04975;1,48298;1,958733;1,699816;5,195069;0;0;
13146;-36,33795;-7,171415;-23,27843;-10,04975;1,484497;1,549056;1,453919;5,890731;0;0;
13160;-34,26714;-11,56807;-24,45995;-46,09644;1,401408;1,442615;1,429417;7,075086;0;0;
13174;-35,82405;-6,068269;-23,52822;-34,61911;1,434477;1,327804;1,273028;6,542064;0;0;
13189;-34,97843;-7,606597;-25,45642;-41,68346;1,444767;1,335722;1,155134;5,415115;0;0;
13204;-34,97843;-7,606597;-25,45642;-41,68346;1,313183;1,403479;1,240552;5,384236;0;0;
13218;-32,98526;-6,880931;-24,97565;-33,49227;1,237991;1,515085;1,266307;4,660428;0;0;
13232;-35,24126;-13,58581;-18,85932;-23,06312;1,313342;1,405036;1,175381;3,813247;0;0;
13245;-35,24126;-13,58581;-18,85932;-23,06312;1,471074;1,30487;1,24014;4,595211;0;0;
13259;-33,40223;-7,257936;-26,65405;-36,13647;1,317701;1,446961;1,375415;4,557805;0;0;
13274;-35,17098;-9,575431;-25,03953;-36,76158;1,276028;1,529896;1,410066;5,045842;0;0;
13287;-35,17098;-9,575431;-25,03953;-36,76158;1,230732;1,630582;1,434388;5,633177;0;0;
13301;-34,86654;-7,050874;-24,13286;-40,53299;1,353918;1,701868;1,571747;5,26017;0;0;
13316;-33,90978;-7,663898;-22,18548;-41,87993;1,264756;1,790329;1,547835;5,030322;0;0;
13330;-35,22842;-7,677735;-24,63308;-42,28813;1,27182;2,055921;1,627421;4,155175;0;0;
13342;-35,22842;-7,677735;-24,63308;-42,28813;1,447426;2,178666;1,551207;3,926029;0;0;
13356;-33,77672;-10,08344;-22,41444;-40,44431;1,533894;2,175868;1,700216;3,376348;0;0;
13370;-35,9169;-2,622463;-30,85705;-35,68435;1,433203;2,145455;1,916691;2,962436;0;0;
13384;-35,9169;-2,622463;-30,85705;-35,68435;1,372074;2,101362;2,112548;2,702873;0;0;
13398;-36,55511;-11,6271;-23,25681;-38,1613;1,325133;1,990049;2,08625;2,86622;0;0;
13410;-32,93432;-9,85967;-24,32875;-39,72112;1,252963;1,810112;1,929153;2,893825;0;0;
13423;-32,93432;-9,85967;-24,32875;-39,72112;1,210899;1,890721;1,761833;2,952783;0;0;
13435;-32,90153;-10,10443;-22,18272;-37,0262;1,250326;1,911996;1,660658;2,800353;0;0;
13448;-37,58245;-8,053821;-25,67967;-46,0124;1,41893;1,833284;1,364494;2,596142;0;0;
13463;-37,58245;-8,053821;-25,67967;-46,0124;1,568041;1,712652;1,013026;2,38833;0;0;
13476;-34,67765;-7,591407;-23,16433;-41,80432;1,503338;1,467496;1,133896;2,149871;0;0;
13490;-33,52954;-8,151346;-23,14706;-37,8724;1,619326;1,446664;1,207004;2,332164;0;0;
13502;-33,52954;-8,151346;-23,14706;-37,8724;1,749613;1,407214;1,277379;2,448191;0;0;
13516;-35,24411;-5,529057;-24,51431;-35,48142;1,702122;1,42081;1,388015;2,592629;0;0;
13530;-33,94567;-7,918016;-24,33768;-37,24402;1,487109;1,323547;1,422285;2,455329;0;0;
13544;-33,94567;-7,918016;-24,33768;-37,24402;1,387955;1,247781;1,390826;2,318037;0;0;
13557;-34,50893;-6,19964;-24,02072;-38,43349;1,44693;1,269546;1,544112;2,335867;0;0;
13571;-35,91516;-5,752274;-27,44092;-40,69441;1,472272;1,166365;1,539871;2,15413;0;0;
13583;-35,91516;-5,752274;-27,44092;-40,69441;1,445117;1,091599;1,419201;1,92884;0;0;
13597;-33,6316;-6,146167;-21,69301;-41,91601;1,45466;1,049061;1,503289;1,917276;0;0;
13610;-35,51493;-9,117651;-26,83049;-43,78883;1,693086;1,304971;1,525788;2,380109;0;0;
13623;-35,51493;-9,117651;-26,83049;-43,78883;1,88266;1,501488;1,485962;2,702421;0;0;
13637;-32,9072;-8,869757;-29,36144;-35,95594;1,94386;1,56307;1,478995;2,622278;0;0;
13649;-34,29311;-6,884114;-23,72538;-43,65255;1,808129;1,570419;1,602878;2,865379;0;0;
13663;-34,29311;-6,884114;-23,72538;-43,65255;1,705058;1,572395;1,645716;3,197806;0;0;
13676;-33,58563;-7,188437;-25,57025;-37,18711;1,645066;1,712758;1,613074;3,193842;0;0;
13690;-35,25303;-7,046137;-23,76712;-38,58898;1,395786;1,497753;1,717784;2,774311;0;0;
13703;-35,25303;-7,046137;-23,76712;-38,58898;1,186606;1,301009;1,809843;2,201553;0;0;
13718;-35,82235;-8,116249;-23,52132;-48,98709;1,222259;1,249541;1,62132;2,720388;0;0;
13732;-36,67034;-6,332006;-25,86991;-35,12254;1,186277;1,248796;1,456317;2,955668;0;0;
13745;-36,67034;-6,332006;-25,86991;-35,12254;1,110194;1,196223;1,4652;3,156165;0;0;
13759;-35,22295;-5,693453;-25,84307;-40,6031;1,221259;1,223458;1,352473;3,608568;0;0;
13773;-30,22719;-9,076875;-22,92929;-42,23708;1,287217;1,418948;1,312129;3,735924;0;0;
13786;-30,22719;-9,076875;-22,92929;-42,23708;1,248203;1,653934;1,350195;3,846947;0;0;
13800;-35,99226;-10,96533;-25,48737;-51,91346;1,212176;1,750564;1,406491;3,587001;0;0;
13814;-35,72741;-6,600316;-24,21115;-37,30215;1,339377;1,966751;1,416909;3,195585;0;0;
13828;-35,72741;-6,600316;-24,21115;-37,30215;1,431787;2,134797;1,400247;2,973536;0;0;
13841;-32,81752;-7,241864;-27,93335;-42,20016;1,31469;2,173045;1,381771;2,654502;0;0;
13854;-33,71941;-6,076615;-22,53143;-40,63107;1,471886;2,167731;1,350639;2,636614;0;0;
13867;-34,88277;-8,65004;-24,94709;-35,78338;1,557774;2,107838;1,132906;2,477305;0;0;
13881;-34,88277;-8,65004;-24,94709;-35,78338;1,608544;2,035893;1,114256;1,899225;0;0;
13896;-36,41669;-9,527625;-26,34851;-32,78529;1,679052;1,915476;1,129519;1,899201;0;0;
13910;-35,88758;-7,399097;-22,65586;-37,99673;1,720391;1,782471;1,171153;1,874562;0;0;
13923;-35,88758;-7,399097;-22,65586;-37,99673;1,695987;1,896858;1,150933;1,752615;0;0;
13936;-34,26283;-9,734043;-23,56224;-38,09798;1,565768;1,896965;1,233248;1,675346;0;0;
13952;-33,72699;-4,375335;-24,26752;-36,45777;1,532316;2,120158;1,273578;1,684242;0;0;
13966;-33,72699;-4,375335;-24,26752;-36,45777;1,490433;2,350955;1,247887;1,74777;0;0;
13977;-36,77634;-10,32327;-24,13851;-39,81126;1,434263;2,254744;1,224659;1,622201;0;0;
13990;-32,54617;-8,498792;-23,95159;-38,11747;1,377981;2,414756;1,140571;1,629373;0;0;
14003;-32,54617;-8,498792;-23,95159;-38,11747;1,417157;2,642703;1,056704;1,679359;0;0;
14017;-30,9491;-9,730148;-26,83072;-36,91746;1,375754;2,399687;1,045906;1,920097;0;0;
14032;-31,21009;-5,699804;-24,51061;-40,35482;1,507134;2,065974;1,105894;1,96557;0;0;
14045;-31,21009;-5,699804;-24,51061;-40,35482;1,634525;1,811978;1,154473;1,969397;0;0;
14064;-33,1458;-8,409985;-21,2475;-37,91871;1,592397;1,702145;1,189653;1,950954;0;0;
14079;-33,43285;-6,678493;-21,6019;-38,32532;1,670211;1,516524;1,423039;1,946041;0;0;
14092;-33,91865;-7,242116;-26,58426;-32,46589;1,604144;1,385243;1,643741;2,149591;0;0;
14105;-33,91865;-7,242116;-26,58426;-32,46589;1,389832;1,320209;1,770789;2,226939;0;0;
14119;-35,234;-3,607339;-23,74606;-33,61666;1,18933;1,387796;1,732239;2,460589;0;0;
14134;-37,56834;-10,43856;-24,70818;-39,16756;1,098818;1,4269;1,829483;2,430596;0;0;
14147;-37,56834;-10,43856;-24,70818;-39,16756;1,034397;1,534027;1,773133;2,33086;0;0;
14161;-33,42051;-6,058589;-24,30713;-41,58614;0,9106114;1,492496;1,639954;2,276383;0;0;
14173;-35,22497;-7,034445;-21,83714;-54,63706;0,8909013;1,553548;1,631588;2,882855;0;0;
14187;-35,22497;-7,034445;-21,83714;-54,63706;0,8509097;1,547863;1,722036;3,425583;0;0;
14201;-33,1298;-2,768141;-22,54006;-44,93469;0,9740969;1,876623;1,894139;3,477576;0;0;
14215;-36,23376;-5,700433;-27,0857;-45,54127;1,188133;1,964214;1,86851;3,566051;0;0;
14229;-35,33919;-7,881996;-26,92257;-41,46322;1,283477;1,963712;1,897534;3,802973;0;0;
14244;-35,33919;-7,881996;-26,92257;-41,46322;1,466382;1,908368;2,045039;3,854737;0;0;
14256;-35,39857;-3,993654;-27,02142;-34,36808;1,627193;1,906607;1,860154;3,266422;0;0;
14271;-35,41955;-8,872966;-26,22469;-38,8793;1,658854;1,782137;1,650065;2,892193;0;0;
14285;-35,41955;-8,872966;-26,22469;-38,8793;1,539724;1,497864;1,573449;3,188384;0;0;
14297;-33,07371;-6,690529;-22,7903;-38,0418;1,534732;1,501917;2,083752;2,924902;0;0;
14311;-32,85166;-8,555821;-28,76862;-44,99469;1,561547;1,537074;2,277907;3,14177;0;0;
14325;-32,85166;-8,555821;-28,76862;-44,99469;1,525276;1,534;2,484878;3,365453;0;0;
14337;-34,44438;-6,076183;-26,56602;-37,41968;1,480001;1,595044;2,493118;3,196214;0;0;
14351;-32,91501;-8,091229;-22,62339;-38,16501;1,480618;1,525629;2,476998;3,050968;0;0;
14364;-32,91501;-8,091229;-22,62339;-38,16501;1,54168;1,478958;2,352443;3,112468;0;0;
14378;-34,90373;-2,205701;-22,92516;-40,13386;1,450483;1,65609;1,957219;3,388248;0;0;
14391;-37,92509;-8,749326;-27,12931;-39,02849;1,673095;1,675609;1,771147;3,247874;0;0;
14406;-37,92509;-8,749326;-27,12931;-39,02849;1,893222;1,747061;1,65516;3,126772;0;0;
14419;-35,0673;-7,042133;-23,78217;-39,19655;1,984936;1,643334;1,772274;2,913626;0;0;
14432;-34,2631;-6,213008;-23,45517;-35,70131;2,157496;1,686004;1,819781;3,162509;0;0;
14444;-34,2631;-6,213008;-23,45517;-35,70131;2,369472;1,737429;1,852268;3,639731;0;0;
14459;-34,25687;-2,044407;-26,21851;-37,65086;2,172573;2,018288;1,751488;3,966324;0;0;
14473;-33,14232;-12,79801;-23,77826;-40,06874;1,867426;2,128784;1,543632;3,974777;0;0;
14488;-36,89729;-5,897728;-25,85384;-38,61317;1,804932;1,988161;1,362879;3,84946;0;0;
14502;-36,89729;-5,897728;-25,85384;-38,61317;1,712696;2,037249;1,342563;3,358872;0;0;
14517;-30,81054;-6,587848;-25,10234;-36,84364;1,606368;1,973633;1,376104;2,861924;0;0;
14533;-36,53984;-7,833648;-23,95132;-40,63629;1,526099;1,831398;1,455522;2,672204;0;0;
14547;-36,53984;-7,833648;-23,95132;-40,63629;1,557135;1,586511;1,399949;2,468564;0;0;
14561;-34,75084;-4,247086;-26,99804;-39,19437;1,603904;1,547809;1,59209;2,695883;0;0;
14577;-34,75084;-4,247086;-26,99804;-39,19437;1,576554;1,665635;1,736631;2,927824;0;0;
14592;-34,7335;-11,80376;-24,94026;-46,25282;1,430421;1,765591;1,702462;3,235112;0;0;
14607;-34,7335;-11,80376;-24,94026;-46,25282;1,467174;1,760198;1,670096;3,373023;0;0;
14619;-33,53038;-11,82406;-22,31959;-36,57307;1,460647;1,875288;1,632298;3,330905;0;0;
14632;-34,87571;-5,893855;-27,82062;-39,01902;1,503323;2,186573;1,499935;3,151718;0;0;
14644;-34,87571;-5,893855;-27,82062;-39,01902;1,417251;2,312201;1,326759;2,911781;0;0;
14659;-35,08244;-8,398346;-24,16654;-43,29265;1,381361;2,395751;1,394065;2,809283;0;0;
14672;-31,67008;-7,010351;-24,37122;-29,91706;1,518277;2,389243;1,634505;2,758901;0;0;
14685;-31,67008;-7,010351;-24,37122;-29,91706;1,712958;2,238177;1,888881;2,588111;0;0;
14699;-35,339;-4,235769;-27,08821;-39,55402;1,67603;2,312359;1,910704;2,65382;0;0;
14714;-35,02968;-4,888067;-25,99819;-34,41218;1,664032;2,161334;2,086507;3,037796;0;0;
14728;-34,63462;-7,165454;-26,09124;-40,11823;1,501942;2,098115;2,214265;3,198397;0;0;
14740;-34,63462;-7,165454;-26,09124;-40,11823;1,350696;2,027836;1,928029;3,47429;0;0;
14754;-34,14859;-5,540587;-23,79262;-45,03958;1,178511;2,063463;1,648995;3,363411;0;0;
14768;-33,35033;-8,543824;-25,73834;-28,02619;1,029938;1,935156;1,641066;3,397544;0;0;
14781;-33,35033;-8,543824;-25,73834;-28,02619;0,9702113;1,637193;1,584108;3,322652;0;0;
14796;-33,88076;-4,032286;-21,1665;-41,13663;0,9803967;1,49771;1,562714;3,31847;0;0;
14809;-34,61806;-10,35142;-22,7584;-35,20413;1,265529;1,606143;1,736601;3,182772;0;0;
14823;-34,61806;-10,35142;-22,7584;-35,20413;1,574916;1,762326;1,930401;3,090977;0;0;
14837;-35,43999;-5,699452;-24,61444;-52,37879;1,620986;1,769773;2,001629;3,418685;0;0;
14850;-33,29707;-8,911767;-22,78667;-44,48293;1,711355;1,82376;1,841238;3,502359;0;0;
14864;-33,29707;-8,911767;-22,78667;-44,48293;1,697786;1,903792;1,630198;3,591905;0;0;
14876;-35,86578;-7,043911;-25,20564;-31,99422;1,515783;1,722923;1,488241;3,500635;0;0;
14890;-29,74214;-10,33958;-23,14303;-37,85753;1,393291;1,753685;1,261559;3,227076;0;0;
14903;-29,74214;-10,33958;-23,14303;-37,85753;1,339999;1,847296;1,038668;2,777543;0;0;
14916;-34,88742;-3,877721;-25,82464;-36,53606;1,654081;2,018337;1,169488;2,426721;0;0;
14930;-36,15711;-6,433887;-25,4954;-45,88143;1,690673;2,207052;1,22544;2,277161;0;0;
14943;-36,15711;-6,433887;-25,4954;-45,88143;1,752928;2,401142;1,30173;2,383897;0;0;
14957;-30,39196;-5,861397;-24,31783;-35,58511;1,81542;2,442419;1,27659;2,679744;0;0;
14971;-32,86121;-2,026913;-23,99603;-35,40272;1,737456;2,459973;1,297167;3,016683;0;0;
14984;-32,86121;-2,026913;-23,99603;-35,40272;1,500529;2,409942;1,343151;3,164717;0;0;
14998;-33,71674;-7,669683;-24,86748;-44,34907;1,365731;2,290698;1,376587;3,392081;0;0;
15011;-33,54586;-7,424681;-23,03161;-38,35501;1,391875;1,962364;1,378294;3,260838;0;0;
15024;-33,54586;-7,424681;-23,03161;-38,35501;1,451604;1,733129;1,408645;3,071918;0;0;
15039;-37,93001;-7,428235;-22,19166;-41,37099;1,314796;1,712521;1,499371;3,037408;0;0;
15055;-34,26877;-7,142669;-24,62841;-45,63453;1,272449;1,696255;1,549234;3,181989;0;0;
15067;-34,26877;-7,142669;-24,62841;-45,63453;1,29386;1,729755;1,517672;3,299387;0;0;
15086;-36,28794;-3,668697;-26,68811;-38,34394;1,171022;1,920459;1,520421;2,838116;0;0;
15099;-34,92392;-6,421352;-22,66192;-22,21872;1,155296;2,247761;1,719791;3,388686;0;0;
15112;-32,19109;-10,08678;-22,8754;-36,32705;1,352119;2,268901;1,874195;3,326412;0;0;
15126;-32,19109;-10,08678;-22,8754;-36,32705;1,458657;2,102048;1,817907;3,441386;0;0;
15138;-33,74294;-5,332142;-25,34297;-27,98147;1,600561;1,966298;1,804506;3,371823;0;0;
15151;-34,49104;-12,04389;-26,47154;-36,70441;1,648299;2,049144;1,765777;3,325029;0;0;
15164;-34,49104;-12,04389;-26,47154;-36,70441;1,641102;1,860126;1,660122;3,687794;0;0;
15178;-33,18947;-5,477943;-25,5765;-36,23769;1,54668;2,134414;1,467257;3,310713;0;0;
15192;-34,89513;-7,663162;-24,57809;-25,63553;1,564991;2,308839;1,398019;3,86785;0;0;
15207;-34,89513;-7,663162;-24,57809;-25,63553;1,713153;2,399388;1,382758;4,452381;0;0;
15220;-34,14868;-6,181768;-23,03975;-37,57576;1,701862;2,322479;1,507082;4,10448;0;0;
15233;-34,26102;-5,482657;-25,73734;-42,33134;1,724061;2,341587;1,559459;4,102358;0;0;
15246;-34,26102;-5,482657;-25,73734;-42,33134;1,694103;2,263855;1,606768;4,269183;0;0;
15259;-33,88423;-9,799195;-25,18448;-38,07911;1,542923;2,112178;1,477815;3,716855;0;0;
15272;-35,24419;-7,627318;-25,23137;-40,13979;1,336381;2,137387;1,418142;3,122414;0;0;
15287;-35,24419;-7,627318;-25,23137;-40,13979;1,119003;2,427423;1,3248;2,709763;0;0;
15300;-35,96286;-7,600002;-23,38486;-44,7746;1,148042;2,540977;1,494698;2,678143;0;0;
15313;-34,52963;-9,485579;-24,05053;-39,14858;1,222173;2,541712;1,475789;2,735404;0;0;
15326;-34,52963;-9,485579;-24,05053;-39,14858;1,281729;2,39896;1,440536;2,978591;0;0;
15340;-35,91822;-5,398337;-22,65359;-43,10119;1,385259;2,218056;1,477628;3,23919;0;0;
15353;-38,27103;-9,994193;-24,87349;-38,51472;1,485118;2,073989;1,555649;3,273487;0;0;
15366;-38,27103;-9,994193;-24,87349;-38,51472;1,52632;2,017915;1,537664;3,35639;0;0;
15380;-36,19834;-6,428004;-26,65102;-32,84566;1,345747;1,840622;1,572441;3,180841;0;0;
15393;-35,25816;-7,427134;-24,08344;-35,68323;1,330458;1,619311;1,608445;3,269203;0;0;
15407;-35,25816;-7,427134;-24,08344;-35,68323;1,407078;1,489892;1,656214;3,487254;0;0;
15420;-34,25059;-6,694696;-23,98844;-28,52127;1,501158;1,577883;1,529651;3,754414;0;0;
15433;-35,72227;-6,674941;-26,94422;-38,86683;1,490418;1,656321;1,488064;3,912199;0;0;
15447;-35,72227;-6,674941;-26,94422;-38,86683;1,496913;1,785988;1,553455;4,206256;0;0;
15461;-36,59851;-7,659448;-27,6797;-38,82235;1,532328;1,832633;1,541853;3,980469;0;0;
15475;-34,06633;-7,417103;-23,78252;-43,68703;1,451978;1,963971;1,57145;3,696389;0;0;
15490;-32,78745;-7,89327;-23,69974;-41,88479;1,338161;1,727531;1,631462;3,439375;0;0;
15504;-32,78745;-7,89327;-23,69974;-41,88479;1,376833;1,673347;1,589166;2,741258;0;0;
15519;-32,55709;-10,36355;-25,26301;-42,7212;1,392419;1,591741;1,474853;2,497452;0;0;
15534;-33,58659;-7,42838;-23,7674;-42,15916;1,492737;1,430481;1,324557;3,240372;0;0;
15549;-32,74616;-9,94951;-26,94071;-42,78859;1,491548;1,418625;1,277253;3,160572;0;0;
15563;-32,74616;-9,94951;-26,94071;-42,78859;1,552698;1,390711;1,206208;3,171392;0;0;
15576;-32,58586;-8,258758;-27,74724;-49,86166;1,597138;1,633564;1,428182;4,093585;0;0;
15590;-32,58586;-8,258758;-27,74724;-49,86166;1,63408;1,806897;1,6861;5,011887;0;0;
15603;-32,58586;-8,258758;-27,74724;-49,86166;1,602725;1,848845;1,995056;5,478978;0;0;
15616;-41,1684;-11,58045;-22,83956;-34,59393;1,903906;2,083916;2,063973;6,104699;0;0;
15631;-41,17114;-23,22735;-24,48602;-39,13878;3,362948;3,632314;1,94224;6,566291;0;0;
15643;-41,17114;-23,22735;-24,48602;-39,13878;4,844162;5,059935;1,675201;6,842588;0;0;
15658;-124,3223;-38,71478;-24,99991;-28,10583;10,11801;10,86356;1,426531;6,364727;1;0;
15672;25,24135;206,6247;-21,29614;-37,26971;45,77785;27,8618;1,207763;6,369289;1;0;
15685;25,24135;206,6247;-21,29614;-37,26971;81,47021;44,94114;1,148443;6,262351;1;0;
15696;-223,6932;-2,953901;-1,067253;-53,36106;180,2047;66,64236;2,195847;6,326494;1;0;
15710;-358,425;-65,01524;-1,112384;-35,87194;252,6435;80,37138;6,470805;9,865819;1;0;
15723;-358,425;-65,01524;-1,112384;-35,87194;323,6053;92,52631;10,70568;14,06758;1;0;
15738;279,356;-52,28525;33,44471;-128,087;404,7127;99,206;20,26159;21,65436;1;0;
15750;-316,6667;-42,45763;-124,1602;-86,21535;390,744;88,46071;28,34243;30,06697;1;0;
15765;-316,6667;-42,45763;-124,1602;-86,21535;344,4583;70,28648;36,33355;38,76013;1;0;
15780;-139,6229;-15,84201;34,66587;-96,72995;284,6442;57,04057;51,89227;45,6989;1;0;
15796;96,05506;-12,95759;-32,39597;0,8174508;300,573;65,16466;59,97179;53,2025;0;0;
15811;1,483683;-52,78217;-62,72076;103,5058;253,7704;52,89254;61,23417;54,57846;0;0;
15830;-26,88145;-38,28;-196,2557;12,12177;183,8956;55,93385;64,42159;55,40446;0;0;
15842;-26,88145;-38,28;-196,2557;12,12177;167,1917;57,12175;68,97382;54,41942;0;0;
15855;-82,99997;-28,07328;-28,63901;-13,3522;155,8566;55,57988;62,35637;50,11652;0;0;
15868;-35,3991;-1,668305;-23,77956;-5,153244;110,8326;40,81446;47,22503;48,64169;0;0;
15884;-35,3991;-1,668305;-23,77956;-5,153244;42,2262;27,63872;37,23688;50,07359;0;0;
15899;-24,25708;-8,575332;-25,51659;-34,51559;22,49777;22,68272;30,97398;39,50643;0;0;
15915;-40,02142;-8,170813;-21,87809;-36,93203;18,48742;15,31567;18,62391;33,51913;0;0;
15929;-38,20568;-5,803664;-24,36936;-20,16669;11,10426;5,045488;8,837291;30,08359;0;0;
15942;-38,20568;-5,803664;-24,36936;-20,16669;10,48777;4,044113;5,682768;23,41314;0;0;
15956;-69,05791;-7,030325;-31,33863;-33,20897;12,62336;3,687432;6,208002;15,47331;0;0;
15969;-30,36995;-8,518401;-23,42643;-29,86881;14,04641;3,441537;7,195064;10,48699;0;0;
15984;-30,36995;-8,518401;-23,42643;-29,86881;14,55095;3,019845;8,501895;10,61922;0;0;
15999;-3,54305;-15,14625;-35,54335;-65,2432;21,5556;2,817267;9,939594;9,107504;0;0;
16013;-57,62619;-5,701758;-25,43674;-34,60546;21,27301;2,8537;11,06795;10,35506;0;0;
16028;-57,62619;-5,701758;-25,43674;-34,60546;21,81694;3,092069;11,20612;10,934;0;0;
16042;-22,35979;-8,405591;-24,50723;-51,84049;24,51991;3,063359;10,61859;9,980224;0;0;
16056;-22,35979;-8,405591;-24,50723;-51,84049;29,14842;3,040397;9,032696;9,121979;0;0;
16071;-36,71906;-0,8096718;-26,45465;-43,75012;26,86452;3,177366;6,756133;8,758545;0;0;
16092;-57,4024;-10,59158;-42,97377;-24,74826;23,6538;2,473118;5,99715;8,587122;0;0;
16106;-57,4024;-10,59158;-42,97377;-24,74826;24,06501;1,887179;4,684491;7,198902;0;0;
16120;-35,35464;-8,141297;-27,32858;-43,51451;19,60816;1,72458;3,965167;6,292971;0;0;
16135;-29,13573;-11,20686;-20,81535;-36,68638;12,85997;1,903959;3,98417;6,828055;0;0;
16150;-28,20898;-9,239737;-24,49138;-31,18864;9,618269;2,10534;3,884069;6,830421;0;0;
16162;-28,20898;-9,239737;-24,49138;-31,18864;8,204081;1,887794;3,047814;6,90801;0;0;
16174;-28,46276;-8,748625;-30,12911;-30,01273;5,179323;1,856942;2,795099;6,174488;0;0;
16188;-20,7716;-9,35917;-24,81629;-27,1427;3,624766;1,962503;2,567249;5,624856;0;0;
16202;-20,7716;-9,35917;-24,81629;-27,1427;4,267556;2,118145;2,721684;6,03729;0;0;
16216;-37,59403;-6,193976;-29,30869;-41,5546;4,54067;1,95439;2,655216;5,438887;0;0;
16232;-31,92708;-6,01801;-26,48483;-45,71774;3,941941;1,844529;2,546188;5,043962;0;0;
16246;-31,92708;-6,01801;-26,48483;-45,71774;3,655417;1,748544;2,220628;4,593414;0;0;
16259;-33,9839;-10,11156;-25,17932;-38,96916;3,343464;1,840929;1,681638;5,317176;0;0;
16273;-33,9839;-10,11156;-25,17932;-38,96916;2,595572;1,954691;1,366565;5,659256;0;0;
16286;-33,9839;-10,11156;-25,17932;-38,96916;1,380519;2,099093;1,273694;6,281518;0;0;
16300;-34,51065;-3,016433;-24,71991;-39,29631;1,804098;2,076838;1,342678;6,242797;0;0;
16313;-38,39342;-6,787169;-20,0422;-33,22632;1,876908;2,071818;1,493729;6,693849;0;0;
16328;-38,39342;-6,787169;-20,0422;-33,22632;1,971032;1,992908;1,583073;6,867688;0;0;
16342;-33,72394;-10,15934;-26,2513;-44,23085;2,21505;1,970683;1,673231;7,919945;0;0;
16355;-37,38589;-7,83256;-24,11513;-30,95223;2,382711;1,808709;1,787124;7,419195;0;0;
16370;-35,22343;-3,616464;-24,82589;-38,3634;2,109177;1,784753;1,795327;6,43819;0;0;
16383;-35,22343;-3,616464;-24,82589;-38,3634;2,050789;1,731294;1,553625;6,074811;0;0;
16399;-28,24599;-5,356645;-22,17683;-45,18089;5,286919;1,646248;1,446061;6,542531;0;0;
16411;-42,08607;-8,752406;-25,46643;-38,40133;5,626683;1,778958;1,247857;4,502218;0;0;
16425;-42,08607;-8,752406;-25,46643;-38,40133;6,33815;1,679377;1,030592;4,234256;0;0;
16438;-32,74482;-8,402695;-22,16817;-30,03657;6,237698;1,628479;1,180094;4,239565;0;0;
16451;-39,23447;-6,228739;-24,48829;-39,14115;6,253901;1,531827;1,250749;4,272652;0;0;
16464;-39,23447;-6,228739;-24,48829;-39,14115;4,451387;1,541191;1,264701;3,565772;0;0;
16478;-36,5934;-7,044303;-26,37384;-50,26928;2,667034;1,410544;1,361303;3,855284;0;0;
16491;-35,85501;-7,645454;-24,70155;-39,6615;2,074866;1,34216;1,374969;4,104824;0;0;
16504;-35,85501;-7,645454;-24,70155;-39,6615;1,625324;1,304173;1,306292;4,062206;0;0;
16519;-32,19237;-7,047697;-24,86363;-37,53847;1,723815;1,275121;1,200404;4,002163;0;0;
16534;-35,6084;-4,8563;-25,48;-41,57903;1,713416;1,222691;1,119259;4,717389;0;0;
16549;-32,53598;-6,371301;-23,11081;-44,71679;1,689763;1,396653;1,110315;6,400561;0;0;
16562;-32,53598;-6,371301;-23,11081;-44,71679;1,774266;1,564895;1,252128;6,535831;0;0;
16576;-34,48333;-6,073544;-23,53764;-45,03167;1,642759;1,556598;1,395991;6,925592;0;0;
16591;-33,54289;-5,706728;-24,92243;-38,05735;1,833605;1,64522;1,310366;6,791027;0;0;
16605;-33,54289;-5,706728;-24,92243;-38,05735;1,974008;1,763278;1,266434;6,756332;0;0;
16618;-35,26208;-3,261497;-23,23925;-42,74389;1,748276;1,93703;1,286492;5,802457;0;0;
16631;-32,92101;-6,073288;-25,61327;-42,75353;1,643804;1,980169;1,303202;4,434969;0;0;
16643;-32,92101;-6,073288;-25,61327;-42,75353;1,596295;2,051146;1,344541;3,37038;0;0;
16657;-34,69228;-4,1559;-29,30274;-44,72534;1,497365;2,087573;1,338306;2,763415;0;0;
16670;-33,58414;-6,678258;-25,934;-38,91263;1,2462;2,158532;1,436939;2,587349;0;0;
16685;-33,58414;-6,678258;-25,934;-38,91263;1,18089;2,112202;1,538248;2,645935;0;0;
16698;-32,18283;-6,102276;-24,94069;-48,38816;1,220407;2,016868;1,447532;2,86055;0;0;
16710;-32,90355;-6,055797;-22,66638;-43,02473;1,26802;1,713621;1,471076;2,894261;0;0;
16724;-32,90355;-6,055797;-22,66638;-43,02473;1,1997;1,444325;1,536007;2,857826;0;0;
16738;-31,60733;-8,959691;-26,35756;-42,04928;1,246535;1,517228;1,47736;2,39939;0;0;
16751;-38,05175;-7,415279;-26,39528;-29,8194;1,448713;1,547078;1,544901;2,646618;0;0;
16763;-38,05175;-7,415279;-26,39528;-29,8194;1,633083;1,620221;1,627536;2,969948;0;0;
16776;-32,93604;-5,086442;-24,87179;-38,08893;1,518318;1,69397;1,69557;2,991876;0;0;
16790;-32,93604;-5,086442;-24,87179;-38,08893;1,408439;1,866524;1,690907;3,285047;0;0;
16803;-32,93604;-5,086442;-24,87179;-38,08893;1,440715;1,987363;1,72583;3,765558;0;0;
16814;-36,26623;-11,44164;-26,19751;-36,31183;1,357748;1,794702;1,822539;4,833715;0;0;
16828;-31,95019;-4,59805;-25,23568;-43,59393;1,546855;1,902934;1,923264;4,668975;0;0;
16840;-31,95019;-4,59805;-25,23568;-43,59393;1,799315;2,110391;1,938941;4,371437;0;0;
16854;-40,8717;-10,70617;-21,81471;-36,93488;4,489784;2,052957;1,879855;4,780575;0;0;
16869;-43,4028;-7,539187;-22,97522;-42,97484;6,439922;2,000713;1,707592;4,498785;0;0;
16882;-43,4028;-7,539187;-22,97522;-42,97484;8,388762;1,853605;1,552099;3,468493;0;0;
16895;-34,65617;-5,293532;-27,33575;-38,90599;8,59175;1,990763;1,423899;3,368375;0;0;
16909;-33,89105;-8,734191;-23,40357;-40,03792;8,273525;1,816573;1,391734;4,444201;0;0;
16922;-33,89105;-8,734191;-23,40357;-40,03792;7,354573;1,74519;1,416156;5,063148;0;0;
16935;-31,5659;-5,339217;-23,86751;-38,10507;3,994676;1,745775;1,513495;4,874008;0;0;
16949;-33,74871;-3,367522;-21,09339;-43,70837;2,078484;1,821951;1,562392;5,052106;0;0;
16962;-33,74871;-3,367522;-21,09339;-43,70837;1,335717;1,90093;1,545434;5,097335;0;0;
16974;-35,84388;-6,435877;-25,37519;-43,57548;1,215145;2,017275;1,491354;5,610246;0;0;
16988;-35,84388;-6,435877;-25,37519;-43,57548;1,129219;2,175557;1,391188;5,078185;0;0;
17003;-35,84388;-6,435877;-25,37519;-43,57548;1,119745;2,289178;1,333493;4,538304;0;0;
17016;-36,59385;-8,273175;-23,53008;-38,26483;1,118381;2,189421;1,388656;4,512204;0;0;
17031;-32,55883;-5,375286;-25,37789;-37,18563;1,269021;2,135159;1,353827;4,85108;0;0;
17044;-32,55883;-5,375286;-25,37789;-37,18563;1,433964;2,114127;1,236625;4,764317;0;0;
17056;-36,31664;-4,961513;-23,24775;-37,16699;1,500478;1,935072;1,215395;4,441211;0;0;
17071;-32,03668;-4,714743;-24,67287;-43,13097;1,506495;1,716542;1,21442;3,947779;0;0;
17089;-35,44055;-8,756499;-22,19518;-37,93593;1,585631;1,596522;1,266656;3,926933;0;0;
17102;-35,44055;-8,756499;-22,19518;-37,93593;1,597171;1,723131;1,313058;4,022639;0;0;
17119;-32,90667;-4,912076;-27,08489;-38,93259;1,564302;1,725223;1,320042;3,242507;0;0;
17133;-37,1349;-4,793335;-22,7999;-39,12549;1,474461;1,870889;1,421675;2,343527;0;0;
17147;-37,1349;-4,793335;-22,7999;-39,12549;1,414914;2,094262;1,445101;2,212881;0;0;
17161;-31,55642;-8,19988;-25,0533;-38,06898;1,38781;2,079125;1,41004;3,053329;0;0;
17172;-35,38649;-5,442827;-24,50239;-40,4287;1,276963;1,826598;1,322215;3,020593;0;0;
17185;-35,38649;-5,442827;-24,50239;-40,4287;1,223181;1,598595;1,28204;3,16501;0;0;
17199;-34,6172;-7,382791;-25,0003;-44,26304;1,228558;1,602283;1,394804;3,264412;0;0;
17213;-34,56978;-6,75946;-23,76722;-41,62654;1,179652;1,553969;1,496229;3,641022;0;0;
17225;-34,56978;-6,75946;-23,76722;-41,62654;1,060472;1,527614;1,602236;3,778274;0;0;
17238;-34,67132;-9,623759;-26,38762;-38,43693;1,052128;1,58704;1,618626;2,83057;0;0;
17252;-32,55229;-3,865638;-23,25329;-38,25699;1,223341;1,783019;1,652586;2,822594;0;0;
17266;-32,55229;-3,865638;-23,25329;-38,25699;1,368451;1,875261;1,607264;2,868575;0;0;
17278;-36,48302;-6,29798;-24,68711;-38,56711;1,38066;1,819207;1,595102;3,675889;0;0;
17292;-35,98458;-7,852696;-25,60506;-36,8018;1,37586;1,54793;1,477288;3,372239;0;0;
17305;-35,98458;-7,852696;-25,60506;-36,8018;1,392329;1,307892;1,398793;3,105938;0;0;
17318;-34,71685;-4,83394;-25,75881;-41,98236;1,379803;1,28362;1,370272;3,128472;0;0;
17333;-35,93186;-5,70455;-23,88968;-39,42705;1,230203;1,255299;1,3989;3,364213;0;0;
17346;-35,93186;-5,70455;-23,88968;-39,42705;1,150587;1,277885;1,389111;2,873537;0;0;
17359;-33,05203;-4,393067;-23,86736;-39,60722;1,189407;1,395148;1,411611;2,848218;0;0;
17372;-31,56579;-4,523309;-27,97714;-37,91222;1,315075;1,570787;1,49954;2,840544;0;0;
17384;-31,56579;-4,523309;-27,97714;-37,91222;1,386893;1,651831;1,617459;2,791941;0;0;
17399;-36,13446;-6,647215;-23,02323;-43,54801;1,334529;1,644588;1,706713;3,048881;0;0;
17412;-34,37653;-6,157912;-23,90982;-39,30106;1,438743;1,593118;1,594059;2,775359;0;0;
17425;-34,37653;-6,157912;-23,90982;-39,30106;1,439294;1,500202;1,46695;2,560089;0;0;
17438;-36,71047;-8,546123;-24,86929;-41,29552;1,52633;1,435187;1,37464;3,526232;0;0;
17451;-36,95406;-6,431017;-26,97044;-45,63447;1,549099;1,38561;1,133551;3,505961;0;0;
17466;-36,95406;-6,431017;-26,97044;-45,63447;1,643265;1,272552;0,8333471;3,492128;0;0;
17483;-31,83297;-7,054053;-25,49247;-42,59894;1,683943;1,444421;0,9350373;3,714787;0;0;
17496;-35,29164;-7,535467;-25,45429;-39,65221;1,76534;1,586259;1,00339;3,805262;0;0;
17510;-33,80074;-7,312279;-28,17511;-33,96849;1,68289;1,555939;1,146153;3,530642;0;0;
17524;-33,80074;-7,312279;-28,17511;-33,96849;1,660947;1,495812;1,393476;3,498682;0;0;
17538;-34,27067;-8,838686;-23,1632;-37,44607;1,671311;1,651227;1,453494;3,406209;0;0;
17551;-26,91365;-11,07122;-24,52278;-36,5766;1,856785;1,850884;1,47412;3,216644;0;0;
17565;-26,91365;-11,07122;-24,52278;-36,5766;2,056788;2,000015;1,601215;3,378207;0;0;
17579;-39,04357;-6,783518;-24,63422;-36,13554;3,807329;3,747375;1,619671;3,970434;0;0;
17593;-32,80068;-4,817255;-24,2624;-39,94133;5,853776;4,632218;1,393262;3,498363;0;0;
17607;-32,80068;-4,817255;-24,2624;-39,94133;7,849142;5,487735;1,192729;3,234318;0;0;
17622;6,661925;118,8137;-23,0126;-37,92937;13,6238;12,3705;1,308192;3,345026;0;0;
17635;-54,7911;115,7452;-25,51755;-36,76992;35,85657;21,4714;1,286941;3,245305;0;0;
17650;-96,29073;-106,2779;-24,51044;-39,45258;53,15884;33,14085;1,191867;3,551299;0;0;
17665;-96,29073;-106,2779;-24,51044;-39,45258;69,56721;44,80781;1,072257;3,07046;0;0;
17677;454,0504;-58,61046;-23,14536;-36,46168;121,6733;52,63847;1,243259;3,401767;0;0;
17692;-773,9;81,07531;-22,90854;-38,28728;171,4349;64,82855;1,231936;3,072186;0;0;
17705;-773,9;81,07531;-22,90854;-38,28728;209,133;68,79609;1,114817;2,83894;0;0;
17719;-55,30079;-49,17974;-22,74895;-34,70537;296,0427;78,85844;1,172959;2,864035;0;0;
17735;-32,88049;53,14179;-23,72841;-36,74813;332,5824;77,06586;1,270364;2,661806;1;0;
17748;-118,4732;-62,65412;-25,06571;-45,40948;397,2178;75,62316;1,463346;3,085401;1;0;
17762;-118,4732;-62,65412;-25,06571;-45,40948;446,6698;81,59913;1,487296;3,652038;1;0;
17774;345,118;14,30874;-29,07827;-49,28708;481,1341;80,17248;2,00592;4,795902;1;0;
17789;345,118;14,30874;-29,07827;-49,28708;482,5661;76,52856;2,501322;5,917738;1;0;
17805;10,17671;63,88162;81,98343;-48,28773;365,7084;80,08203;16,25997;13,79208;1;0;
17820;70,82237;-16,52011;-128,6351;-33,66512;314,158;68,26473;27,29259;16,76757;1;0;
17833;-1872,377;-57,47157;-68,84917;-61,6739;306,3112;57,2142;41,57519;21,60282;1;0;
17847;-1872,377;-57,47157;-68,84917;-61,6739;287,6748;47,22042;55,44587;26,25034;1;0;
17862;-58,7383;-2,699534;-180,3561;-133,7495;235,2633;26,00026;73,58655;27,47345;0;0;
17877;-14,34046;-7,400054;-33,95335;26,87661;216,5727;17,06174;75,77512;29,94256;0;0;
17898;-29,3629;-5,362007;-267,3701;-134,7273;196,8063;10,03476;85,16851;31,95925;0;0;
17910;-38,27277;-6,88394;192,8279;-11,42187;153,0233;8,244132;96,75636;37,22998;0;0;
17925;-38,27277;-6,88394;192,8279;-11,42187;85,88958;5,256936;102,6153;41,9482;0;0;
17940;-31,80884;-9,557167;59,01781;-31,53337;13,80033;2,39177;89,04211;44,88029;0;0;
17957;-10,82363;-2,192767;-108,2217;-34,37804;9,638048;2,031451;87,2423;48,47449;0;0;
17971;-48,82856;-8,48762;-37,62199;-47,58269;9,47498;2,069874;85,60302;47,61369;0;0;
17984;-48,82856;-8,48762;-37,62199;-47,58269;10,32349;1,841527;74,24129;46,1743;0;0;
17999;22,99933;-7,580872;-11,48384;-12,75673;18,14706;1,651249;54,73624;36,79441;0;0;
18013;-25,40199;-7,423288;-27,67052;-38,60558;23,5548;1,637012;38,65136;27,09117;0;0;
18029;-43,71648;-8,399867;-22,29667;-49,42108;26,54718;1,538443;26,21239;21,85141;0;0;
18044;-43,71648;-8,399867;-22,29667;-49,42108;27,33813;1,456023;14,93127;13,24391;0;0;
18058;-31,69299;-8,939178;-23,37033;-15,50597;28,39803;1,434143;5,718223;11,75868;0;0;
18078;-23,2224;-6,30117;-24,86809;-16,43806;23,62959;1,479517;2,530462;10,45096;0;0;
18093;-58,13945;-8,40442;-25,5082;-26,73899;18,30029;1,432089;1,802696;9,958511;0;0;
18106;-58,13945;-8,40442;-25,5082;-26,73899;15,93415;1,252078;1,628491;10,94487;0;0;
18119;-36,59046;-5,901886;-26,12489;-39,85636;12,85675;1,275524;1,91104;11,61662;0;0;
18133;-31,45526;-8,107034;-20,00756;-43,60049;8,254761;1,325362;2,393579;8,811932;0;0;
18146;-31,45526;-8,107034;-20,00756;-43,60049;7,875395;1,477412;2,877473;6,767029;0;0;
18160;-24,5069;-9,181133;-26,02815;-26,37576;7,37692;1,55267;2,892537;8,248904;0;0;
18173;-24,5069;-9,181133;-26,02815;-26,37576;5,707596;1,719951;2,966042;9,891227;0;0;
18186;-24,5069;-9,181133;-26,02815;-26,37576;3,921444;1,774465;2,923957;10,92799;0;0;
18200;-37,61989;-7,185556;-24,53951;-36,84215;4,06323;1,756397;2,548019;11,97404;0;0;
18215;-29,56663;-9,012129;-20,91749;-40,09069;4,053863;1,612648;2,200468;11,43164;0;0;
18229;-29,56663;-9,012129;-20,91749;-40,09069;4,092848;1,448288;2,060423;10,7331;0;0;
18242;-29,56663;-9,012129;-20,91749;-40,09069;3,60772;1,402423;2,063169;8,084945;0;0;
18256;-33,27981;-10,08467;-21,25489;-36,65758;3,064233;1,666317;2,048823;7,53046;0;0;
18269;-31,20446;-7,55877;-25,12096;-39,2198;2,03691;1,688483;1,962235;5,600966;0;0;
18283;-31,20446;-7,55877;-25,12096;-39,2198;1,777063;1,618289;1,893897;6,361155;0;0;
18297;-32,38112;-1,570597;-28,72648;-39,72724;1,607647;1,678416;1,961705;8,092362;0;0;
18310;-34,37297;-9,512621;-25,53684;-11,79486;1,432004;1,692751;1,831708;9,009485;0;0;
18325;-34,37297;-9,512621;-25,53684;-11,79486;1,1485;1,540516;1,71793;8,952626;0;0;
18338;-35,2791;-5,07304;-24,86576;-40,3729;1,156168;1,490493;1,564481;7,839077;0;0;
18351;-34,38624;-9,202126;-24,49906;-40,23082;1,1248;1,549403;1,542233;6,630992;0;0;
18364;-34,38624;-9,202126;-24,49906;-40,23082;1,085419;1,620023;1,481939;5,212134;0;0;
18375;-31,94561;-5,346835;-25,21834;-40,78836;1,150931;1,590981;1,297356;4,220104;0;0;
18388;-35,9699;-9,556129;-19,11387;-16,88851;1,171459;1,684616;1,396667;4,668699;0;0;
18402;-35,9699;-9,556129;-19,11387;-16,88851;1,202645;1,763796;1,549406;5,29093;0;0;
18417;-32,55178;-6,094451;-27,72141;-63,00005;1,11253;1,842695;1,539739;5,458437;0;0;
18430;-34,771;-7,547251;-24,14156;-43,10505;1,1685;1,862007;1,483706;6,365186;0;0;
18443;-34,771;-7,547251;-24,14156;-43,10505;1,199902;1,811872;1,533486;7,21014;0;0;
18456;-36,96992;-3,11167;-26,5788;-47,62833;1,123582;1,880539;1,385779;7,749158;0;0;
18471;-33,03563;-9,250724;-26,97583;-70,99359;1,143234;1,980859;1,348311;9,296397;0;0;
18484;-33,03563;-9,250724;-26,97583;-70,99359;1,206491;2,031185;1,426636;10,92833;0;0;
18498;-33,9836;-3,057178;-25,5601;-40,23975;1,158571;1,960227;1,313432;9,468264;0;0;
18512;-32,86124;-7,577903;-21,90904;-41,47573;1,302797;2,041229;1,433342;8,961977;0;0;
18526;-32,86124;-7,577903;-21,90904;-41,47573;1,535826;2,242784;1,645025;9,369855;0;0;
18540;-31,58628;-10,19648;-26,83386;-42,74879;1,604836;2,096911;1,783369;9,429365;0;0;
18555;-31,58628;-10,19648;-26,83386;-42,74879;1,71697;1,964376;1,825218;8,195243;0;0;
18569;-32,74914;-6,358076;-26,15615;-36,80695;1,778179;1,952038;1,706955;6,32728;0;0;
18582;-32,74914;-6,358076;-26,15615;-36,80695;1,744094;1,830689;1,6984;5,751825;0;0;
18596;-33,47334;-8,523965;-24,94751;-40,61838;1,575372;1,754607;1,598214;5,345179;0;0;
18610;-33,1614;-4,442739;-24,51126;-35,90055;1,539657;1,716373;1,60646;4,730965;0;0;
18624;-33,1614;-4,442739;-24,51126;-35,90055;1,457284;1,671796;1,514364;2,957746;0;0;
18637;-36,23047;-11,20397;-24,51256;-42,51034;1,291992;1,694886;1,37076;1,719752;0;0;
18652;-32,44297;-5,88871;-22,24669;-17,87678;1,270234;1,655218;1,429645;3,156821;0;0;
18665;-32,44297;-5,88871;-22,24669;-17,87678;1,235676;1,600094;1,492243;4,531822;0;0;
18678;-32,80222;-7,524572;-27,37863;-40,3889;1,256699;1,642802;1,466241;4,711038;0;0;
18693;-30,40542;-4,702745;-23,51216;-39,70957;1,255873;1,535791;1,455048;5,657528;0;0;
18706;-30,40542;-4,702745;-23,51216;-39,70957;1,332425;1,443218;1,565161;6,602341;0;0;
18721;-35,21288;-6,776901;-22,40895;-34,0152;1,651664;1,500705;1,847917;5,864755;0;0;
18736;-31,09263;-6,421647;-30,82236;-45,70501;1,680536;1,619983;1,977551;4,402398;0;0;
18749;-31,09263;-6,421647;-30,82236;-45,70501;1,708111;1,696098;2,114182;3,728621;0;0;
18763;-31,09263;-6,421647;-30,82236;-45,70501;1,671;1,921868;2,326676;3,536099;0;0;
18775;-33,59711;-7,42666;-24,32002;-39,03323;1,821668;2,053928;2,450928;2,573002;0;0;
18790;-32,1681;-8,845681;-25,98418;-41,39785;1,624491;2,063836;2,375819;1,846107;0;0;
18805;-32,1681;-8,845681;-25,98418;-41,39785;1,665489;1,894606;2,154043;1,699569;0;0;
18818;-35,73901;-5,905452;-24,14176;-41,47462;1,758834;1,793882;1,831894;1,970675;0;0;
18830;-33,75319;-9,608002;-24,21835;-30,81689;1,887139;1,701667;1,531583;2,221125;0;0;
18842;-33,75319;-9,608002;-24,21835;-30,81689;1,928368;1,690872;1,147672;2,593224;0;0;
18857;-31,07867;-7,425194;-23,02824;-38,77983;1,847367;1,985556;1,078744;2,560544;0;0;
18873;-36,18924;-7,667984;-23,65483;-38,27714;1,852408;1,990934;1,02589;2,611149;0;0;
18889;-31,84543;-8,049698;-26,14686;-38,12329;5,00087;1,936483;1,062707;2,9354;0;0;
18904;-31,84543;-8,049698;-26,14686;-38,12329;8,20013;1,70205;1,143417;2,920092;0;0;
18921;-36,56837;-6,153429;-26,09833;-43,06294;9,727758;1,725671;1,193031;2,602615;0;0;
18938;-33,40297;-3,468624;-23,78599;-44,70921;9,5465;1,979805;1,226406;2,33172;0;0;
18955;-35,27992;-9,275766;-27,05513;-36,6594;9,543583;1,757609;1,182961;2,417318;0;0;
18971;-33,4961;-10,09435;-23,1585;-39,65818;7,973215;1,890793;1,16356;2,42577;0;0;
18989;-35,25536;-8,936132;-25,3644;-38,36093;4,802262;1,932229;1,228964;2,275975;0;0;
19006;-35,25536;-8,936132;-25,3644;-38,36093;2,357344;1,928714;1,315309;2,244171;0;0;
19022;-33,9239;-8,574912;-24,82285;-39,50465;1,756423;1,947591;1,426836;2,402487;0;0;
19038;-30,43731;-6,763578;-27,6018;-39,39177;1,773797;1,701768;1,576162;2,389605;0;0;
19056;-36,034;-7,646937;-27,49984;-41,96081;1,723567;1,726125;1,617623;2,325859;0;0;
19072;-35,58395;-7,045764;-22,79155;-35,99053;1,336747;1,589611;1,69747;2,932957;0;0;
19085;-35,58395;-7,045764;-22,79155;-35,99053;1,201684;1,566237;1,771365;3,488992;0;0;
19105;-34,46614;-11,80967;-25,2283;-41,45124;1,147972;1,612458;1,91748;3,458629;0;0;
19118;-32,56548;-5,707072;-22,03839;-46,25071;1,148047;1,921066;1,844057;3,349737;0;0;
19131;-35,60859;-9,56591;-23,49734;-41,47033;1,079733;2,010115;1,653867;3,321294;0;0;
19143;-35,60859;-9,56591;-23,49734;-41,47033;1,154791;2,072631;1,508095;3,098534;0;0;
19157;-33,73372;-4,03285;-24,12267;-42,99469;1,137758;2,237461;1,26665;2,591642;0;0;
19171;-34,88747;-3,974413;-25,85728;-38,11497;1,100256;2,338288;1,066131;2,428905;0;0;
19184;-34,88747;-3,974413;-25,85728;-38,11497;1,203664;2,109802;0,8656873;2,630508;0;0;
19198;-33,65011;-2,29092;-23,9186;-40,35745;1,203979;2,02996;1,026242;2,601637;0;0;
19211;-36,61005;-7,914704;-24,60695;-37,5254;1,150106;1,951077;1,036974;2,516688;0;0;
19224;-36,61005;-7,914704;-24,60695;-37,5254;1,091813;2,010645;1,053953;2,42774;0;0;
19237;-34,87542;-3,927365;-23,6934;-38,60125;1,199331;2,16696;1,159393;2,409523;0;0;
19250;-35,38698;-11,58325;-25,46796;-38,08209;1,195014;2,278307;1,364754;2,304494;0;0;
19264;-35,38698;-11,58325;-25,46796;-38,08209;1,176646;2,436771;1,495901;2,308035;0;0;
19278;-35,73312;-6,660374;-25,24318;-37,12523;1,175908;2,511003;1,548603;2,55532;0;0;
19291;-33,90105;-5,700254;-27,79272;-34,89153;1,054628;2,463127;1,697679;2,651253;0;0;
19305;-33,90105;-5,700254;-27,79272;-34,89153;0,8485727;2,444844;1,759344;2,669279;0;0;
19318;-35,71852;-10,60952;-24,5135;-37,59007;1,132203;2,138985;1,817368;2,213151;0;0;
19334;-33,59024;-1,647716;-23,79429;-41,60812;1,130818;2,224056;1,783598;2,468689;0;0;
19348;-35,00274;-5,887528;-30,05235;-37,94239;1,251411;1,911445;1,84983;2,344122;0;0;
19360;-35,00274;-5,887528;-30,05235;-37,94239;1,372761;1,938729;1,820549;2,344778;0;0;
19372;-32,73688;-7,184537;-24,6877;-43,30854;1,547859;2,073882;1,637693;3,291203;0;0;
19386;-32,73688;-7,184537;-24,6877;-43,30854;1,542616;2,17026;1,469946;4,128631;0;0;
19401;-35,60905;-6,298324;-24,12218;-39,66097;1,39485;1,831664;1,392619;4,029115;0;0;
19415;-35,99063;-3,883917;-23,05161;-40,07544;1,488689;1,664912;1,343683;3,559988;0;0;
19430;-37,30856;-10,0909;-23,96847;-53,01442;1,569932;1,686191;1,285338;3,864232;0;0;
19443;-37,30856;-10,0909;-23,96847;-53,01442;1,629807;1,653465;1,228593;4,146754;0;0;
19457;-34,68706;-8,768582;-26,84621;-39,32743;1,593326;1,521696;1,333045;3,292524;0;0;
19471;-34,68706;-8,768582;-26,84621;-39,32743;1,601087;1,525951;1,455431;2,512231;0;0;
19483;-34,68706;-8,768582;-26,84621;-39,32743;1,574779;1,680815;1,469645;2,675517;0;0;
19497;-30,57094;-5,795938;-23,90249;-44,03208;1,512195;1,75209;1,450059;2,621783;0;0;
19509;-33,4184;-8,769745;-26,22263;-42,49809;1,346178;1,738368;1,365649;2,87691;0;0;
19524;-33,4184;-8,769745;-26,22263;-42,49809;1,344916;1,776119;1,318594;3,16733;0;0;
19538;-33,91922;-9,354475;-27,39255;-40,87242;1,378776;1,750831;1,276516;3,292749;0;0;
19552;-33,72825;-11,24891;-24,14132;-41,30316;1,443184;1,827287;1,304632;3,416989;0;0;
19565;-33,72825;-11,24891;-24,14132;-41,30316;1,508737;1,744181;1,335539;3,57563;0;0;
19579;-37,56001;-6,564776;-23,17437;-34,37098;1,390768;1,885176;1,562035;4,614161;0;0;
