Time;EMG1;EMG2;EMG3;EMG4;
20;-33,04371;-7,530706;-25,53234;-38,93085;
44;-33,92477;-6,25496;-18,05942;-39,61288;
64;-32,98007;-4,460078;-24,75511;-42,59148;
84;-36,24101;-10,17197;-24,87057;-39,37727;
101;-35,4967;-4,953571;-20,07186;-38,4499;
119;-33,52666;-7,357784;-28,73497;-35,02081;
138;-35,74094;-7,411529;-26,88239;-39,57496;
158;-34,45796;-5,081181;-26,86218;-27,73163;
182;-33,2808;-7,273598;-24,48829;-45,06178;
204;-33,27378;-5,696833;-24,76066;-54,32895;
225;-34,17517;-2,925058;-27,91806;-39,2876;
246;-34,52682;-5,332632;-23,62028;-48,85994;
264;-34,52682;-5,332632;-23,62028;-48,85994;
283;-35,25154;-6,601031;-27,34151;-50,9707;
304;-31,44279;-4,282728;-22,58007;-33,16571;
424;-32,5907;-10,54843;-23,26513;-21,89661;
447;-34,85931;-3,874487;-19,84513;-42,53807;
469;-34,39005;-5,714952;-24,30274;-52,97737;
490;-31,40287;-8,389071;-29,83945;-9,593945;
508;-34,25243;-4,701968;-23,43449;-7,801284;
527;-35,21941;-8,814374;-24,36955;-31,84706;
545;-35,23881;-5,330984;-14,60502;-27,10905;
565;-31,56368;-7,774469;-23,0254;-12,90029;
589;-37,12951;-4,966941;-18,09406;-20,50474;
608;-30,93789;-2,15017;-23,93655;-32,65817;
628;-32,00594;-6,762855;-3,364975;-22,91746;
646;-35,44591;-3,027438;-22,36759;-63,03726;
665;-33,73034;-7,290407;-8,96592;-66,36931;
681;-33,73034;-7,290407;-8,96592;-66,36931;
701;-36,00932;-5,876626;5,103522;-22,41482;
723;-35,26416;-8,403061;-45,28159;-46,1389;
743;-32,19298;-1,254343;-82,42392;-48,75926;
763;-37,95418;-7,386908;-37,82694;-32,88942;
782;-35,36434;-3,200396;-80,98024;-31,48395;
802;-33,78398;-8,692886;-13,20224;-28,88943;
821;-32,1517;-7,353296;-18,33076;-34,61253;
838;-34,90438;-7,290184;-1,57134;-37,54971;
857;-32,21241;-9,994623;-56,06056;-45,4784;
876;-35,89186;-7,998821;-18,28268;-40,47875;
893;-30,25184;-5,316225;-42,53318;-44,59801;
912;-34,31908;-5,026209;-34,80532;-48,0994;
933;-32,81439;-6,373044;-33,43382;-39,96879;
950;-33,39789;-5,04751;-31,60949;-37,2893;
969;-31,52686;-9,72567;-18,27296;-37,43686;
987;-34,90928;-9,184135;-31,74746;-35,67083;
1005;-32,72176;-5,56135;-12,38129;-47,46989;
1023;-32,72176;-5,56135;-12,38129;-47,46989;
1041;-33,98496;-5,938673;-31,08995;-29,46083;
1058;-33,28932;-6,55453;-17,79317;-51,047;
1073;-34,08237;-6,421663;-28,37257;-36,08068;
1091;-33,22931;-8,043586;-20,86169;-39,40865;
1110;-34,18323;-6,929012;-24,98084;-44,86155;
1128;-32,46019;-4,099277;-27,3895;-37,02637;
1148;-32,97739;-9,416725;-26,04909;-37,29672;
1166;-31,28736;-7,497293;-34,26669;-39,58221;
1183;-31,28736;-7,497293;-34,26669;-39,58221;
1202;-32,73219;-7,286853;-23,25835;-35,99961;
1220;-30,35248;-8,876107;-20,82869;-38,08073;
1239;-32,91428;-6,676189;-25,75386;-27,25181;
1256;-33,25554;-8,640821;-23,60805;-44,51312;
1273;-31,9462;-6,54236;-21,40825;-36,93542;
1290;-33,78455;-4,222751;-23,66199;-36,96545;
1309;-31,92858;-6,333162;-27,39439;-40,9047;
1331;-32,91364;-9,35076;-23,58298;-44,34959;
1351;-34,63219;-8,882381;-28,72858;-35,35761;
1369;-33,54495;-7,388291;-28,38914;-46,99245;
1387;-33,42081;-4,943655;-19,01323;-34,47249;
1405;-35,14866;-6,552629;-25,85978;-43,04003;
1426;-32,05568;-6,075382;-22,36245;-40,02767;
1444;-33,77364;-7,30491;-30,08629;-44,93623;
1461;-33,77364;-7,30491;-30,08629;-44,93623;
1477;-35,38348;-7,030025;-27,37212;-37,73896;
1497;-34,85257;-6,244615;-24,50707;-37,04897;
1516;-35,07121;-8,014285;-23,90136;-37,18126;
1535;-36,06903;-5,825789;-24,98752;-40,64531;
1555;-32,43538;-7,127281;-23,28238;-42,12465;
1575;-32,54804;-7,858684;-19,59586;-33,42053;
1592;-35,88445;-6,298562;-23,05841;-41,47194;
1613;-33,72457;-2,927105;-24,85677;-51,41075;
1632;-35,25068;-10,37006;-24,22308;-34,51769;
1649;-31,02971;-5,31171;-29,40385;-41,88222;
1669;-34,50936;-7,19367;-25,35763;-39,24934;
1685;-33,77363;-9,01718;-22,69378;-40,6074;
1703;-33,77363;-9,01718;-22,69378;-40,6074;
1720;-35,62005;-7,417742;-26,57796;-35,80677;
1740;-33,98344;-6,277718;-27,38091;-29,18078;
1757;-32,34708;-8,093199;-27,67452;-41,96051;
1776;-33,17549;-6,209415;-26,60411;-31,75687;
1794;-32,9219;-6,671186;-25,51782;-33,42652;
1811;-33,54155;-7,054677;-27,8708;-37,93148;
1831;-33,95731;-5,34538;-23,64925;-33,87568;
1848;-33,18693;-6,165473;-30,05678;-41,85686;
1866;-33,91217;-9,244487;-19,12361;-44,7301;
1884;-32,5596;-6,197022;-25,30459;-31,49683;
1906;-35,25744;-8,046063;-20,83092;-40,02531;
1923;-35,25744;-8,046063;-20,83092;-40,02531;
1939;-35,25368;-7,506058;-19,13732;-45,33721;
1956;-31,62083;-6,56844;-23,95297;-33,61641;
1975;-33,2226;-6,163566;-27,14956;-38,60666;
1996;-32,19287;-8,480943;-25,09529;-38,49337;
2014;-32,29657;-4,541907;-23,14443;-48,59528;
2035;-32,3738;-5,43872;-27,5488;-31,66746;
2054;-33,4218;-8,653339;-22,18902;-43,33155;
2076;-33,6459;-6,081958;-23,69437;-34,50257;
2095;-33,97641;-5,341523;-22,55761;-40,23359;
2115;-30,24495;-5,931837;-28,67126;-38,65804;
2134;-33,76742;-8,211403;-25,675;-38,04562;
2154;-37,70774;-5,425655;-21,59868;-37,18939;
2172;-31,92057;-6,900542;-27,88999;-34,51717;
2190;-33,71078;-5,581324;-24,87591;-44,26619;
2207;-36,11202;-7,653203;-25,12585;-40,28843;
2226;-31,67438;-4,973918;-24,07463;-41,49937;
2246;-34,52074;-6,765478;-27,38215;-46,96334;
2265;-33,98857;-9,736726;-24,2401;-33,85482;
2282;-33,98857;-9,736726;-24,2401;-33,85482;
2300;-34,51087;-3,700669;-23,52105;-39,70825;
2316;-34,27854;-8,397335;-23,06107;-40,02839;
2333;-33,06389;-4,197628;-24,27685;-44,01221;
2353;-30,09172;-8,137639;-27,19991;-40,73902;
2372;-34,68361;-4,525769;-22,75969;-43,58612;
2391;-32,9066;-5,513241;-19,85765;-40,08157;
2408;-33,55437;-4,35674;-27,81097;-38,27351;
2428;-33,54834;-4,623199;-26,74965;-42,59798;
2447;-37,23143;-7,162193;-25,58389;-45,81716;
2464;-29,66635;-6,194287;-24,39462;-44,03062;
2481;-29,66635;-6,194287;-24,39462;-44,03062;
2498;-34,09328;-6,856978;-24,14055;-37,10524;
2517;-33,41804;-8,716093;-25,84663;-46,25051;
2535;-34,08051;-3,348876;-24,26142;-38,30984;
2553;-36,83609;-9,394867;-25,4869;-41,32527;
2572;-32,75393;-6,916787;-29,75164;-39,49493;
2593;-30,59729;-4,41288;-24,87144;-44,56388;
2611;-31,92565;-7,185133;-26,74178;-44,41757;
2629;-34,86955;-6,518688;-22,07426;-34,04711;
2650;-32,54806;-7,373841;-18,53745;-32,90672;
2670;-34,83429;-6,543067;-23,79077;-41,28931;
2687;-30,90313;-9,98586;-27,21406;-43,76504;
2705;-33,88968;-7,865297;-26,98111;-48,93899;
2724;-30,91993;-8,116178;-18,91593;-27,59356;
2742;-30,91993;-8,116178;-18,91593;-27,59356;
2762;-33,13635;-4,901331;-24,56978;-54,29224;
2779;-33,46294;-8,930323;-29,89327;-35,71968;
2796;-33,49285;-8,016037;-27,68962;-35,95379;
2813;-32,91624;-6,056763;-23,50367;-38,60499;
2835;-36,67239;-1,003934;-22,33664;-44,29678;
2854;-33,55376;-11,1959;-24,24892;-50,31757;
2871;-31,57094;-4,978985;-23,67761;-26,19042;
2890;-30,71837;-7,01179;-25,66214;-43,19247;
2907;-34,52705;-7,396326;-26,99413;-42,67469;
2924;-36,89761;-5,711365;-25,01282;-38,29403;
2943;-36,89761;-5,711365;-25,01282;-38,29403;
2962;-35,27261;-8,943096;-22,88386;-41,54678;
2981;-33,28773;-4,87441;-27,01339;-43,33447;
3000;-36,20261;-9,794812;-30,7175;-41,22453;
3019;-35,26616;-3,987583;-27,36176;-40,61423;
3039;-29,96587;-3,739122;-28,60631;-45,00971;
3057;-31,08157;-5,337691;-26,21944;-44,01793;
3075;-33,05225;-8,556476;-22,29423;-33,69892;
3092;-34,15256;-6,319314;-24,87399;-37,80036;
3111;-32,93797;-3,074592;-32,03646;-33,37079;
3131;-32,56708;-5,319489;-16,3698;-44,6378;
3148;-35,742;-7,058608;-29,35374;-40,6129;
3166;-33,41981;-7,535449;-21,54437;-40,34848;
3184;-34,0912;-3,739252;-27,37203;-41,58136;
3203;-33,45402;-6,235346;-23,58954;-32,28084;
3221;-33,45402;-6,235346;-23,58954;-32,28084;
3241;-31,42955;-5,400774;-30,36172;-40,69226;
3265;-33,70835;-5,328562;-20,11758;-35,59462;
3283;-33,70835;-5,328562;-20,11758;-35,59462;
3302;-34,63883;-6,87745;-22,70807;-43,11257;
3318;-32,80715;-4,534526;-24,86197;-41,78974;
3337;-32,80769;-6,162828;-20,708;-42,94813;
3355;-32,68091;-4,60064;-25,2628;-37,92017;
3372;-31,39915;-8,859443;-30,60262;-37,41723;
3390;-34,93605;-8,050171;-20,40043;-42,65584;
3407;-31,59683;-5,670517;-26,25657;-40,84658;
3424;-36,33215;-8,723381;-24,33908;-45,16197;
3443;-30,16665;-5,684341;-19,12257;-25,22401;
3465;-40,60173;-14,90118;-26,63762;-45,56738;
3482;-40,60173;-14,90118;-26,63762;-45,56738;
3499;-69,81067;-15,49968;-19,73485;-42,83901;
3518;-28,49824;-10,00062;-29,51335;-51,8157;
3535;-85,58012;3,312862;-24,49922;-40,95657;
3553;-37,13752;-28,06826;-19,75084;-33,49006;
3572;-67,89481;-33,06768;-23,76379;-44,12491;
3591;-31,46827;-108,0073;-22,55307;-40,15364;
3608;-100,3646;-49,18963;-27,85517;-48,92157;
3625;-700,0488;-167,2656;-20,95475;-30,8131;
3647;-340,4533;17,72968;-29,36088;-37,46516;
3668;-45,69323;-24,82974;0,2876959;-39,57546;
3689;-22,51005;48,35638;-47,74044;-33,59178;
3707;342,6149;11,73345;3,623015;-41,89085;
3725;-380,3849;-46,98123;-45,37173;-37,99012;
3742;-380,3849;-46,98123;-45,37173;-37,99012;
3760;-47,63884;20,65785;-40,32111;-36,9306;
3779;-32,74168;-16,63603;-36,48208;-70,61648;
3797;-32,97413;-4,251608;-19,10996;-39,42637;
3816;-29,97073;-7,486975;-50,66839;-59,0004;
3838;-36,87226;-26,72596;-92,78786;-69,56075;
3854;-33,90707;-7,432143;-42,37032;-65,27474;
3872;-33,52967;-11,67971;-30,51579;-24,32242;
3889;-34,97994;-5,726611;-19,8245;-33,51602;
3909;-30,54188;-6,71037;-41,8486;-34,52295;
3927;-34,1068;-10,16836;-11,17558;-36,09347;
3948;-35,59174;-5,933181;-22,31677;-45,42355;
3971;-35,44654;-6,931591;-20,31923;-25,8473;
3991;-32,28586;-7,89111;-24,12751;-38,05695;
4010;-35,86023;-8,0837;-22,14984;-33,73583;
4030;-32,18628;-6,073009;-23,68712;-39,2359;
4048;-31,33506;-8,508106;-30,23545;-36,93493;
4066;-31,83226;-7,216922;-17,21702;-37,21359;
4084;-35,62066;-8,943747;-31,87594;-48,38147;
4104;-33,72005;-5,008461;-10,12349;-39,60238;
4119;-33,72005;-5,008461;-10,12349;-39,60238;
4139;-32,26468;-10,71409;-28,55213;-37,16488;
4159;-37,59208;-4,902388;-27,55869;-63,07344;
4179;-34,05082;-4,397324;-15,32337;-35,43835;
4196;-32,75727;-10,60747;-33,81638;-35,28028;
4216;-36,34836;-11,28577;-26,65596;-48,25224;
4234;-34,26995;-5,712478;-27,80324;-43,27634;
4253;-31,26222;-8,256365;-21,73206;-55,00673;
4270;-34,26097;-10,3708;-23,78637;-46,16608;
4287;-33,29788;-8,040301;-24,25181;-29,0456;
4307;-31,6913;-8,232596;-23,6005;-44,93768;
4325;-31,6913;-8,232596;-23,6005;-44,93768;
4342;-31,6913;-8,232596;-23,6005;-44,93768;
4359;-35,50548;-4,639342;-23,76048;-46,29556;
4378;-38,30389;-5,193004;-26,44356;-42,34839;
4396;-33,51106;-5,027484;-26,458;-48,92437;
4414;-33,2763;-4,315486;-24,10972;-34,62023;
4433;-34,50245;-4,44963;-26,47547;-38,55769;
4450;-31,7587;-8,109529;-24,1356;-47,86671;
4469;-32,32131;-6,080461;-25,93312;-39,13208;
4486;-33,36554;-5,060996;-25,58342;-43,96049;
4504;-36,6081;-7,840235;-21,45097;-37,57248;
4521;-36,6081;-7,840235;-21,45097;-37,57248;
4541;-37,38897;-6,573967;-24,81797;-50,3793;
4560;-32,87499;-4,697792;-25,35033;-42,96036;
4578;-33,05382;-2,997331;-25,71329;-43,31103;
4595;-35,24211;-6,765347;-24,66224;-25,41722;
4613;-33,54145;-6,696443;-24,44828;-40,12894;
4632;-33,90251;-7,869341;-18,87131;-46,68498;
4648;-33,73507;-5,215816;-28,1886;-38,28111;
4667;-33,64694;-7,904011;-25,03079;-33,75393;
4684;-33,35986;-6,901768;-27,92578;-64,5068;
4701;-33,35986;-6,901768;-27,92578;-64,5068;
4719;-32,74533;-6,409403;-23,90509;-45,69576;
4736;-36,57746;-3,673374;-25,71978;-40,72255;
4754;-34,78349;-5,094273;-29,19812;-40,34031;
4775;-32,05351;-3,582892;-21,27906;-43,92213;
4794;-33,66036;-8,134008;-30,25467;-44,52142;
4811;-34,08736;-8,05129;-24,72171;-43,8214;
4832;-35,24127;-10,26961;-23,91594;-39,67257;
4851;-33,91144;-6,477201;-30,60067;-36,21449;
4869;-33,53846;-10,3378;-23,15413;-34,90125;
4886;-32,15625;-5,681042;-25,01495;-42,95801;
4910;-25,26384;-10,69546;-30,58203;-35,01952;
4929;-31,181;-5,151124;-21,56124;-40,59472;
4947;-33,72489;-9,365801;-25,97108;-45,99648;
4966;-34,18017;-4,242033;-25,91578;-40,8327;
4985;-32,14072;-7,361835;-19,60312;-41,10253;
5002;-32,14072;-7,361835;-19,60312;-41,10253;
5020;-34,04888;-8,63832;-20,44631;-43,84602;
5038;-33,54031;-3,325514;-28,6619;-34,11529;
5058;-35,09672;-10,11482;-26,20028;-37,6551;
5077;-33,25739;-4,408913;-19,82714;-49,04386;
5096;-37,50577;-5,938743;-27,43399;-36,90662;
5113;-30,4863;-6,701328;-22,40982;-35,21307;
5130;-34,20208;-6,448962;-27,30248;-31,50274;
5147;-32,55954;-8,098139;-21,98485;-42,8834;
5166;-31,81512;-7,121528;-25,11374;-48,77515;
5184;-34,09192;-8,409541;-22,51576;-33,86361;
5200;-34,09192;-8,409541;-22,51576;-33,86361;
5220;-34,88287;-6,327771;-29,35757;-46,15939;
5239;-36,23585;-2,59627;-23,08371;-29,9353;
5257;-35,26348;-3,025357;-25,74685;-41,13929;
5277;-33,55394;-6,63014;-24,50278;-39,88322;
5295;-34,08853;-8,023349;-27,16847;-43,16178;
5314;-35,84509;-6,65636;-31,50885;-41,34236;
5332;-33,44939;-8,371504;-27,49579;-30,94402;
5351;-35,54808;-9,378899;-24,43743;-23,71446;
5371;-30,84252;-4,375155;-20,12285;-50,3723;
5389;-31,01931;-7,974655;-29,63189;-35,69802;
5408;-33,36117;-4,847905;-30,04779;-39,46876;
5426;-32,79335;-7,051711;-19,58027;-44,5724;
5449;-32,75989;-6,067976;-25,13059;-39,87417;
5467;-33,52687;-8,007183;-26,47976;-39,9691;
5487;-35,81461;-11,44694;-23,00317;-41,60212;
5506;-32,53391;-4,535647;-28,61562;-36,29489;
5524;-28,84885;-9,182131;-28,76042;-44,26651;
5542;-28,84885;-9,182131;-28,76042;-44,26651;
5560;-26,3182;-8,159751;-30,667;-32,82453;
5579;-11,56089;25,24561;-25,27515;-43,77441;
5597;-74,63636;-18,35728;-28,59897;-43,25371;
5615;-73,29228;-25,0125;-24,50698;-35,07661;
5633;279,3257;259,2716;-24,52162;-34,89041;
5651;-39,88374;-25,76558;-21,52293;-42,45296;
5669;-54,96647;-34,87278;-29,26126;-37,24422;
5687;-71,20005;-38,45566;-24,5216;-38,83369;
5705;82,96138;-74,00439;-24,24234;-36,40744;
5722;82,96138;-74,00439;-24,24234;-36,40744;
5739;391,0229;70,50622;-29,04007;-31,75929;
5759;-1,068401;6,063674;-21,84344;-46,49721;
5781;-9,237019;30,1922;-29,09628;-46,22246;
5800;362,5374;98,88218;-38,24987;-50,75657;
5818;-96,20992;-72,85189;-42,05427;-53,65196;
5837;29,38046;76,48805;-81,84694;-48,47425;
5856;-33,67385;-8,086092;1,915684;-51,01104;
5874;-32,26285;8,659236;-27,61709;-45,22216;
5892;-33,71214;-4,708593;-29,34245;-39,22944;
5910;-32,77892;-0,2302415;-5,650507;-30,28338;
5928;-34,25967;-6,198438;-7,479652;4,811706;
5946;-33,50948;-9,317886;-29,74059;-49,49013;
5964;-45,31692;-24,78518;-1,056616;-23,86744;
5983;-45,31692;-24,78518;-1,056616;-23,86744;
6003;-24,16666;-8,294496;18,28153;-30,32887;
6020;-33,2918;-7,601388;-36,98141;-26,30505;
6039;-37,64452;-8,47898;-12,16069;-103,3208;
6061;-27,10241;-3,430245;-17,44942;-47,44232;
6080;-32,78711;-8,387328;-19,27478;-50,21838;
6101;-33,23468;-4,710345;-13,82797;-32,514;
6122;-32,87334;-9,245538;-20,01155;-35,72879;
6142;-36,56564;-9,394874;-52,1307;-54,76462;
6159;-32,09;-6,932321;-24,03361;-57,79178;
6177;-34,21684;-7,292675;-59,0088;-24,23248;
6196;-35,46265;-6,387687;-23,37142;-28,81548;
6212;-32,72861;-7,653327;24,04225;9,436798;
6231;-31,95599;-6,87888;-46,0676;-32,23514;
6249;-33,45345;-6,787154;25,57361;-27,07641;
6267;-34,42969;-5,082285;-37,49652;-30,62183;
6285;-31,581;-11,92644;119,8818;-75,42049;
6304;-32,30751;-4,363851;-8,299509;-136,5572;
6322;-32,30751;-4,363851;-8,299509;-136,5572;
6339;-36,37243;-6,434237;-54,32965;-140,7521;
6357;-32,2213;-8,328104;-26,24954;-48,13601;
6378;-35,72416;-7,913401;-16,83205;-34,15983;
6396;-33,5688;-4,091256;-24,73442;-32,61484;
6413;-33,73836;-7,525515;-39,44291;-38,51995;
6433;-32,55385;-5,100947;-28,21612;-50,33173;
6449;-36,26068;-7,840416;-19,88419;-39,63833;
6466;-31,55912;-6,37078;-32,91133;-31,40532;
6484;-33,74681;-7,865337;-29,99974;-33,56816;
6504;-33,73517;-5,46476;-22,46377;-59,82649;
6521;-33,73517;-5,46476;-22,46377;-59,82649;
6542;-32,54969;-4,599253;-12,51176;-35,02354;
6560;-35,65297;-5,919816;-25,31334;-44,54983;
6582;-32,01973;-5,728936;-28,43205;-48,70864;
6599;-33,98682;-6,925599;-26,37405;-46,84941;
6616;-31,02856;-9,79941;-24,71609;-39,26953;
6634;-32,75021;-7,233656;-13,45033;-28,34299;
6651;-31,74585;-6,194649;-21,82347;-42,01643;
6669;-31,83739;-4,962737;-18,63324;-37,73615;
6690;-33,82077;-7,471585;-29,40421;-43,2506;
6707;-32,55467;-5,395757;-24,42552;-46,03856;
6726;-32,31154;-8,249622;-23,28165;-40,38332;
6744;-35,22084;-8,872101;-24,44584;-43,38858;
6765;-32,20673;-2,667351;-27,84649;-43,27597;
6785;-31,67644;-8,260276;-20,30374;-41,29066;
6803;-31,67644;-8,260276;-20,30374;-41,29066;
6819;-32,52427;-6,386086;-27,19666;-44,3549;
6837;-33,9033;-6,483687;-23,50753;-42,32354;
6857;-33,28625;-5,530219;-24,39023;-32,84924;
6876;-35,42545;-8,958524;-24,22515;-32,18687;
6894;-33,99398;-9,733298;-21,27695;-43,29799;
6912;-32,8876;-7,771549;-22,71669;-40,59571;
6931;-34,25668;-9,554763;-28,45031;-36,9471;
6949;-32,02016;-7,49169;-21,80758;-41,5966;
6969;-34,93147;-8,135785;-34,02858;-37,13677;
6987;-32,65866;-7,267586;-21,11858;-34,24947;
7004;-33,33664;-11,30319;-30,76157;-45,25849;
7021;-33,33664;-11,30319;-30,76157;-45,25849;
7039;-34,1996;-6,804532;-30,36865;-34,81913;
7058;-34,14918;-2,485629;-23,14597;-36,58131;
7075;-33,7561;-6,556472;-34,97335;-41,61673;
7093;-34,7751;-8,637484;-28,3605;-39,90311;
7112;-37,59246;-6,117578;-23,36043;-53,79634;
7130;-32,74147;-3,394829;-22,28743;-37,20874;
7148;-37,20838;-8,879428;-25,71781;-39,19119;
7166;-34,78668;-5,833243;-20,0374;-33,87173;
7186;-33,76404;-9,722085;-23,38416;-34,55355;
7203;-33,76404;-9,722085;-23,38416;-34,55355;
7220;-30,50287;-8,753597;-27,90504;-31,77174;
7240;-32,01411;-7,434091;-16,67394;-34,07487;
7259;-33,95598;-3,981253;-25,76832;-41,92602;
7278;-32,67418;-10,76624;-19,79015;-43,10564;
7297;-35,92679;-5,250913;-26,24077;-47,89091;
7314;-36,82047;-5,085157;-21,68948;-35,74537;
7331;-31,21401;-9,480941;-22,23784;-46,518;
7349;-28,11389;-7,980338;-29,33531;-44,69473;
7367;-33,04191;-5,43723;-25,45571;-46,15834;
7385;-33,88908;-7,518438;-23,07864;-47,0259;
7402;-33,88908;-7,518438;-23,07864;-47,0259;
7419;-35,25911;-12,06919;-29,03674;-36,65384;
7437;-34,96318;-6,484173;-25,08582;-36,69102;
7454;-33,37428;-3,766759;-27,58564;-39,28655;
7473;-35,63316;-6,724556;-33,12922;-44,43758;
7490;-33,06067;-7,040818;-27,56531;-37,87093;
7508;-33,59121;-7,737731;-26,66885;-25,91403;
7527;-35,81152;-8,876313;-24,53458;-36,13532;
7543;-34,16784;-6,55833;-28,54915;-35,07891;
7561;-34,16784;-6,55833;-28,54915;-35,07891;
7580;-33,16487;-4,555788;-14,83052;-26,73771;
7599;17,1342;12,43631;-28,95863;-63,22313;
7617;-37,17749;-2,616146;-28,17928;-42,36696;
7634;-32,67215;0,7700992;-18,7846;-47,09826;
7652;22,24079;-25,07934;-22,7913;-41,51773;
7669;-93,13771;-94,09232;-24,96918;-41,40575;
7686;-90,79604;11,13832;-19,4772;-30,30956;
7706;-121,9016;-1,760325;-31,23429;-50,45377;
7756;-31,85992;-26,29375;-27,14831;-39,95947;
7777;-15,97161;-19,85268;2,351957;-89,31097;
7797;-75,86674;-31,14428;48,856;39,75586;
7817;34,01389;123,2227;-222,5036;11,70579;
7835;-39,19619;-11,71474;-204,6569;-150,6495;
7854;-29,76313;0,6864179;46,48344;-529,1739;
7872;-33,28196;-12,51055;-28,11419;-2,15989;
7891;-35,19289;-6,978867;-267,9656;-57,3651;
7910;-33,98244;-5,163228;315,581;-31,60857;
7929;-32,7497;-6,771331;-280,7148;-219,9506;
7948;-25,91323;-6,407682;-63,16368;-48,79287;
7965;-31,3203;-6,9272;227,001;184,9714;
7985;-33,53994;-6,870727;91,71497;63,26894;
8004;-31,59237;-5,007989;-307,1093;-151,799;
8028;-32,32729;-6,18644;-260,5687;-137,2449;
8047;-32,70502;-7,579764;-138,2597;-72,7823;
8065;-32,74894;-6,685081;378,3033;-45,11078;
8086;-32,44283;-3,775796;58,59724;-34,99623;
8109;-33,60976;-5,067541;-29,12356;-24,45124;
8128;-35,37737;-8,922799;-3,066107;-13,0413;
8146;-37,72142;-5,890429;-22,92218;-35,38215;
8164;-32,7433;-9,108493;-35,1277;-28,82003;
8180;-32,7433;-9,108493;-35,1277;-28,82003;
8203;-37,57497;-5,716449;-15,73406;-35,10036;
8222;-33,36928;-6,401772;-39,32064;66,82811;
8242;-34,69664;-6,056151;-27,79881;-54,39364;
8259;-33,39808;-6,070035;-28,62903;-36,88346;
8278;-32,89291;-5,961997;-18,00371;-47,40258;
8296;-36,27438;-5,672865;-22,3107;-44,06575;
8316;-33,05949;-8,379974;-15,57852;-33,2763;
8333;-33,14401;-3,885729;-29,89378;-49,34695;
8352;-29,13142;-10,80411;-29,43575;-43,46987;
8370;-35,03522;-9,400874;-19,72916;-86,35859;
8388;-35,6191;-3,403406;-34,09398;-49,66241;
8406;-33,74065;-9,129664;-35,63309;-55,98912;
8427;-32,9349;-4,872233;-43,31047;-40,37922;
8446;-38,09559;-8,157411;-43,83896;-23,31402;
8466;-34,25155;-7,090066;-34,77541;-73,58862;
8484;-57,58006;-33,61956;-10,98185;-25,89391;
8502;-57,58006;-33,61956;-10,98185;-25,89391;
8518;-14,10049;-56,00428;13,84421;-41,2403;
8537;-31,04169;7,354615;-26,85303;-51,12103;
8554;48,83343;157,2799;-15,44395;-29,62953;
8573;37,39709;-83,23254;-18,49637;-30,06602;
8592;44,37729;23,74388;-29,15503;-36,36525;
8613;473,0345;113,9013;-24,06454;-39,98881;
8635;-63,59168;-0,8550225;-40,11314;-40,44489;
8654;39,14466;7,547071;-52,8993;-28,23944;
8673;-27,09523;-21,7587;69,92146;32,89148;
8689;-103,6745;-14,48454;66,60038;-0,2088109;
8711;-38,84413;-45,16161;204,8352;22,53279;
8732;-30,08005;-6,170043;304,208;-170,3782;
8752;-36,97331;-8,656935;-45,78072;-161,509;
8772;-21,26653;-13,08839;-386,8806;127,2761;
8792;-36,74187;-8,018093;0,9178168;-109,3095;
8812;-35,44091;-8,250074;235,2157;55,32269;
8831;-35,6208;-8,726064;-155,3475;144,4288;
8850;-35,31794;-6,847718;14,45272;-100,3286;
8868;-34,77543;-8,457075;208,0439;-31,3423;
8889;-37,40759;-8,75997;80,32514;-33,57484;
8911;-24,8787;-10,87939;114,2595;-104,7989;
8930;-33,19461;-8,824552;435,8147;11,37464;
8948;-33,90652;-3,86976;-55,32948;-48,96289;
8965;-33,9708;-8,389801;-28,75323;1,590907;
8982;-33,9708;-8,389801;-28,75323;1,590907;
8999;-36,2325;-5,344381;-64,60728;-48,67064;
9016;-35,04214;-4,989575;-45,50882;-164,1635;
9035;-30,2249;-3,961119;-16,49492;11,99977;
9052;-33,96715;-8,388736;-1,708379;-45,55495;
9071;-34,51202;-3,237342;-27,87589;56,56097;
9088;-34,71347;-9,553172;-26,91949;-28,13039;
9106;-35,26378;-5,916891;-24,61072;-64,89957;
9125;-34,89074;-5,571133;-27,41711;-20,61957;
9140;-34,89074;-5,571133;-27,41711;-20,61957;
9158;-34,51486;-9,250026;-1,608251;-124,9598;
9176;-34,16648;-6,926239;-3,203831;-45,53094;
9194;-33,40524;-9,021775;-43,2957;-60,98451;
9211;-34,54906;-7,867675;-18,53591;-44,72723;
9230;48,90501;-8,773803;-32,54704;-46,05101;
9248;-36,32222;-8,030874;-32,05843;-26,52662;
9266;-35,79323;-8,477122;-12,41074;-43,26289;
9284;-33,90039;-12,24873;-24,17447;-37,31494;
9303;-33,90039;-12,24873;-24,17447;-37,31494;
9320;-36,82873;-5,896955;-24,23967;-37,20492;
9339;-35,26109;-3,197065;-27,23879;-51,56312;
9356;-34,06356;-9,046037;-28,90522;-31,35679;
9375;-33,7051;-6,51227;-32,51699;-41,73618;
9394;-34,72928;-4,163724;-37,21444;-34,97898;
9412;-36,95036;-4,925251;-26,59225;-36,8205;
9429;-31,80745;-3,579113;-25,3697;-39,33893;
9449;-32,54281;-8,655991;-30,81084;-42,42651;
9465;-36,23861;-9,551558;-13,75396;-46,09935;
9482;-36,23861;-9,551558;-13,75396;-46,09935;
9500;-34,87627;-3,498844;-24,28695;-34,13931;
9518;-36,30743;-8,405868;-24,9715;-27,46518;
9535;-32,87117;-9,37093;-19,75427;-33,66972;
9552;-34,62133;-5,882141;-35,75784;-47,64787;
9570;-34,87819;-5,826728;-28,53513;-38,10154;
9587;-34,08029;-10,80538;-27,64266;-33,97328;
9604;-34,28338;-8,038328;-36,25126;-44,16675;
9622;-34,28338;-8,038328;-36,25126;-44,16675;
9642;-34,86163;-8,286884;-35,07852;-50,75468;
9657;-30,72593;-6,08532;-8,020789;-35,62096;
9678;-35,94594;-6,53207;-33,80819;-32,11136;
9697;-34,26139;-8,800294;-25,40412;-32,97683;
9715;-32,5535;-4,510342;-20,09282;-31,94497;
9735;-33,13457;-8,871352;-32,17014;-43,01332;
9752;-34,36475;-5,555655;-19,12544;-36,96369;
9770;-35,01238;-10,7374;-33,52174;-27,63607;
9788;-34,48465;-3,960493;-14,68333;-28,33915;
9806;-35,4871;-4,657311;-23,45113;-39,53948;
9829;-35,4871;-4,657311;-23,45113;-39,53948;
9847;-32,92226;-6,203427;-38,86989;-33,89198;
9865;-32,06805;-4,901695;-9,12927;-34,44745;
9884;-33,54405;-8,836057;-31,77684;-35,94299;
9901;-33,54405;-8,836057;-31,77684;-35,94299;
9922;-33,00211;-11,0742;-12,36403;-45,63879;
9940;-32,18879;-7,033402;-11,41897;-43,54152;
9956;-37,63974;-4,88769;-26,50051;-27,37452;
9976;-34,27448;-8,394659;-25,36252;-42,0006;
9994;-33,77707;-7,638361;-28,94918;-44,38211;
10012;-37,21801;-3,68539;-28,78017;-38,69501;
10030;-35,60349;-3,902452;-14,81532;-46,64614;
10049;-33,00278;-5,832504;-22,65441;-32,65133;
10068;-34,26448;-4,81842;-14,64767;-46,631;
10084;-34,54327;-4,606531;-18,21791;-41,83718;
10101;-34,54327;-4,606531;-18,21791;-41,83718;
10119;-32,90831;-8,044923;-27,68203;-42,84819;
10137;-31,77333;-8,394135;-23,56867;-28,57204;
10154;-32,91136;-5,904925;-15,45508;-38,99762;
10173;-32,9306;-5,451801;-26,21014;-52,74601;
10189;-35,98286;-3,354705;-30,71431;-27,93177;
10208;-36,47041;-6,159583;-22,91163;-45,15301;
10228;-33,22998;-4,202885;-28,68311;-34,80336;
10246;-34,2636;-6,067555;-7,189014;-41,34833;
10263;-34,2636;-6,067555;-7,189014;-41,34833;
10280;-34,91231;-5,75838;-23,41283;-41,48888;
10298;-35,60949;-3,725149;-36,52232;-34,22212;
10315;-34,15408;-7,769654;-35,78372;-47,02253;
10333;-34,07676;-4,367499;-27,80873;-40,72934;
10350;-37,8909;-10,60936;-30,67032;-30,61755;
10369;-33,55526;-3,548046;-18,02356;-41,13779;
10387;-33,73706;-7,064223;-13,82297;-30,42731;
10405;-35,23903;-5,22382;-32,13579;-66,10457;
10422;-35,23903;-5,22382;-32,13579;-66,10457;
10439;-37,3013;-8,078284;-9,222328;-48,3591;
10456;-32,87027;-5,932064;-37,15637;-62,9599;
10477;-31,01716;-8,084631;-35,41319;-35,98009;
10494;-32,26861;-7,906311;-11,83058;-37,61359;
10514;-33,53209;-6,3906;-11,07832;-37,08557;
10534;-30,92325;-3,639269;-20,50929;-29,88106;
10553;-33,0645;-4,224524;-23,34023;-43,18019;
10571;-30,59411;-7,407056;-29,88465;-30,16973;
10588;-35,62613;-4,714529;-20,36939;-35,48526;
10605;-33,91547;-7,648036;-27,07641;-35,15484;
10622;-33,91547;-7,648036;-27,07641;-35,15484;
10640;-32,20563;-6,950855;-45,62065;-38,91331;
10659;-37,24695;-4,446361;-12,47633;-29,10279;
10677;-29,87031;-4,989503;-37,18877;-42,06466;
10694;-34,6938;-4,531902;-19,99673;-36,19675;
10713;-33,25945;-8,866807;-20,91902;-43,8712;
10731;-33,1573;-4,491519;-28,76425;-46,50735;
10751;-33,55322;-10,60191;-23,62729;-48,28434;
10768;-35,70775;-6,546128;-25,89395;-31,52014;
10784;-34,26198;-6,710367;-24,7756;-39,12054;
10802;-34,26198;-6,710367;-24,7756;-39,12054;
10821;-36,61395;-5,212027;-20,78296;-33,03044;
10842;-31,76414;-4,69521;-38,60196;-46,61349;
10859;-33,17315;-7,405949;-22,9258;-42,13393;
10877;-34,98807;-5,252932;-24,4919;-40,57587;
10894;-34,15924;-3,56372;-37,15679;-49,28657;
10913;-34,08781;-5,170515;-40,29623;-45,93248;
10933;-35,74969;-1,779012;-2,837158;-41,35149;
10951;-35,00975;-8,382035;-15,07824;-21,41843;
10969;-33,40663;-6,304659;-29,82431;-45,26172;
10986;-34,87;-5,76485;-22,44412;-41,53362;
11005;-31,68979;-5,431595;-25,88319;-45,66051;
11025;-35,61293;-6,403644;-28,70149;-46,32658;
11046;-33,52459;-4,232207;-25,11138;-55,71595;
11063;-33,52459;-4,232207;-25,11138;-55,71595;
11080;-35,62004;-3,548297;-19,22045;-39,82737;
11100;-33,88919;-7,053083;-13,33879;-23,7292;
11118;-32,77957;-5,085402;-6,906945;-36,67778;
11136;-30,49951;-4,99325;-52,70541;-45,1429;
11155;-37,2123;-7,410841;-11,74073;-57,95478;
11174;-32,18669;-4,90118;-23,95251;-32,12878;
11194;-31,74656;-6,066448;-24,4343;-41,63582;
11214;-35,44409;-5,322711;-48,21295;-42,2857;
11233;-33,41968;-8,574302;-27,45164;-33,55537;
11250;-31,76199;-8,88594;-20,8938;-45,87498;
11270;-33,51189;-8,415489;-19,6322;-50,29654;
11287;-33,99092;-8,408709;-29,25675;-42,24308;
11307;-35,43576;-9,989629;-27,16976;-29,91147;
11326;-33,8798;-8,285051;-30,652;-48,70237;
11345;-34,94477;-6,670458;-14,69321;-44,26062;
11364;-34,51379;-5,079169;-26,84348;-46,3079;
11382;-34,51379;-5,079169;-26,84348;-46,3079;
11398;-33,89032;-8,108324;-25,64353;-32,1175;
11415;-33,40262;-8,034184;-22,19314;-46,48302;
11433;-32,69582;-7,590271;-18,03012;-50,49417;
11450;-31,82924;-8,134445;-29,63441;-35,2345;
11474;-33,79888;-8,048682;-34,30499;-37,0687;
11491;-32,29363;-4,27144;-13,59523;-39,67111;
11512;-34,87828;-6,248715;-42,05449;-38,61094;
11529;-33,81148;-5,69288;-22,38048;-44,03563;
11548;-30,92513;-5,121214;-15,40154;-56,06696;
11566;-32,18884;-9,239531;-27,4331;-28,77656;
11585;-34,69931;-7,419797;-16,43741;-36,61709;
11602;-34,69931;-7,419797;-16,43741;-36,61709;
11619;-34,91393;-8,409403;-26,14862;-41,70694;
11637;-35,26126;-5,438605;-28,65544;-42,27516;
11654;-35,24775;-4,7607;-30,49841;-16,60031;
11671;-33,40701;-10,35709;-21,466;-58,32826;
11692;-32,93402;-5,207161;-37,31343;-44,18444;
11711;-33,44553;-5,768195;-28,76765;-27,35294;
11729;-33,71722;-9,741722;-22,15098;-41,57732;
11746;-34,25212;-3,747941;-30,00374;-25,86773;
11764;-32,56802;-8,395977;-17,87965;-27,89737;
11781;-32,56802;-8,395977;-17,87965;-27,89737;
11798;-34,02143;-3,72155;-27,16822;-45,43372;
11816;-33,92627;-6,376608;-16,22829;-37,42304;
11833;-33,77442;-4,587815;-22,15428;-28,2278;
11852;-32,39112;-5,921691;-21,96612;-35,78941;
11869;-32,89614;-6,355271;-22,45354;-40,97773;
11885;-31,27902;-9,554159;-22,05877;-47,00233;
11902;-31,27902;-9,554159;-22,05877;-47,00233;
11919;-33,77443;-6,438184;-12,63777;-46,97478;
11938;-31,3949;-6,445735;-22,80451;-37,68531;
11955;-36,08799;-3,537003;-35,2504;-44,51141;
11972;-32,56925;-9,551729;-30,20576;-39,03938;
11992;-33,04433;-4,261228;-32,21267;-25,30504;
12009;-35,51082;-6,072046;-19,58316;-36,65068;
12027;-33,73718;-6,63229;-27,41917;-45,88018;
12048;-33,51385;-9,134112;-26,89316;-39,45016;
12067;-34,02018;-8,396409;-35,57404;-34,61919;
12086;-33,34364;-6,82224;-31,47096;-54,27189;
12104;-33,28489;-6,923402;-20,29626;-38,25769;
12122;-33,28489;-6,923402;-20,29626;-38,25769;
12141;-31,44658;-7,873105;-20,89173;-37,91592;
12158;-32,38128;-8,388186;-29,31779;-30,95277;
12177;-36,40495;-2,746178;-27,89221;-46,1777;
12193;-35,24337;-7,91912;-37,59226;-41,73386;
12212;-32,74415;-6,891656;-21,83484;-33,50095;
12230;-35,18444;-8,980286;-25,85322;-32,26715;
12248;-34,27988;-4,423677;-25,39006;-31,30877;
12265;-34,34362;-8,763573;-43,26118;-53,01517;
12282;-34,34362;-8,763573;-43,26118;-53,01517;
12299;-34,03194;-6,650029;-32,7434;-37,88011;
12316;-36,26831;-6,815567;-20,33879;-41,35223;
12335;-33,06074;-5,456962;-32,33545;-38,4989;
12353;-35,27495;-11,08207;-30,86099;-53,61657;
12371;-34,95343;-4,459357;-19,35689;-39,63277;
12388;-32,38741;-5,060205;-32,94529;-45,79089;
12406;-37,46908;-7,410169;-15,53619;-33,17717;
12422;-37,46908;-7,410169;-15,53619;-33,17717;
12442;-32,00444;-7,373222;-34,03963;-56,29336;
12460;-34,90002;-7,354216;-12,58442;-53,7137;
12477;-33,41032;-6,07023;-42,46415;-42,75485;
12495;-34,63026;-6,556496;-30,82721;-34,33937;
12513;-34,01503;-9,87184;-24,04688;-38,33042;
12529;37,45984;34,99643;-30,50225;-38,69866;
12548;-68,99828;-81,36171;-17,2616;-42,64822;
12566;-126,7192;-9,440267;-26,97681;-32,55336;
12585;-54,04696;-81,08868;-19,44462;-37,16418;
12602;-54,04696;-81,08868;-19,44462;-37,16418;
12620;-97,77147;5,44629;-22,30316;-51,53492;
12640;-55,57575;-103,1698;-18,89332;-41,10271;
12663;-49,35011;2,72852;-15,86439;-45,32573;
12681;-23,25854;15,11089;-36,60881;-43,0853;
12699;-84,60159;9,676816;-27,19031;-39,30753;
12718;-156,7622;-23,45659;-20,15604;-47,84045;
12735;-56,67375;-40,10242;-62,27002;-45,04699;
12756;-18,25363;36,70799;-17,71661;-25,58072;
12778;-39,13012;16,75245;-21,06739;-43,23405;
12799;-42,41075;-19,31452;-26,2546;-36,09454;
12817;-32,73666;-4,821919;-27,96821;-33,21151;
12837;-35,07268;-8,790183;-18,9689;-35,98696;
12856;-32,36499;-2,826742;-66,3306;-16,32093;
12874;-32,04945;-5,512114;-43,99731;28,13105;
12891;-33,91363;-5,523588;-121,3674;-191,676;
12909;-33,26778;-7,78686;44,7834;88,31251;
12926;-33,26778;-7,78686;44,7834;88,31251;
12945;-33,96303;-5,698361;-317,5644;-61,30373;
12967;-30,43679;-7,041437;342,2751;-66,66472;
12988;-34,86962;-3,86127;-192,0471;-363,3053;
13006;-33,28651;-7,064472;-4,688564;-52,40258;
13023;-33,28651;-7,064472;-4,688564;-52,40258;
13042;-36,59979;-5,749293;-88,38693;-62,86814;
13060;-36,34614;-8,765924;-26,58782;-53,63069;
13085;-33,29144;-9,280119;-11,28319;-48,76809;
13105;-32,81008;-4,474614;-22,9321;-55,07829;
13124;-33,60037;-5,057863;-45,00414;-98,53985;
13142;-33,60037;-5,057863;-45,00414;-98,53985;
13159;-30,56692;-9,823013;-28,14716;-42,75869;
13180;-36,9693;-7,332514;-29,2673;-66,78456;
13199;-37,84153;-8,41968;-31,61137;1,62034;
13217;-28,24084;0,9537525;-27,92062;-24,05197;
13236;-52,51501;-10,67317;-14,72164;-105,4464;
13254;-104,9898;-83,41665;-26,39826;-52,58179;
13269;-199,4364;177,1785;-19,82936;-21,8596;
13286;-79,97341;-58,2164;-32,86676;-35,62465;
13303;18,10701;56,91364;-25,54008;-22,2973;
13319;18,10701;56,91364;-25,54008;-22,2973;
13337;9,484084;94,85233;-20,58662;-50,15833;
13357;104,1585;88,39611;-32,0495;-49,23034;
13376;-63,60054;-36,70181;-30,67674;-22,67255;
13393;19,84903;-54,75692;-25,89313;-57,63702;
13410;-22,13338;-13,89522;-25,85244;-35,39782;
13429;-59,63125;-89,19703;-9,981089;-24,45693;
13449;0,6932957;57,36778;-40,07531;-63,16872;
13468;-61,34898;-23,36692;-27,02167;-31,78325;
13485;-63,51958;-38,3778;-23,81408;-42,9135;
13504;-15,10828;-23,6757;-7,929651;-11,15303;
13521;-15,10828;-23,6757;-7,929651;-11,15303;
13539;-35,20062;-9,874909;-38,54645;-97,20504;
13557;-41,94904;-14,99853;-159,1246;-164,6289;
13575;-36,57397;-1,831155;240,7134;137,7702;
13593;-32,92253;-5,281541;372,1494;-44,79154;
13612;-32,65073;-7,649454;434,9394;-16,32957;
13628;-35,12021;-3,872254;255,3203;-179,3319;
13647;-33,54119;-7,893853;-8,882954;157,3854;
13669;-33,25575;-6,358463;488,0323;-48,32098;
13686;-30,95238;4,471108;-109,0444;34,2069;
13706;-35,57646;-6,078309;-39,55438;-46,42864;
13727;-32,91004;-8,392339;-136,1437;4,627652;
13746;-33,71455;-5,332823;-63,61432;-34,83415;
13767;-34,2566;-8,387968;-55,139;-30,21428;
13783;-34,2566;-8,387968;-55,139;-30,21428;
13800;-34,88083;-5,721384;-33,60783;-47,09412;
13818;-32,82558;-7,023684;-44,97246;-49,42825;
13838;-35,24966;-5,09024;-29,91005;-42,74207;
13859;-32,81755;-6,939546;-27,36651;-41,66684;
13880;-33,4168;-8,415916;-39,92487;-55,39007;
13900;-32,29031;-6,380856;-23,05281;-36,6986;
13918;-32,11446;-8,101665;-29,12714;-34,07816;
13936;-31,59326;-7,861738;-19,14357;-6,789823;
13954;-36,23158;-7,045376;-26,31668;-87,8479;
13973;-32,99992;-7,540268;-23,36296;-48,75364;
13992;-33,37548;-7,064926;-31,95734;-26,10023;
14012;-34,28559;-5,343401;-25,85987;-43,25013;
14031;-33,12416;-9,007761;-25,87136;-44,78786;
14048;-33,65439;-6,131739;-29,13387;-40,79954;
14065;-33,46918;-7,398301;-17,89164;-50,94772;
14082;-33,46918;-7,398301;-17,89164;-50,94772;
14100;-30,21846;-7,21873;-31,47058;-59,2532;
14118;-36,15251;-5,156726;-28,05849;-27,21564;
14136;-33,39046;-4,963299;-26,62677;-42,71024;
14153;-35,88983;-7,534359;-19,18483;-33,46605;
14173;-34,14423;-5,341393;-28,33182;-42,75991;
14189;-33,95065;-4,418039;-27,54349;-49,62006;
14208;-32,88445;-7,771782;-28,25308;-46,35408;
14228;-32,56378;-4,994727;-24,05736;-50,67731;
14245;-32,92086;-5,948401;-25,2125;-30,54177;
14264;-32,91341;-4,698189;-23,03517;-43,44106;
14280;-32,91341;-4,698189;-23,03517;-43,44106;
14297;-34,15003;-2,029038;-38,08789;-55,27584;
14314;-33,71152;-8,391876;-30,16366;-50,60326;
14331;-31,60229;-6,983037;-30,02594;-32,08879;
14350;-34,71367;-4,234946;-15,28252;-38,35085;
14368;-33,08035;-5,533669;-31,01996;-40,29478;
14387;-35,89039;-10,23344;-27,22363;-35,02925;
14405;-33,36689;-10,35481;-16,60296;-43,14655;
14425;-36,90505;-8,349471;-26,91565;-32,42086;
14442;-36,90505;-8,349471;-26,91565;-32,42086;
14459;-35,23121;-5,073156;-20,46074;-45,15891;
14476;-33,38025;-6,85338;-22,81084;-44,75565;
14493;-33,38025;-6,85338;-22,81084;-44,75565;
14513;-31,35295;-7,59582;-27,26766;-38,24369;
14529;-34,44604;-6,062998;-24,14932;-38,18886;
14547;-34,40276;-5,340039;-27,41403;-30,58921;
14566;-35,26849;-6,548332;-20,87346;-52,6363;
14583;-35,26849;-6,548332;-20,87346;-52,6363;
14600;-34,32814;-4,969885;-22,90322;-51,50904;
14618;-34,75118;-6,427796;-30,87824;-36,39929;
14637;-34,67911;-6,55848;-27,93;-42,27894;
14654;-32,93536;-6,6678;-24,08403;-38,56796;
14672;-33,70489;-7,744024;-30,72241;-39,64137;
14690;-36,22749;-8,0357;-26,82643;-36,55285;
14715;-29,8729;-9,746804;-28,27115;-34,37896;
14732;-36,20973;-1,760768;-30,10138;-36,6498;
14750;-30,24592;-5,709136;-25,21965;-33,48054;
14770;-34,61142;-7,90905;-20,07395;-36,05161;
14788;-33,59338;-8,024321;-22,54117;-37,00491;
14805;-34,28518;-5,571793;-21,8384;-40,47499;
14823;-34,28518;-5,571793;-21,8384;-40,47499;
14841;-36,65719;-6,787943;-23,57745;-42,71586;
14858;-35,44638;-7,162604;-29,61902;-42,09232;
14873;-35,79864;-9,617826;-24,84754;-41,9165;
14889;-34,40496;-3,705554;-24,13358;-32,46008;
14907;-33,04934;-9,4868;-22,37383;-33,35876;
14924;-32,23312;-10,72092;-24,61897;-38,38591;
14940;-32,23312;-10,72092;-24,61897;-38,38591;
14958;-31,28047;-5,719455;-28,05313;-36,03281;
14977;-33,65215;-5,943925;-25,96078;-42,54956;
14996;-34,26512;-3,255625;-32,53745;-35,45558;
15018;-34,97305;-4,595568;-25,19971;-37,80923;
15038;-35,03195;-2,506554;-30,19265;-42,39339;
15054;-33,51027;-6,746357;-27,80711;-51,50771;
15072;-34,26638;-10,3588;-24,8458;-39,85661;
15090;-34,3604;-5,080863;-24,54666;-38,79277;
15109;-35,23489;-5,920919;-24,00006;-33,41254;
15125;-35,61141;-6,085234;-17,88163;-43,42794;
15143;-35,61141;-6,085234;-17,88163;-43,42794;
15162;-32,12838;-5,333177;-23,87715;-29,38449;
15180;-34,31588;-3,720451;-26,84986;-41,01639;
15196;-31,28096;-9,57768;-25,83443;-32,32254;
15213;-34,97608;-3,304076;-24,61736;-38,67177;
15230;-37,08915;-5,4345;-20,46472;-42,93172;
15248;-34,71161;-2,511354;-26,30776;-44,9412;
15265;-31,75596;-7,761876;-25,84485;-34,74824;
15283;-35,71439;-6,219753;-24,41984;-32,02855;
15302;-35,71439;-6,219753;-24,41984;-32,02855;
15322;-33,53285;-5,032666;-32,50961;-28,23829;
15339;-36,05881;-5,682117;-25,22866;-30,7772;
15358;-36,05881;-5,682117;-25,22866;-30,7772;
15377;-35,05123;-7,847141;-22,41745;-43,86089;
15395;-32,92683;-2,418796;-29,3357;-35,76785;
15415;-35,24399;-10,73139;-23,40439;-51,51709;
15431;-33,49109;-5,706567;-25,47144;-32,45346;
15450;-30,06966;-7,671794;-27,80783;-29,90134;
15469;-34,90069;-7,299866;-23,0307;-40,42384;
15487;-33,90582;-7,620114;-30,35349;-32,28552;
15505;-33,05833;-6,443037;-27,4672;-36,93913;
15522;-33,05833;-6,443037;-27,4672;-36,93913;
15538;-32,49884;-6,408121;-19,84626;-31,55972;
15555;-8,646783;-32,36449;-25,85088;-43,58097;
15573;-20,8764;93,9642;-28,2207;-39,1113;
15593;158,0492;195,8209;-33,44141;-39,90696;
15611;2,635071;28,80508;-24,31632;-45,02393;
15631;-63,10276;-269,031;-26,20912;-43,42334;
15650;-61,03535;-60,5259;-24,39127;-37,82148;
15670;-76,07291;3,076009;-24,48911;-33,38584;
15690;-20,35436;112,9417;-31,32047;-36,13886;
15709;-2,477849;-60,14737;-19,98164;-39,14818;
15726;47,52779;4,345876;-30,21803;-50,80782;
15741;47,52779;4,345876;-30,21803;-50,80782;
15761;-32,89378;-8,40066;-25,62231;-41,07727;
15782;-33,42513;-3,157737;-18,85714;-51,43387;
15801;-33,71926;-7,657987;-20,87958;-37,61223;
15819;-34,88664;-8,753953;-26,64288;-46,59019;
15838;-33,4059;-9,637031;-24,63963;-40,73444;
15854;-34,88336;-7,662097;-16,76332;-38,93844;
15873;-33,63226;-5,077194;-24,33997;-26,94908;
15891;-19,18858;0,4835452;-12,37069;-35,9093;
15909;-30,86055;-8,941941;-23,79873;-59,26937;
15926;-34,75322;-4,152618;-40,80244;-63,11233;
15943;-34,75322;-4,152618;-40,80244;-63,11233;
15960;-35,74768;-8,411787;122,9473;82,70595;
15979;-36,91531;-5,869452;-194,3579;-69,89198;
15997;-35,49411;-6,031774;-91,97923;-100,7202;
16016;-31,65748;-2,265498;167,1304;29,11788;
16035;-35,87004;-6,4084;28,14011;-254,0802;
16053;-35,9867;-8,290751;-275,0831;-47,23058;
16072;-31,56343;-5,396029;461,9594;97,2134;
16091;-33,74907;-4,156259;101,5904;-117,6933;
16112;-33,11013;-10,73686;-40,41947;-19,33941;
16131;-34,25969;-3,007921;-119,9624;-303,7133;
16150;-34,26382;-8,773636;15,22311;-21,25798;
16170;-34,03734;-6,505269;-16,25746;-18,69443;
16188;-30,81562;-5,761595;-32,35674;-27,86376;
16205;-33,77994;-9,118282;-44,10688;-42,81279;
16224;-31,80699;-3,977144;-14,50058;-33,06416;
16243;-32,7315;-5,574054;-37,50439;-53,60837;
16260;-32,7315;-5,574054;-37,50439;-53,60837;
16276;-31,92943;-4,242442;-25,23827;-30,83669;
16295;-37,08848;-7,483708;-33,76029;-35,29939;
16312;-34,53312;-7,818276;-19,59402;-76,32673;
16336;-33,42836;-5,969149;-24,21716;-30,03165;
16353;-32,44682;-6,750934;-22,78633;-33,55801;
16371;-37,63205;-7,679541;-12,92964;37,01493;
16388;-33,41636;-3,733715;-25,14986;-96,75964;
16407;-35,69107;-6,383277;-28,43848;-38,29348;
16425;-32,18;-5,419879;-25,08395;-30,94487;
16444;-32,41954;-11,08626;-24,00617;-50,45266;
16461;-32,41954;-11,08626;-24,00617;-50,45266;
16479;-34,88531;-6,295286;-28,72485;-42,14072;
16497;-33,9238;-4,476082;-25,84351;-45,71539;
16516;-33,25967;-3,888437;-26,79449;-34,04269;
16534;-31,93558;-5,6959;-22,99325;-31,74043;
16554;-33,899;-8,765996;-29,11902;-40,82643;
16611;-32,92207;-2,969431;-22,19465;-36,27325;
16629;-36,95214;-8,888124;-36,18431;-39,89818;
16647;-33,74014;-8,267335;-22,66568;-37,25236;
16666;-37,09668;-6,690163;-29,65464;-43,38181;
16684;-34,89869;-6,787983;-29,53855;-34,18375;
16703;-34,40712;-7,159247;-20,59004;-41,80733;
16722;-34,40712;-7,159247;-20,59004;-41,80733;
16738;-34,39777;-5,952225;-35,14656;-55,97141;
16755;-32,94261;-6,228604;-24,39806;-40,39626;
16773;-32,79663;-7,724102;-28,46103;-56,64014;
16793;-35,61378;-5,874498;-23,94207;-45,31343;
16810;-35,61378;-5,874498;-23,94207;-45,31343;
16830;-36,24589;-9,20731;-25,35711;-49,09748;
16847;-34,2709;-8,034416;-17,12583;-40,87482;
16866;-35,06564;-5,22022;-26,83801;-26,18828;
16887;-33,85558;-6,483673;-19,29375;-42,18095;
16904;-31,21597;-7,780424;-30,9057;-40,57838;
16921;-31,21597;-7,780424;-30,9057;-40,57838;
16939;-35,7537;-6,399309;-26,16066;-42,79407;
16956;-31,19772;-7,672102;-23,50581;-36,78865;
16975;-33,09557;-4,104033;-19,21248;-35,99533;
16992;-33,76499;-5,654735;-24,75975;-44,71868;
17012;-31,80007;-13,67878;-21,87851;-30,30018;
17031;-34,64121;-5,687552;-26,94387;-37,53368;
17050;-33,57759;-5,502164;-23,03374;-40,63256;
17069;-33,57041;-5,963104;-21,34936;-35,37255;
17086;-32,09267;-2,138509;-28,17921;-49,41747;
17106;-30,10104;-5,69505;-20,83641;-35,47089;
17125;-30,10104;-5,69505;-20,83641;-35,47089;
17141;-30,10104;-5,69505;-20,83641;-35,47089;
17158;-31,56844;-6,790829;-28,71947;-35,66348;
17176;-33,54131;-5,883994;-26,7177;-37,12055;
17194;-34,14469;-4,976117;-23,66737;-50,83583;
17211;-35,12204;-5,976559;-29,73036;-35,65075;
17229;-36,25478;-7,102035;-16,94397;-48,77229;
17246;-34,49275;-5,932581;-25,20967;-32,28459;
17264;-34,62513;-2,263673;-25,2098;-47,56853;
17282;-34,62513;-2,263673;-25,2098;-47,56853;
17300;-37,20205;-6,349627;-25,40065;-44,93929;
17320;-31,5575;-7,078563;-20,435;-29,8926;
17338;-32,91245;-6,690018;-19,9711;-34,83229;
17359;-35,49831;-6,833678;-25,10177;-40,36626;
17379;-34,87695;-6,057713;-26,77851;-43,30309;
17395;-35,25209;-4,973242;-25,29137;-40,26185;
17414;-34,5184;-5,654345;-20,3548;-36,87003;
17432;-33,89511;-7,09443;-26,24339;-41,70659;
17449;-33,40134;-6,631958;-31,69512;-35,46972;
17467;-32,20942;-4,675024;-19,04766;-47,76877;
17484;-32,88859;-4,967444;-24,93892;-49,198;
17501;-32,88859;-4,967444;-24,93892;-49,198;
17519;-42,80849;-8,361446;-26,17089;-38,68943;
17536;-44,54005;-51,77794;-21,90282;-34,94665;
17553;-8,314555;41,47742;-23,28527;-60,25103;
17571;-23,46124;146,7178;-20,50775;-30,28487;
17588;70,92406;302,7554;-31,23513;-46,6424;
17607;-54,0612;-41,72455;-22,67464;-37,528;
17625;-21,57483;-25,19761;-23,25091;-30,88161;
17645;-145,3535;-13,24777;-29,00975;-26,82061;
17666;-228,6152;-65,25986;-22,24955;-28,7286;
17683;-228,6152;-65,25986;-22,24955;-28,7286;
17701;6,881337;-64,95069;-21,92416;-47,22093;
17719;13,79042;-87,30202;-24,16031;-41,54979;
17738;-43,55287;-17,74071;-34,56855;-47,58249;
17757;-27,01412;15,71364;-26,25824;-39,56093;
17776;-57,3481;-202,5973;-151,2843;-122,4255;
17796;-25,76422;-3,084559;-33,60212;-64,49932;
17813;-35,45291;-8,367721;74,9497;-31,21173;
17831;-34,74652;-5,358393;-209,0647;-70,42105;
17848;-34,50978;-7,34331;-153,6698;32,35146;
17866;-33,64425;-7,476769;48,12432;-46,94578;
17883;-33,64425;-7,476769;48,12432;-46,94578;
17904;-34,51859;-8,117123;-316,161;66,08595;
17920;-34,51859;-8,117123;-316,161;66,08595;
17937;-34,25631;-8,056875;-25,79846;41,12293;
17954;-38,42447;-8,389726;-133,8523;-136,8893;
17977;-33,79251;-6,070726;-36,80067;-93,33173;
17996;-34,63341;-6,921628;-29,73015;-29,15257;
18018;-33,88818;-11,57361;76,3327;-178,5806;
18036;-33,39719;-4,744899;-66,55038;-30,97266;
18056;-32,84591;-7,054179;-20,79467;-41,71811;
18076;-33,27866;-9,390902;-28,12256;-23,94749;
18097;-30,77178;-8,483235;-19,08582;-70,54034;
18117;-34,04146;-4,709103;-18,61022;-53,90577;
18134;-35,24536;-5,206676;-34,96537;-1,086883;
18151;-34,47647;-11,07924;-32,4934;-52,95122;
18169;-36,36761;-8,866047;-28,40872;-60,64383;
18185;-34,54543;-6,525453;-28,89847;-22,71662;
18202;-34,54543;-6,525453;-28,89847;-22,71662;
18218;-37,38109;-6,547455;-20,44762;-4,126228;
18238;-33,25849;-5,772992;-9,435298;-96,75721;
18255;-33,88449;-9,005898;-20,94907;-44,57221;
18275;-31,91208;-6,083547;-35,23067;-28,91747;
18293;-37,39892;-7,771631;-18,13931;-110,6532;
18311;-37,89251;-6,73403;-29,11639;-21,46614;
18329;-33,24176;-5,818417;-30,205;-37,19211;
18346;-32,97395;-3,358713;-28,90471;-36,59791;
18364;-33,73001;-7,396798;-28,96911;-45,35902;
18383;-33,73001;-7,396798;-28,96911;-45,35902;
18401;-33,90125;-7,045195;-33,66576;-45,1956;
18420;-33,8894;-7,559189;-25,72483;-46,23173;
18437;-37,24973;-7,65732;-22,36485;-39,62739;
18455;-32,2218;-10,40798;-20,17087;-40,64599;
18472;-36,40654;-6,432551;-30,66993;-53,1538;
18490;-32,49232;-7,592185;-14,51666;-44,79203;
18509;-33,30647;-10,55484;-25,59051;-62,61654;
18528;-32,54606;-8,81015;-43,99332;-43,87435;
18545;-33,91059;-7,037091;-28,12442;-47,64015;
18561;-33,91059;-7,037091;-28,12442;-47,64015;
18579;-35,08155;-8,886904;-26,57784;-34,44789;
18597;-34,43544;-6,562328;-16,07342;-50,68084;
18616;-33,53004;-5,04046;-28,43428;-28,60334;
18634;-34,58923;-7,66141;-26,10268;-36,70628;
18652;-35,95594;-3,183889;-32,38126;-38,98575;
18671;-33,42191;-4,791245;-22,03256;-39,23101;
18691;-35,00479;-6,010091;-27,21796;-48,75053;
18711;-33,39042;-8,612436;-31,26724;-37,50081;
18728;-33,80323;-5,698726;-24,8416;-53,37767;
18743;-30,83016;-8,586925;-26,15269;-39,92178;
18760;-30,83016;-8,586925;-26,15269;-39,92178;
18778;-35,37738;-2,831144;-26,44668;-39,3808;
18795;-33,76814;-8,884824;-32,42242;-59,00141;
18813;-31,38494;-5,699571;-25,60059;-32,42832;
18829;-36,90736;-7,447307;-11,81828;-37,88681;
18846;-32,78487;-6,390122;-32,09336;-30,66517;
18865;-37,1898;-7,674715;-33,08324;-30,70708;
18881;-37,1898;-7,674715;-33,08324;-30,70708;
18898;-33,59453;-3,884313;-16,81157;-44,21218;
18916;-31,82046;-6,430194;-34,36039;-28,36613;
18933;-33,31767;-6,432876;-27,78776;-30,62096;
18952;-33,92437;-6,857788;-42,63616;-50,39093;
18971;-33,55668;-3,729576;-2,738359;-43,91693;
18989;-37,27862;-4,707476;-13,72311;-39,64018;
19009;-35,78903;-12,86554;-27,85461;-41,1087;
19026;-36,23008;-6,834079;-33,03313;-32,36892;
19045;-32,99381;-6,902295;-38,35167;-51,4939;
19062;-32,99381;-6,902295;-38,35167;-51,4939;
19078;-34,00762;-2,622315;-32,12528;-54,14259;
19096;-25,18567;-10,4841;-34,02829;-34,40722;
19114;-34,87281;-6,012635;-19,0628;-50,23835;
19133;-35,26203;-6,943117;-18,39979;-43,71297;
19149;-35,61658;-6,409325;-19,18197;-49,19101;
19169;-31,31413;-6,05714;-14,67389;-39,51693;
19189;-33,5662;-8,823146;-16,76122;-27,08915;
19206;-33,68589;-1,289739;-41,74924;-49,01169;
19225;-36,02872;-7,863132;-14,13014;-33,81894;
19242;-36,02872;-7,863132;-14,13014;-33,81894;
19259;-28,32743;2,833782;-23,51629;-37,55301;
19277;-13,43471;18,04411;-28,4638;-39,53811;
19295;-40,5711;-9,585387;-24,408;-34,29284;
19314;-70,88409;-4,732207;-16,75732;-39,82495;
19331;-20,40749;-36,35318;-30,98189;-40,95697;
19350;232,5254;336,8483;-24,73131;-41,97044;
19369;-92,90952;-65,42883;-11,4353;-38,22199;
19387;72,30347;69,54287;-42,03353;-39,96351;
19405;-10,0781;53,0056;-27,1162;-22,87836;
19421;-10,0781;53,0056;-27,1162;-22,87836;
19440;-50,78547;-27,71406;-26,93273;-37,23244;
19460;-50,78547;-27,71406;-26,93273;-37,23244;
19477;-98,06213;-98,02781;39,04264;-35,62441;
19494;36,86779;44,48759;-118,8484;-112,6777;
19513;-46,61464;6,663054;-136,8224;-179,4046;
19529;-33,25142;-11,07879;-310,4465;-61,55887;
19548;-42,62524;5,327327;-238,3489;-181,2305;
19565;-35,06949;-6,69015;65,3925;-165,3945;
19590;-26,59607;-13,41637;5,21872;-64,90799;
19608;-33,88661;-7,400228;160,4922;20,90601;
19628;-34,26295;-9,539916;-170,2043;-52,80321;
19648;-31,1947;-6,245258;433,5362;0,07520777;
19667;-33,86732;-7,64124;-203,5687;-196,298;
19685;-34,60056;-5,713989;216,2162;-27,76901;
19706;-34,24337;-6,173951;-148,5403;-51,16326;
19724;-32,55593;-6,023628;-34,68525;-45,03194;
19744;-33,4439;-4,228179;-13,64327;-41,66174;
19766;-36,23276;-2,9383;-43,7795;-66,71964;
19785;-32,1549;-4,340083;-28,37837;-37,16983;
19801;-32,1549;-4,340083;-28,37837;-37,16983;
19819;-37,96561;-1,404228;-27,2333;-42,33716;
19838;-32,64636;-8,159806;-35,99245;-44,7869;
19859;-36,47469;-6,869578;-13,31827;-44,74088;
19875;-33,45694;-6,93709;-33,93683;-21,7305;
19892;-33,45694;-6,93709;-33,93683;-21,7305;
19911;-34,7857;-6,908867;-21,89972;60,36127;
19929;-32,19381;-5,695794;-16,44368;-69,39585;
19946;-32,19381;-5,695794;-16,44368;-69,39585;
19965;-29,83363;-5,646082;-24,53765;-42,68216;
19984;-35,04742;-6,911086;-38,05001;-49,03767;
20001;-35,04742;-6,911086;-38,05001;-49,03767;
20020;-35,37863;-7,393641;-19,11619;-31,93428;
20040;-32,90527;-4,422873;-15,64988;-24,68237;
20056;-37,433;-5,840052;-45,42024;-45,54866;
20074;-36,14971;-8,581626;-18,35388;-41,44429;
20091;-34,67828;-4,711157;-25,25151;-41,81491;
20110;-33,7731;-5,095437;-34,77576;-11,4855;
20130;-31,99627;-5,306752;-32,01034;-37,14536;
20146;-33,36401;-9,207707;-28,75065;-39,6434;
20164;-35,1413;-8,492061;-26,07976;-38,27753;
20181;-35,1413;-8,492061;-26,07976;-38,27753;
20201;-30,90148;-6,083713;-28,78593;-47,35575;
20219;-35,48396;-9,279134;-31,80357;-36,15611;
20239;-33,28961;-7,412555;-30,43735;-38,30472;
20258;-32,9187;-6,079319;-18,10985;-21,51574;
20274;-30,07101;-6,4443;-24,26661;-34,77015;
20292;-32,90762;-7,043635;-27,13228;-37,68498;
20312;-31,7543;-7,327989;-36,19722;-38,11938;
20330;-32,66497;-2,24702;-13,88163;-37,4061;
20346;-37,40438;-6,568548;-18,09137;-34,16633;
20363;-37,40438;-6,568548;-18,09137;-34,16633;
20379;-35,74076;-6,09413;-31,17016;-41,5452;
20400;-33,42597;-7,067303;-28,23372;-30,64344;
20416;-36,58533;-5,952351;-30,43082;-51,62804;
20434;-36,58533;-5,952351;-30,43082;-51,62804;
20452;-34,08839;-6,877298;-27,86991;-43,76744;
20469;-35,96259;-8,458077;-24,05349;-41,84206;
20487;-32,58146;-10,83406;-31,27919;-29,34069;
20506;-32,56221;-7,427611;-28,36926;-38,76427;
20524;-33,47181;-7,77791;-10,66982;-30,33386;
20542;-33,47181;-7,77791;-10,66982;-30,33386;
20559;-34,46568;-7,367832;-30,41491;-51,16034;
20580;-35,26205;-4,707924;-27,59549;-36,02235;
20597;-35,24027;-3,651615;-13,97189;-44,30355;
20614;-34,94756;-5,439795;-28,91049;-26,85223;
20633;-34,04211;-5,573175;-27,49644;-43,69629;
20651;-32,19172;-7,068301;-22,07423;-41,75035;
20668;-32,20782;-6,325915;-22,77045;-34,32116;
20685;-35,0321;-7,055078;-31,35287;-53,35354;
20703;-32,81671;-7,198045;-22,67799;-38,50198;
20722;-32,81671;-7,198045;-22,67799;-38,50198;
20739;-34,29451;-5,386127;-32,67805;-37,50259;
20757;-33,95568;-7,545926;-23,41899;-43,13477;
20777;-32,45487;-8,384079;-15,81954;-38,57359;
20796;-34,08088;-5,323815;-38,73254;-41,6339;
20812;-35,00389;-7,778798;-24,16266;-35,82025;
20831;-34,83927;-5,149606;-29,10422;-40,82984;
20850;-32,91934;-6,86047;-27,65086;-44,39585;
20867;-35,75403;-7,657746;-18,24353;-46,12708;
20886;-33,88276;-6,424578;-20,56327;-33,26715;
20904;-32,36537;-10,22608;-23,5591;-39,49261;
20919;-32,36537;-10,22608;-23,5591;-39,49261;
20938;-35,43304;-3,739897;-35,04625;-52,03487;
20955;-35,75386;-3,103855;-22,71087;-42,87299;
20976;-32,73105;-8,775015;-28,94305;-39,74702;
20994;-28,44484;-6,607059;-27,40259;-41,36189;
21012;-30,29422;-7,027977;-27,81964;-35,42597;
21031;-29,79203;-10,86293;-23,79197;-50,99158;
21050;-58,74504;-48,70008;-30,9899;-33,86368;
21067;-37,33451;-28,02739;-21,18336;-47,40278;
21085;17,30313;80,4024;-22,07155;-38,31911;
21104;45,94755;172,9183;-19,12275;-36,69136;
21120;45,94755;172,9183;-19,12275;-36,69136;
21138;-107,3751;-66,53287;-24,48698;-29,31034;
21155;-107,9571;-91,55131;-15,32781;-33,74864;
21174;-11,70369;-19,06093;-24,49756;-28,54791;
21192;120,3558;-10,95789;-26,54232;-39,83971;
21214;-63,51893;-19,07113;-16,44117;-25,31606;
21232;35,79793;-126,7006;-32,77679;-38,72568;
21251;-58,37867;36,84815;-24,26734;-37,15293;
21269;47,20936;281,6673;-50,58892;-35,80155;
21286;-41,24986;-5,673501;-25,13158;-46,66164;
21305;-55,70852;6,936328;-120,9716;-28,02245;
21322;-55,70852;6,936328;-120,9716;-28,02245;
21339;-43,86003;-27,83659;-180,3338;-55,90205;
21358;-30,22343;-8,742535;205,916;15,08941;
21377;-37,40173;-6,42315;-66,25529;-166,3578;
21395;-36,26567;-6,460229;383,5727;26,56418;
21412;-37,94288;-3,746778;-223,6769;-40,09657;
21429;-32,04531;-5,390103;-72,948;-155,9463;
21446;-31,32004;-7,568973;59,67327;0,1309594;
21466;-32,37196;-5,825638;-170,4555;-42,36181;
21482;-32,37196;-5,825638;-170,4555;-42,36181;
21498;-35,72178;-7,78647;-21,70364;-1,074193;
21516;-33,02264;-5,069405;-16,2388;-75,21368;
21536;-32,64484;-6,873848;-8,740577;-65,85172;
21552;-32,92878;-6,215495;-133,3009;-14,37085;
21572;-32,95315;-4,523481;-37,45932;-57,40712;
21592;-34,83682;-9,20044;-40,65133;-41,47971;
21612;-34,4928;-7,185812;-37,48193;-26,61053;
21634;-34,15401;-9,554122;-32,68027;-51,26503;
21655;-33,76921;-8,391132;-16,27104;-19,95289;
21674;-35,03311;-4,469157;-25,61394;-17,36095;
21691;-34,53406;-9,218275;-20,52714;-63,68955;
21710;-36,43016;-6,388547;-35,69716;-40,67662;
21728;-35,60805;-3,7243;-18,49103;-73,45135;
21746;-34,77789;-9,833581;-21,69286;-22,67554;
21766;-33,30016;-5,898794;-8,176183;-87,54404;
21784;-32,54613;-8,376992;-24,13785;-58,55204;
21801;-32,54613;-8,376992;-24,13785;-58,55204;
21818;-33,41832;-5,196068;-6,339696;-28,11657;
21838;-32,07451;-7,049686;-35,43578;-33,08422;
21856;-34,3927;-4,307653;-28,47395;-43,32491;
21874;-36,48324;-3,855762;-21,90712;-31,81856;
21893;-34,73562;-8,194254;-21,67926;-37,9216;
21912;-33,96676;-6,261574;-20,00921;-40,18712;
21932;-32,52913;-5,686614;-42,82555;-47,39235;
21950;-31,94574;-8,413766;-25,72543;-54,12162;
21967;-33,96222;-5,895409;-22,0651;-25,24435;
21986;-36,28931;-7,246716;-34,15585;-28,49922;
22004;-33,33919;-4,010016;-25,21204;-36,9719;
22024;-34,46052;-10,47784;-18,3776;-37,40168;
22044;-31,81391;-3,745801;-32,33665;-38,37691;
22062;-31,81391;-3,745801;-32,33665;-38,37691;
22079;-30,96203;-5,914644;-24,52778;-33,07396;
22097;-33,91998;-7,402363;-23,47204;-54,5395;
22115;-36,69401;-10,21822;-29,86043;-36,35204;
22133;-31,56843;-3,359384;-25,82653;-41,92036;
22151;-34,39018;-7,525858;-26,44331;-25,9685;
22171;-33,41332;-7,642164;-29,49606;-37,25191;
22189;-33,98983;-6,739088;-18,71186;-45,19844;
22208;-29,86637;-4,945477;-26,40503;-27,49749;
22226;-31,75165;-5,157625;-28,5348;-44,33969;
22245;-32,35627;-3,109928;-26,81825;-50,24866;
22262;-32,35627;-3,109928;-26,81825;-50,24866;
22279;-34,48654;-6,175131;-17,35021;-43,34039;
22297;-32,74051;-3,705002;-32,1068;-37,47022;
22315;-32,58859;-9,909495;-25,77873;-33,61922;
22334;-37,97854;-5,201665;-19,70805;-35,50541;
22351;-33,79462;-2,885324;-28,75925;-44,06193;
22369;-33,25999;-6,608294;-23,92475;-40,57306;
22388;-34,25907;-5,361489;-28,89657;-39,4566;
22406;-36,442;-9,363924;-28,62716;-42,12549;
22424;-33,01114;-6,385324;-27,44654;-40,96282;
22443;-33,01114;-6,385324;-27,44654;-40,96282;
22459;-37,2324;-1,850486;-28,54235;-24,12777;
22476;-32,01323;-8,36601;-26,57069;-42,55935;
22494;-36,19957;-7,043724;-19,93635;-43,93645;
22512;-34,75099;-7,561826;-29,26713;-32,77164;
22529;-33,55008;-8,817599;-21,13499;-41,64639;
22546;-30,72056;-4,755811;-25,52503;-38,68039;
22562;-30,72056;-4,755811;-25,52503;-38,68039;
22579;-38,44338;-6,446457;-23,48896;-35,29121;
22597;-32,90562;-7,399487;-23,36679;-46,69746;
22615;-34,85205;-3,820085;-27,96608;-38,26466;
22637;-34,2908;-6,608366;-35,76736;-41,55191;
22653;-35,87022;-5,060087;-27,19154;-38,67406;
22670;-34,27013;-9,377785;-27,37947;-46,94633;
22688;-33,71291;-6,593944;-27,21767;-47,33704;
22705;-33,89763;-2,551469;-27,46969;-44,12812;
22723;-34,98519;-4,86387;-32,70329;-43,85053;
22740;-34,98519;-4,86387;-32,70329;-43,85053;
22757;-33,97584;-7,318706;-25,05336;-36,92983;
22776;-34,51114;-6,323308;-22,07792;-43,36948;
22795;-33,54063;-4,801372;-23,39251;-41,41475;
22812;-35,26143;-9,235451;-23,33064;-42,91132;
22837;-32,55697;-7,146677;-35,99613;-41,4285;
22855;-33,92713;-3,095673;-18,49259;-32,42553;
22873;-38,19579;-3,607722;-23,63303;-26,72336;
22891;-34,09149;-4,649422;-26,46278;-38,76094;
22909;-32,51117;-9,017076;-20,52827;-47,16438;
22926;-20,63622;-2,940437;-26,9415;-51,88515;
22944;-7,651667;10,17876;-23,12705;-45,01842;
22963;-7,651667;10,17876;-23,12705;-45,01842;
22982;-57,03419;-32,6547;11,39062;-34,5345;
23000;106,2516;22,95814;8,935077;-34,52995;
23016;-62,73158;24,98371;-106,3965;-12,21515;
23035;-11,28781;-33,18484;-69,85785;-169,9884;
23054;-115,0401;-105,333;-110,6256;-16,50404;
23071;-28,80458;-21,12731;51,42075;19,46865;
23088;-90,10349;-40,87846;-126,7502;-142,2288;
23105;-71,82822;-60,70894;-83,68704;-120,0906;
23125;-15,98245;1,810063;-166,7237;-23,99036;
23142;-15,98245;1,810063;-166,7237;-23,99036;
23161;-42,65105;10,96974;152,1131;-11,28362;
23180;-25,71398;11,35221;58,04243;-66,36168;
23199;-32,97839;-2,115263;-90,1124;-38,5509;
23217;-30,56839;-4,261742;-238,6771;-69,77372;
23239;-34,27909;-8,859392;-96,05126;36,0523;
23258;-40,62223;-9,747385;-89,63761;-44,61635;
23276;-35,24319;-11,08988;21,81364;-58,92447;
23293;-35,24319;-11,08988;21,81364;-58,92447;
23311;-31,01537;-6,4551;-20,56472;-30,76096;
23329;-36,98625;-4,67086;-24,5013;-46,55804;
23348;-33,69195;-7,406474;-31,57998;-61,30158;
23368;-35,4303;-6,080391;-16,64966;-39,43299;
23390;-34,32141;-9,630383;-39,56509;-57,605;
23409;-35,73973;-6,047615;-30,71295;-43,49477;
23426;-35,49307;-11,08677;-23,80142;-32,62142;
23445;-33,93486;-7,185388;-28,05879;-38,11574;
23463;-34,77045;-6,42238;-53,38393;-23,14907;
23480;-34,77045;-6,42238;-53,38393;-23,14907;
23499;-34,48978;-4,732891;-31,80777;-29,85237;
23516;-30,89933;-8,369053;-17,59922;-78,52678;
23535;-34,25099;-4,708992;-24,26111;-12,9627;
23554;-35,918;-8,11736;-22,38029;-29,60256;
23572;-34,99941;-6,438362;-20,78615;-43,32953;
23589;-32,44457;-7,409308;-27,19669;-45,20612;
23605;-37,59016;-5,358455;-23,75125;-43,94072;
23623;-37,59016;-5,358455;-23,75125;-43,94072;
23640;-34,09117;-7,679874;-22,78587;-36,09277;
23660;-32,43601;-9,792775;-29,15608;-43,77446;
23678;-37,22116;-9,114237;-25,25572;-40,3637;
23696;-33,29066;-6,34407;-28,74004;-41,30591;
23715;-34,2581;-10,4799;-23,04581;-44,44778;
23734;-32,06023;-7,046771;-27,98325;-47,22242;
23753;-33,77271;-6,496966;-24,85855;-52,2423;
23773;-31,6346;-7,284105;-20,72348;-34,19573;
23788;-35,42843;-5,930756;-24,68796;-38,29451;
23805;-32,09108;-7,894547;-22,30713;-38,62478;
23821;-32,09108;-7,894547;-22,30713;-38,62478;
23840;-36,08133;-5,859011;-28,62941;-51,90704;
23858;-35,74247;-11,08881;-29,24548;-31,4373;
23875;-33,55867;-6,118494;-23,316;-42,41212;
23892;-36,40646;-7,415584;-17,20822;-42,34032;
23910;-32,36166;-5,709336;-28,53724;-27,84814;
23927;-32,36166;-5,709336;-28,53724;-27,84814;
23943;-32,36166;-5,709336;-28,53724;-27,84814;
23961;-35,37683;-5,451726;-30,06122;-41,2106;
23980;-32,18851;-8,376559;-23,03521;-42,4856;
23999;-33,26403;-8,912148;-18,3538;-49,71468;
24016;-32,19161;-8,497025;-18,47367;-31,61664;
24035;-34,2357;-5,950475;-26,45175;-35,22035;
24052;-34,53195;-6,23395;-20,89115;-39,86038;
24069;-33,86384;-8,92062;-24,76089;-38,19465;
24086;-32,54849;-3,174957;-23,6458;-36,66438;
24102;-32,54849;-3,174957;-23,6458;-36,66438;
24118;-36,22909;-3,745644;-24,73502;-43,38633;
24136;-33,05442;-8,854742;-32,1968;-57,39626;
24156;-35,41404;-8,015205;-33,21389;-41,58551;
24175;-34,42487;-8,676228;-27,1684;-35,04781;
24192;-35,62201;-8,016937;-40,10738;-33,28762;
24210;-34,88596;-6,55324;-31,08159;-33,70342;
24226;-33,01371;-9,734272;-24,74572;-34,20045;
24243;-33,73573;-7,718221;-23,03657;-30,38778;
24262;-33,73573;-7,718221;-23,03657;-30,38778;
24279;-33,1655;-9,340202;-24,11295;-39,84877;
24296;-35,41987;-6,109099;-21,42535;-41,86512;
24314;-35,24727;-2,261896;-27,69017;-44,95079;
24333;-33,53909;-6,071218;-22,0869;-37,17053;
24351;-34,2579;-5,962218;-19,97468;-34,76545;
24372;-32,56819;-8,364336;-25,24491;-36,46351;
24390;-33,53056;-3,191101;-21,26103;-41,9517;
24407;-32,93209;-10,07804;-21,54034;-32,29467;
24423;-32,92302;-3,370042;-21,06394;-39,0785;
24446;-33,72152;-5,066926;-22,36948;-41,55358;
24464;-35,91096;-8,763373;-27,36859;-45,97071;
24480;-35,91096;-8,763373;-27,36859;-45,97071;
24499;-34,87752;-9,977332;-22,0792;-33,52575;
24517;-33,52827;-9,39924;-24,94215;-38,76964;
24536;-33,73207;-5,812046;-24,68879;-37,53505;
24553;-35,2434;-6,14221;-26,17444;-41,7739;
24611;-34,2865;1,818811;-22,16317;-41,93851;
24629;-29,46791;-0,8771638;-23,17387;-50,0386;
24648;-0,3001355;86,62696;-22,87054;-34,15734;
24667;-67,89159;-38,73706;-23,41063;-29,89528;
24685;-77,05455;-69,09763;-22,44693;-33,86298;
24705;-286,2482;-218,681;-34,58858;-36,96937;
24721;-286,2482;-218,681;-34,58858;-36,96937;
24738;-82,81668;-5,080839;-23,87965;-47,64653;
24758;-79,97415;-42,75548;-25,1049;-34,56557;
24777;-5,249382;-20,60256;-23,76204;-37,91434;
24796;9,192974;88,41058;-24,86964;-39,17275;
24812;-163,3228;-124,6964;-39,92009;-34,83881;
24830;-140,326;-117,8478;4,078949;-46,23668;
24852;89,96951;-109,8486;-13,28803;-41,03461;
24871;79,28201;-73,8164;-24,03492;-37,79478;
24888;-57,94214;-25,44214;-33,16311;-37,78699;
24907;48,10459;-0,8728333;-30,81109;-45,39766;
24923;48,10459;-0,8728333;-30,81109;-45,39766;
24940;-37,67268;38,47227;-23,947;-41,15328;
24957;-37,51673;-5,340765;-30,40899;-44,06511;
24976;-34,78073;-6,890245;-27,18758;-42,52481;
24994;-34,75212;-5,707401;-10,27221;-38,1883;
25012;-35,89867;-4,368209;-10,61;-24,91231;
25030;-37,19567;-2,339176;-37,21519;-109,4929;
25049;-34,50477;-2,650589;47,21535;17,18885;
25066;-32,93724;-8,039188;99,37492;-6,791048;
25083;-31,85087;-3,38923;-23,86954;94,85596;
25100;-31,85087;-3,38923;-23,86954;94,85596;
25117;-33,96789;-7,067406;-139,0922;6,110713;
25135;-32,56294;-7,282391;-162,7148;-63,65484;
25152;-33,86913;-3,714196;-48,64442;54,92677;
25171;-34,2742;-10,61479;-115,0953;-10,53175;
25192;-36,10856;-3,68729;-185,2558;4,388821;
25208;-34,454;-5,995965;134,0767;-14,81351;
25226;-34,88792;-8,404167;-102,048;-27,50541;
25243;-34,88792;-8,404167;-102,048;-27,50541;
25261;-33,80416;-4,362098;1,130287;-71,43313;
25278;-32,57002;-5,19574;-30,84187;-43,81463;
25296;-34,0476;-7,01384;-11,97727;-29,88723;
25314;-35,60139;-11,08877;-33,587;-19,19646;
25333;-32,99871;-1,849404;-27,78775;-15,55128;
25352;-33,03777;-8,140874;-6,787922;-30,70854;
25374;-33,42249;-6,660398;-17,69742;-52,12669;
25390;-35,44412;-9,970997;-34,48093;3,950404;
25409;-33,77011;-4,73225;-27,88406;-88,44536;
25426;-35,61581;-8,12014;-30,34577;-47,85505;
25444;-35,7513;-6,198923;-29,25442;-7,383367;
25460;-35,7513;-6,198923;-29,25442;-7,383367;
25479;-36,67441;-7,408988;-39,97926;-87,46069;
25496;-36,68028;-8,034965;-33,31225;-47,12769;
25513;-33,36403;-4,904985;-14,64125;-40,24367;
25531;-33,91277;-8,130791;-17,12207;-46,03547;
25550;-34,06818;-7,772922;-29,36802;-51,98382;
25570;-35,43633;-7,924565;-19,8002;-35,70775;
25586;-36,60128;-6,069458;-33,06862;-28,07223;
25606;-31,94306;-6,076;-21,08537;-50,9249;
25622;-31,94306;-6,076;-21,08537;-50,9249;
25640;-33,17939;-6,805203;-2,765676;-41,13565;
25657;-35,39974;-6,412447;-32,74078;-44,72839;
25675;-32,68423;-7,662188;-23,77707;-34,62524;
25693;-35,73898;-5,692466;-36,9494;-36,26537;
25711;-32,16664;-6,387332;-20,55785;-51,08981;
25729;-34,30106;-3,268861;-35,48247;-35,1557;
25745;-34,05013;-6,669168;-27,22597;-29,574;
25765;-33,72751;-4,614162;-16,62124;-32,69346;
25783;-31,96592;-5,465025;-33,26346;-50,59869;
25801;-31,96592;-5,465025;-33,26346;-50,59869;
25817;-34,4038;-5,068128;-28,73834;-54,23532;
25834;-32,1991;-4,921892;-23,26803;-27,45359;
25853;-34,53548;-7,426095;-14,28522;-51,91269;
25871;-31,04799;-4,49496;-23,35964;-20,6285;
25891;-31,28066;-4,272457;-17,83482;-31,29594;
25910;-33,66625;-6,122593;-26,13203;-40,57005;
25928;-32,72996;-9,10182;-28,96742;-51,99903;
25945;-33,94818;-7,77337;-22,02401;-30,61385;
25962;-33,94818;-7,77337;-22,02401;-30,61385;
25979;-33,15208;-7,237984;-12,55978;-49,18433;
25998;-32,9198;-3,534104;-28,07047;-42,48718;
26015;-32,06228;-6,208038;-21,91751;-31,83885;
26034;-38,49184;-3,005758;-44,71679;-42,10726;
26052;-36,05858;-8,111948;-9,762321;-55,43081;
26075;-35,61391;-7,905899;-18,62218;-29,12334;
26092;-32,5691;-3,131668;-35,25822;-46,24421;
26110;-32,9087;-6,142529;-23,71028;-33,8336;
26128;-33,28966;-4,703827;-31,14137;-32,66817;
26147;-33,56645;-11,46271;-20,8623;-29,36279;
26162;-33,56645;-11,46271;-20,8623;-29,36279;
26181;-31,93052;-5,073235;-19,82192;-36,51343;
26200;-34,27071;-10,45493;-17,12202;-31,87824;
26217;-32,73069;-5,74349;-15,35892;-44,54209;
26237;-34,7112;-8,895124;-33,94033;-40,58826;
26256;-36,19082;-7,429169;-19,6008;-48,28964;
26274;-33,7176;-6,858418;-15,15441;-29,08425;
26293;-35,79203;-8,563812;-34,60511;-42,55408;
26311;-34,35987;-3,673505;-31,23489;-38,76691;
26330;-33,91217;-9,25152;-15,71666;-37,55729;
26350;-35,96174;-5,696789;-22,13198;-37,80873;
26367;-32,91796;-7,628185;-14,79049;-49,02426;
26387;-32,11044;-5,097798;-23,78957;-39,8451;
26405;-33,92731;-5,183383;-24,69138;-59,89186;
26424;-33,58622;-0,1668361;-16,79062;-35,24837;
26441;-33,58622;-0,1668361;-16,79062;-35,24837;
26460;17,6619;29,75332;-15,24761;-47,41857;
26477;-31,62985;65,18571;-30,33654;-40,16337;
26494;-30,81177;-14,16477;-33,53899;-46,8619;
26512;-78,92662;-49,47516;-21,13122;-18,71462;
26530;-252,1219;-207,1209;-55,74397;-24,10098;
26548;39,67217;82,11082;-25,70475;-115,2133;
26567;149,3047;-45,23136;-27,15659;-37,71211;
26586;-47,05917;50,80259;-34,79263;-48,58879;
26603;-47,05917;50,80259;-34,79263;-48,58879;
26619;-351,2346;-52,57048;-11,31979;-18,62945;
26640;128,4455;10,39561;-365,4101;-189,2365;
26658;390,9821;-5,118389;-147,9153;-25,74798;
26675;-103,4186;-22,5784;-458,3807;1,000614;
26693;-26,76294;31,1365;158,6569;-24,63507;
26712;-29,00782;3,445869;-56,67094;0,5193781;
26730;-25,91286;32,70227;-44,51585;-169,0368;
26748;-31,00934;-3,380603;650,105;39,16855;
26770;-36,89908;-7,405172;279,7673;-50,80501;
26790;-35,40552;-8,75571;-50,39921;-7,993268;
26811;-30,0473;-9,250038;-27,26758;-77,76584;
26830;-33,40513;-9,239554;-91,64168;-18,84159;
26848;-33,35281;-8,923559;155,5347;6,57347;
26865;-30,84327;-7,660056;54,18771;-12,18902;
26882;-30,84327;-7,660056;54,18771;-12,18902;
26899;-34,55803;-7,431199;-40,34906;-42,56091;
26916;-34,20439;-6,654195;-36,21758;-49,3763;
26934;-33,54777;-4,431431;9,438416;-24,93006;
26952;-37,54447;-2,879678;-36,94197;-27,40486;
26971;-34,88744;-8,740223;-22,18356;-81,38741;
26990;-33,2738;-7,880661;-1,850654;-19,63825;
27007;-32,89505;-6,150839;-37,07957;-70,13094;
27026;-31,41713;-4,058734;-17,24795;-36,28563;
27045;-36,57814;-8,627376;-19,27224;-30,75773;
27063;-36,57814;-8,627376;-19,27224;-30,75773;
27080;-37,1946;-7,404358;-31,81797;-31,1891;
27100;-35,24841;-6,614845;-15,97875;-87,48569;
27117;-31,39504;-9,739957;-32,75195;-54,30864;
27134;-36,21653;-4,623511;-34,58648;-32,15826;
27151;-34,38632;-6,078207;-22,7457;-27,95688;
27170;-32,08413;-7,419086;-47,22987;-31,51938;
27187;-36,89387;-7,67351;-26,50339;-40,72292;
27205;-33,28598;-5,174491;-30,04103;-51,83652;
27224;-34,86566;-4,964912;-20,54788;-39,49716;
27241;-34,86566;-4,964912;-20,54788;-39,49716;
27259;-30,94227;-6,051745;-42,80472;-29,87129;
27277;-36,40802;-8,391516;-18,9391;-37,35303;
27294;-31,8222;-5,830195;-9,125907;-45,27399;
27312;-32,93714;-11,60202;-24,10107;-30,42458;
27329;-34,28043;-8,027678;-25,83577;-35,48983;
27346;-32,91752;-7,441043;-24,34937;-38,24928;
27364;-34,90207;-3,528251;-5,823912;-48,26184;
27381;-34,90207;-3,528251;-5,823912;-48,26184;
27399;-35,49621;-7,270803;-20,34291;-37,93377;
27416;-35,73747;-7,238318;-30,73266;-32,57724;
27434;-31,5439;-7,350707;-15,23469;-41,22163;
27452;-33,90728;-5,797867;-19,40312;-33,5027;
27471;-36,59666;-6,702167;-13,90588;-42,03985;
27489;-36,02268;-6,433792;-20,92031;-46,6566;
27509;-31,81322;-4,340111;-34,5261;-41,08104;
27526;-32,86872;-6,07734;-22,90418;-33,75318;
27542;-32,86872;-6,07734;-22,90418;-33,75318;
27559;-33,53637;-8,577329;-15,65465;-53,50119;
27579;-36,8919;-9,006586;-30,77199;-41,65384;
27597;-33,55209;-6,710368;-43,55412;-43,96199;
27614;-36,04483;-6,519042;-27,89419;-29,45127;
27633;-34,69121;-11,93393;-29,29575;-46,2274;
27652;-35,42153;-7,021241;-9,189482;-38,37692;
27676;-31,77219;-8,490417;-37,76918;-39,06606;
27693;-32,63931;-5,525918;-28,99851;-26,23776;
27710;-33,39605;-3,011896;-20,45535;-53,29365;
27727;-35,38139;-7,587437;-20,48742;-32,75327;
27744;-31,33215;-5,821187;-20,6134;-45,66635;
27763;-31,33215;-5,821187;-20,6134;-45,66635;
27780;-33,71524;-7,620194;-23,58397;-43,10722;
27798;-35,37613;-7,421068;-26,18034;-30,21607;
27815;-35,4244;-4,503895;-27,18117;-34,95493;
27834;-32,54227;-6,693516;-28,54108;-33,22694;
27853;-34,0223;-11,07067;-25,82973;-51,74829;
27870;-36,61072;-3,582734;-26,10061;-30,77697;
27888;-35,27987;-6,264238;-30,99213;-61,03468;
27907;-31,5881;-9,813051;-23,20129;-46,92352;
27924;-34,74227;-7,542399;-49,40429;-36,48526;
27940;-34,74227;-7,542399;-49,40429;-36,48526;
27957;-33,95718;-6,594392;-15,90675;-47,94617;
27975;-35,74558;-7,167722;-39,89831;-8,600802;
27992;-35,42865;-6,070896;-7,553643;-59,2474;
28010;-35,614;-5,727932;-28,90612;-40,70992;
28028;-31,05192;-6,611585;-36,59996;-33,51585;
28046;-35,26128;-6,251747;-25,8285;-26,10621;
28065;-32,36874;-3,769342;-13,70264;-39,93344;
28082;-32,36874;-3,769342;-13,70264;-39,93344;
28099;-36,77056;-8,651038;-36,86174;-32,87933;
28117;-31,82623;-4,54147;-7,21005;-55,29804;
28135;-35,20031;-8,414814;-48,732;-37,82405;
28152;-36,55392;-5,338011;-26,10358;-30,81721;
28169;-33,53356;-7,067659;-38,17862;-52,37587;
28186;-35,61441;-8,284113;-48,76604;-51,65995;
28205;-7,963181;-16,48;-31,83141;-37,56018;
28224;-97,14057;-48,07609;-27,63351;-43,56525;
28243;-97,14057;-48,07609;-27,63351;-43,56525;
28259;-73,77727;-46,60881;-49,88174;-40,24533;
28277;-2,258643;-59,86894;0,8109654;-23,96204;
28295;-43,75759;-138,666;-81,98621;-41,02538;
28314;14,89551;85,82742;5,122624;-57,22181;
28335;-245,22;157,5305;-83,06862;-26,50689;
28353;-115,3216;-9,754163;-15,33385;-74,87926;
28372;236,57;35,4659;-28,42055;-11,67935;
28389;-16,12516;-63,77505;-89,03346;-71,98215;
28408;268,7635;1,405774;-306,3038;48,0789;
28427;-83,93851;-85,80972;41,74295;78,76479;
28446;-124,1534;-7,724663;-82,13816;-161,7276;
28461;-124,1534;-7,724663;-82,13816;-161,7276;
28478;-62,13862;-27,7398;209,6738;29,54738;
28495;-99,43541;-14,85224;9,586411;-73,22611;
28513;-46,48251;-13,77058;53,09807;-45,46464;
28530;-21,81594;6,948125;-21,15121;-33,11073;
28548;-36,82258;-3,86649;-23,39672;-47,81073;
28569;-42,29526;-16,37654;-35,51194;-210,5265;
28586;-36,14547;-9,842299;-137,7959;-44,50726;
28605;-6,983034;0,7019776;-47,0661;-7,698058;
28622;-6,983034;0,7019776;-47,0661;-7,698058;
28641;-34,76331;-9,174639;-21,358;-47,56648;
28658;-35,11094;-6,389325;-30,38487;-29,57148;
28675;-34,8847;-6,853502;-34,97202;-50,74847;
28693;-34,39145;-3,714617;0,1388754;-78,22231;
28714;-32,95257;-7,947969;-28,78086;-37,87973;
28735;-33,8491;-4,197904;-6,08913;-35,70289;
28754;-31,93472;-12,78666;-21,16834;-34,46255;
28772;-32,54407;-7,346226;-39,37676;-30,52497;
28789;-32,53429;-5,995492;-32,26155;-60,2286;
28807;-33,58124;-6,776198;-19,51759;-40,63519;
28825;-32,99344;-7,391729;-18,43238;-67,50157;
28844;-35,9647;-6,910198;-40,81523;-57,5164;
28860;-35,9647;-6,910198;-40,81523;-57,5164;
28877;-33,05984;-6,385704;-27,69613;-91,01268;
28894;-34,90486;-10,12683;-18,33083;-44,9854;
28912;-33,30003;-7,283201;-22,28136;-37,26382;
28932;-34,02032;-4,728435;-16,09639;-22,87848;
28948;-33,05231;-5,394044;-31,6141;-49,04686;
28965;-34,90737;-8,594916;-33,0717;-58,03232;
28982;-34,90737;-8,594916;-33,0717;-58,03232;
29000;-30,53124;-6,679638;-23,76987;-35,73624;
29019;-36,6003;-6,052943;-22,78297;-41,33521;
29037;-35,81263;-4,32379;-18,91959;-46,22435;
29053;-35,53427;-7,039783;-30,20771;-19,02871;
29069;-35,49642;-8,629197;-19,9835;-55,43094;
29084;-33,54575;-6,785227;-17,37256;-41,69598;
29103;-33,54575;-6,785227;-17,37256;-41,69598;
29120;-34,512;-6,424384;-17,42583;-51,07915;
29138;-33,10014;-5,889284;-23,6291;-40,73859;
29156;-32,27642;-5,208032;-17,62395;-41,60735;
29174;-36,12452;-8,027667;-22,93167;-31,0756;
29193;-33,53735;-4,800406;-19,57655;-38,69228;
29212;-33,27537;-8,762685;-26,87801;-41,12213;
29230;-34,85496;-5,248544;-12,44294;-39,65046;
29254;-33,9151;-9,115425;-47,98495;-35,19716;
29271;-32,56186;-3,742757;-13,23548;-40,98949;
29288;-34,26595;-8,38224;-28,13443;-45,24202;
29306;-32,00932;-8,206526;-23,9682;-64,55859;
29325;-34,38232;-7,661485;-31,71818;-44,67611;
29344;-34,26558;-2,023027;-24,87304;-40,958;
29361;-34,26558;-2,023027;-24,87304;-40,958;
29380;-32,45598;-5,266635;-19,56657;-32,67918;
29400;-35,86177;-9,63849;-28,66526;-33,74709;
29417;-34,36812;-7,070167;-44,23279;-44,85255;
29436;-35,0242;-6,674501;-20,82128;-41,87188;
29451;-36,28251;-4,007183;-31,1419;-45,73326;
29468;-35,4224;-6,434366;-13,18868;-31,51374;
29486;-33,92263;-5,953951;-22,92752;-45,0917;
29507;-37,39024;-5,933203;-34,20233;-37,93634;
29523;-34,76235;-6,785702;-20,47922;-35,24593;
29540;-34,76235;-6,785702;-20,47922;-35,24593;
29557;-35,60201;-5,458075;-35,03974;-37,36189;
29576;-34,73011;-6,131801;-19,96954;-43,09304;
29593;-33,24994;-6,432359;-30,05969;-24,25121;
29610;-32,68372;-6,415132;-27,91916;-43,59357;
29626;-33,73624;-8,012244;-28,17217;-47,94088;
29645;-33,90588;-4,005843;-25,21778;-37,61505;
29663;-33,90588;-4,005843;-25,21778;-37,61505;
29678;-33,22747;-3,722946;-22,04358;-41,96352;
29696;-31,90289;-6,322603;-24,36479;-38,66092;
29714;-34,39843;-10,73041;-24,08306;-42,00603;
29733;-33,04955;-5,708786;-20,62405;-44,70773;
29750;-34,34488;-4,981998;-22,69679;-41,55103;
29767;-34,66312;-5,3264;-37,95869;-35,82512;
29784;-36,9206;-6,074211;-22,69085;-33,27108;
29801;-36,9206;-6,074211;-22,69085;-33,27108;
29818;-35,24246;-5,714551;-22,72222;-47,47168;
29836;-34,70509;-8,290838;-25,64949;-41,2026;
29853;-31,30824;-7,020305;-24,89909;-47,95854;
29872;-36,04738;-6,626585;-26,10669;-26,51092;
29888;-34,53971;-8,033656;-25,81412;-37,32926;
29906;-33,5637;-6,366693;-33,47966;-28,87444;
29924;-33,69447;-9,021785;-22,16722;-43,92709;
29942;-33,69447;-9,021785;-22,16722;-43,92709;
29958;-34,52539;-5,340795;-21,47648;-32,7459;
29975;-34,47251;-5,751123;-27,90464;-43,6907;
29993;-7,753311;5,67321;-19,9202;-41,94645;
30011;-14,68335;-3,985207;-28,03545;-38,79666;
30031;-51,77617;32,20116;-16,16833;-39,8454;
30048;62,76419;17,25875;-21,09766;-36,2743;
30066;-135,011;-72,15127;-25,92368;-40,91776;
30085;-271,8247;-159,1783;-29,52327;-37,03175;
30103;-271,8247;-159,1783;-29,52327;-37,03175;
30122;-166,998;-51,50893;-25,85598;-36,09163;
30141;40,47992;6,598008;-29,14761;-35,94577;
30164;-32,22548;-61,05237;-34,00596;-17,16512;
30183;118,8214;-74,26096;-17,09693;-40,24914;
30201;118,8214;-74,26096;-17,09693;-40,24914;
30219;-41,00921;-11,08624;-133,9862;-15,64786;
30237;-26,92491;-6,134454;-81,99617;-21,01987;
30257;-45,38506;15,24403;30,9028;0,1657387;
30274;-36,74818;-15,79234;-38,72926;-37,74386;
30290;-36,21896;-6,412333;-16,71323;-50,1586;
30309;-36,1926;-3,020791;-38,44263;-42,70545;
30327;-34,12247;-8,002066;4,966813;-148,7124;
30344;-31,07904;-5,09967;-120,9021;-167,1849;
30361;-31,07904;-5,09967;-120,9021;-167,1849;
30378;-35,86296;-7,672617;58,32711;-13,24357;
30397;-32,64764;-18,10504;-18,85427;24,88178;
30416;-32,1132;-8,763937;-36,11903;58,44204;
30434;-37,20306;-5,306354;-189,6865;12,55009;
30452;-31,93798;-5,111143;96,65878;20,67541;
30470;-33,73503;-4,959723;-18,85628;-27,9629;
30488;-34,8922;-6,319626;-92,53965;-85,48827;
30507;-33,49406;-5,631259;-3,761761;-28,82835;
30526;-33,76721;-7,405323;-6,847803;-19,30776;
30544;-35,14272;-5,207717;15,10874;-157,5448;
30563;-35,14272;-5,207717;15,10874;-157,5448;
30581;-33,53787;-4,449415;-36,60623;-45,11673;
30598;-36,10817;-8,227204;-23,2485;-40,70499;
30614;-35,92725;-3,216695;7,67243;-45,40977;
30634;-34,99796;-7,317939;-32,26204;-71,7916;
30654;-33,72016;-7,421056;-25,73272;-31,95695;
30674;-34,38839;-7,401103;-19,45654;-23,935;
30689;-35,261;-5,937055;-26,46606;-22,60263;
30708;-32,91201;-7,044633;-28,86951;-57,46289;
30726;-33,64888;-6,674912;-24,86277;-57,46914;
30742;-33,64888;-6,674912;-24,86277;-57,46914;
30758;-32,07203;-4,582051;-29,61541;-25,82373;
30776;-34,51846;-3,253073;-36,48078;-36,04315;
30794;-33,71795;-6,599025;-19,93511;-98,22668;
30811;-35,24979;-5,677691;-30,24006;-57,90664;
30829;-32,54292;-7,059444;-17,35293;-23,76126;
30851;-35,34417;-8,954386;-26,65718;-47,59096;
30870;-34,33153;-5,237309;-33,3188;-18,3215;
30887;-33,25605;-3,777037;-20,82353;-29,09666;
30904;-31,45883;-6,18534;-20,64613;-37,8476;
30922;-31,45883;-6,18534;-20,64613;-37,8476;
30941;-34,04081;-8,016264;-24,12796;-44,55646;
30959;-35,72776;-8,04672;-18,08946;-36,54617;
30978;-34,07169;-7,171091;-26,82379;-47,74508;
30995;-32,70168;-4,890614;-28,52024;-45,62142;
31011;-33,89627;-6,91634;-21,89829;-49,1401;
31029;-35,50374;-9,477515;-27,44165;-33,41082;
31047;-32,54219;-6,406007;-25,97734;-27,38758;
31062;-32,54219;-6,406007;-25,97734;-27,38758;
31078;-33,30282;-5,022229;-23,38091;-50,65969;
31096;-34,52944;-11,70593;-29,11489;-27,90522;
31114;-37,21379;-5,187887;-21,11374;-43,53485;
31133;-33,24782;-7,665328;-21,36056;-17,27043;
31150;-32,29123;-7,04224;-30,36325;-31,51451;
31169;-35,45055;-2,965184;-19,48092;-38,31786;
31187;-32,97601;-8,567249;-34,97401;-32,67992;
31203;-34,16751;-6,248759;-27,27115;-35,37203;
31220;-34,16751;-6,248759;-27,27115;-35,37203;
31239;-34,39874;-9,162384;-23,79751;-45,83781;
31258;-35,08283;-6,86153;-30,13071;-47,31511;
31280;-32,99266;-4,974185;-29,70602;-43,12231;
31297;-33,26131;-4,347658;-36,24194;-59,64598;
31318;-33,53508;-6,918717;-24,96554;-37,47573;
31335;-35,41364;-1,84317;-24,75449;-45,28352;
31352;-35,43562;-8,164144;-36,59784;-36,89995;
31370;-31,43788;-5,672167;-13,85116;-36,69754;
31388;-33,57915;-4,42444;-26,82714;-35,57011;
31405;-33,00447;-11,34729;-16,04063;-31,91792;
31422;-33,00447;-11,34729;-16,04063;-31,91792;
31440;-36,71509;-6,008436;-32,81035;-38,28909;
31457;-31,70048;-4,838632;-27,5434;-36,88921;
31474;-31,58213;-5,18824;-32,27969;-31,99638;
31491;-34,07625;-7,297417;-30,42982;-42,0546;
31508;-35,24434;-7,235195;-29,52361;-52,98189;
31527;-35,68816;-5,83499;-26,49425;-50,21054;
31545;-36,59863;-7,138719;-26,52669;-34,25817;
31565;-35,60522;-6,304672;-22,7987;-36,34094;
31581;-35,60522;-6,304672;-22,7987;-36,34094;
31599;-29,32588;-6,049255;-28,54009;-39,45878;
31617;-33,04376;-7,460549;-29,88625;-35,66608;
31634;-35,34947;-7,388836;-31,65517;-45,69429;
31653;-31,99361;-8,703289;-20,54999;-38,23811;
31671;-33,52311;-6,694102;-31,79821;-43,29021;
31687;-34,92114;-9,739305;-33,98764;-44,88837;
31704;-32,19355;-4,688037;-18,96127;-35,72857;
31720;-32,19355;-4,688037;-18,96127;-35,72857;
31738;-33,26524;-6,059286;-22,89394;-32,58889;
31756;-33,3994;-9,000616;-19,82509;-48,58899;
31774;-35,24196;-7,816546;-24,31556;-33,78197;
31792;-41,87051;-5,739898;-25,2154;-39,73035;
31811;-35,01062;-3,242943;-24,98789;-45,9318;
31829;-38,12149;-9,504014;-34,10984;-33,95679;
31848;-44,45486;-10,90398;-31,59889;-40,83361;
31867;-1,686156;47,03491;-24,53099;-32,64457;
31886;-22,75187;-35,51378;-27,66983;-49,03829;
31903;-22,75187;-35,51378;-27,66983;-49,03829;
31921;-30,84761;149,705;-25,59914;-34,35463;
31938;7,315227;-79,40656;-27,04858;-40,57602;
31955;-3,835824;-40,99647;-23,19124;-62,15946;
31974;-70,03005;-18,25303;-23,37765;-34,41657;
31991;-58,33651;-26,73956;-26,82394;-39,59391;
32010;-53,21703;243,5484;-25,72714;-47,70017;
32030;-135,4379;-91,15415;-28,24798;-40,61164;
32049;-81,24155;-18,1783;-24,14863;-35,75251;
32065;-66,33573;-25,70339;-17,4978;-47,29173;
32084;-24,0156;26,56555;-33,53456;-45,49881;
32104;39,27062;6,44098;-20,90487;-26,42246;
32125;-33,53026;-19,59528;-16,64081;-33,11399;
32144;-33,29238;-5,888627;-41,44659;-17,88552;
32160;-33,29238;-5,888627;-41,44659;-17,88552;
32177;-33,58902;-6,289483;5,360371;-158,4185;
32195;-36,41093;-9,36587;28,72091;-100,187;
32212;-37,58036;-4,326224;100,4426;-250,7845;
32231;-35,86605;-8,407131;-103,2427;127,8809;
32250;-34,26699;-10,89821;-146,2768;152,8114;
32268;-34,26699;-10,89821;-146,2768;152,8114;
32288;-31,22323;-6,244684;-99,90977;-98,43111;
32308;-30,37912;-5,328979;353,0312;-137,29;
32327;-32,72431;-6,924825;-67,70375;-108,9256;
32345;-33,6715;-5,183461;-15,83328;-10,80328;
32362;-33,6715;-5,183461;-15,83328;-10,80328;
32380;-36,33736;-7,891548;-13,48445;-43,15804;
32396;-33,54105;-6,072277;2,805578;-17,17489;
32414;-34,70776;-6,884278;-24,74048;-38,89154;
32444;-37,81182;-8,04585;-26,09114;-23,46652;
32462;-33,19909;-6,463722;-36,60623;-41,73745;
32481;-32,55849;-10,60844;-29,75325;-41,76801;
32498;-34,07396;-6,066362;-22,27049;-50,51268;
32515;-32,99802;-6,549162;-18,5811;-67,08339;
32534;-30,45796;-6,588115;-17,54363;-50,36598;
32552;-31,44343;-5,523865;-22,63079;21,85528;
32572;-34,70776;-4,450937;-18,422;-67,75391;
32590;-42,78578;-13,4803;-31,2304;-42,77058;
32609;-39,61702;-1,913313;-26,3178;-12,27374;
32627;-32,61499;-9,107196;-24,66003;-17,20398;
32645;-63,10541;-26,04628;-57,70784;-44,04919;
32662;-63,10541;-26,04628;-57,70784;-44,04919;
32678;91,10124;84,5058;-23,8905;-38,0704;
32696;81,31928;115,953;-27,79997;-37,16017;
32713;-160,6197;-140,9;-26,84741;-47,36303;
32732;-35,9698;13,13879;-25,36025;-53,42058;
32751;-150,7978;-134,5634;-19,62722;6,302374;
32769;220,6379;60,73052;-24,14484;-102,8071;
32787;22,40014;-50,02435;-23,68929;-33,01212;
32803;-14,04239;117,3796;-27,93548;-38,35754;
32819;-14,04239;117,3796;-27,93548;-38,35754;
32838;-199,6774;-29,67328;-20,32882;-46,47054;
32858;-60,10646;-3,037967;-26,94873;-46,29351;
32878;-18,24143;12,28411;-22,70078;-21,95161;
32898;-14,32027;139,8217;-24,60596;-13,19473;
32918;-27,27719;-4,770331;-15,68512;-33,54015;
32958;-34,70015;-2,107501;8,820537;-82,8632;
32979;-35,24236;-7,317447;37,23668;-44,29863;
32996;-31,96074;-6,688865;-25,91897;1,101726;
33012;-34,24571;-6,05042;-90,72394;-350,1179;
33029;-33,89281;-5,81428;78,16485;-85,43472;
33049;-33,24471;-8,730898;76,24751;-224,9101;
33066;-34,27823;-5,956534;-27,70088;-30,13405;
33083;-34,27823;-5,956534;-27,70088;-30,13405;
33102;-35,59679;-7,310711;-4,528339;-111,6241;
33120;-37,5815;-7,224623;-52,3939;-46,85501;
33137;-34,4591;-5,397597;6,18169;-98,87357;
33154;-35,6899;-7,571209;-18,40989;-36,88842;
33172;-34,17345;-7,774026;-17,35661;-20,2816;
33190;-33,17844;-9,226682;-45,28229;-50,09814;
33210;-33,39619;-6,605005;-28,42656;-41,77325;
33229;-34,19069;-5,941372;-21,63418;-6,833431;
33250;-33,84037;-8,395831;-34,03577;-58,03076;
33268;-32,87701;-4,06226;-39,7411;-67,66649;
33286;-35,70495;-8,218947;-29,43916;-36,23518;
33303;-35,04857;-6,595957;-21,32698;-33,77107;
33320;-35,04857;-6,595957;-21,32698;-33,77107;
33336;-31,77843;-10,77938;-16,26423;-35,66605;
33355;-35,14847;-6,633504;-31,19441;-54,80012;
33373;-32,5623;-8,403406;-30,82371;-18,88631;
33392;-32,08383;-8,397275;-9,111706;-48,69528;
33408;-35,23929;-10,12985;-29,86391;-37,90094;
33424;-33,04079;-7,065823;-34,35388;-41,69058;
33444;-35,85523;0,6201711;-28,77226;24,64862;
33461;-35,85523;0,6201711;-28,77226;24,64862;
33479;-34,61294;-7,0588;-34,82846;-46,34861;
33497;-33,16419;-5,700346;-22,92774;-27,40526;
33517;-35,97253;-5,345992;-23,6716;-42,10038;
33534;-32,08261;-12,54294;-25,59955;-37,58752;
33551;-32,69968;-5,831258;-29,14747;-58,12348;
33568;-32,64716;-8,406698;-26,36489;-37,41178;
33585;-33,16499;-8,483673;-19,63209;-49,33447;
33602;-33,16499;-8,483673;-19,63209;-49,33447;
33619;-32,9229;-8,651951;-29,12046;-43,55521;
33637;-35,36486;-5,321371;-17,90172;-39,35663;
33656;-33,89749;-7,125165;-31,96063;-38,80998;
33672;-33,05527;-8,212217;-28,64588;-24,19335;
33688;-34,77184;-5,942204;-18,82698;-25,49689;
33706;-34,44094;-7,363405;-31,14797;-39,94324;
33724;-37,22628;-8,027694;-23,40327;-37,94816;
33740;-37,22628;-8,027694;-23,40327;-37,94816;
33758;-37,11628;-7,374489;-27,30764;-43,06028;
33775;-56,06202;-7,137725;-27,93473;-43,06092;
33793;-45,07309;-11,40804;-20,46481;-31,6791;
33810;-33,07121;-5,590451;-20,58924;-43,4131;
33828;-35,2798;-2,989121;-28,2015;-48,57591;
33849;-37,16239;-5,153216;-24,22151;-32,63269;
33864;-44,80004;-5,681682;-30,72188;-46,62833;
33882;-44,80004;-5,681682;-30,72188;-46,62833;
33898;-43,81895;-52,90707;-12,98548;-39,53446;
33917;-64,92059;66,52734;-29,00206;-28,30473;
33934;-79,43678;-114,7751;-1,795968;-42,95166;
33953;-25,45347;-99,5109;-21,97605;-34,88998;
33972;-123,8156;-106,7118;-9,752236;-26,31441;
33991;-76,09499;-37,37653;-33,58447;-28,32532;
34008;-140,8529;-148,8779;-0,290818;-48,08823;
34028;-47,20942;-22,40096;-128,2483;-29,85335;
34053;-54,77546;-39,64155;84,14487;-62,11897;
34070;4,63267;35,01347;47,03331;-31,11101;
34087;-23,84308;137,811;-89,91051;-56,802;
34104;-38,7524;-17,16499;-362,2219;-140,3964;
34122;-38,7524;-17,16499;-362,2219;-140,3964;
34139;-32,27583;-3,653569;-118,1615;107,3887;
34157;-36,14576;-2,18329;-354,1231;-44,03926;
34175;-35,24268;-2,947602;20,83216;-33,62502;
34192;-34,92873;-4,713221;36,74267;75,72235;
34208;-35,07701;-6,064472;9,580093;19,02266;
34225;-32,27436;-6,246266;-18,27117;-25,25251;
34244;-35,98297;-3,283869;-7,437021;-36,04913;
34261;-35,98297;-3,283869;-7,437021;-36,04913;
34279;-32,65599;-5,970183;-19,23344;-41,29726;
34296;-36,6674;-6,272355;-48,97848;-36,41681;
34315;-32,90577;-3,599058;-21,09906;-44,39979;
34334;-36,23415;-3,884028;-8,717527;-29,09743;
34354;-34,27248;-4,97431;-24,76127;-44,00755;
34374;-32,75478;-9,559855;-33,4404;-45,97889;
34392;-30,05256;-6,898223;-24,92089;-29,16578;
34411;-35,19911;-5,356567;-20,73113;-27,5101;
34429;-30,24642;-4,043168;-29,02738;-42,3671;
34445;-34,66539;-8,748175;-27,31799;-49,31927;
34465;-30,05509;-1,201904;-29,07862;-30,75443;
34483;-30,05509;-1,201904;-29,07862;-30,75443;
34500;-33,8572;-6,554015;-12,81488;51,85259;
34517;-38,54837;-9,362373;-23,82385;-73,11176;
34534;-36,5964;-24,52683;-24,13722;-48,05054;
34550;-26,97763;44,05464;-28,73918;-40,00181;
34568;-22,35306;57,34981;-11,41861;-36,42107;
34586;-102,2702;-79,36487;-32,94994;-36,91214;
34604;76,2831;50,71796;-14,5663;-34,90508;
34620;76,2831;50,71796;-14,5663;-34,90508;
34638;-8,531202;-106,5411;-27,01633;-38,78476;
34655;-93,1451;69,84238;-24,13977;-37,5547;
34674;-72,48974;-24,7428;65,86405;-33,07807;
34692;-21,9979;90,70012;-26,15506;-28,28118;
34713;-132,8454;-20,68027;-24,50185;-37,00373;
34730;-42,17429;-1,873155;-19,64358;-42,70714;
34748;-67,32377;100,5169;-28,78939;-35,30121;
34768;-33,56839;-7,406805;0,08284107;-72,50132;
34786;-37,30664;-14,12597;-109,627;-24,38101;
34802;-37,30664;-14,12597;-109,627;-24,38101;
34820;-23,53506;-85,16045;-72,41256;37,59332;
34842;-38,04223;-1,105116;48,87671;-34,14188;
34863;-32,56703;-4,718977;-172,3126;-31,57553;
34879;-33,31895;-1,305198;194,5796;-437,1475;
34897;-47,91814;-6,33287;-343,0718;127,2414;
34915;-30,19752;1,355818;-81,07513;-5,034326;
34931;-33,04909;-7,073191;28,00879;17,73315;
34950;-32,02872;-9,470048;308,5313;-101,9469;
34969;-36,42405;-6,081173;-14,81836;-14,78516;
34989;-30,90103;-7,31724;-42,592;-7,791008;
35010;-33,62086;-7,04006;14,03783;-18,43246;
35028;-34,63698;-3,905932;-16,80438;-47,41095;
35046;-32,25904;-7,279536;-44,25081;-40,07015;
35067;-34,49875;-6,417329;-35,68443;-24,08805;
35087;-31,63716;-4,970217;-19,28145;-32,00049;
35105;-34,62212;-10,1007;-24,3385;-41,48878;
35121;-34,62212;-10,1007;-24,3385;-41,48878;
35138;-36,8527;-8,972538;-25,768;-34,96761;
35156;-35,42719;-5,597126;-13,53661;-59,07387;
35175;-33,97064;-7,005571;-35,00473;-38,2532;
35193;-35,41037;-8,601677;-36,95207;-40,77613;
35210;-33,04027;-8,764336;-11,73469;-61,7492;
35226;-31,1992;-4,089792;-42,98863;-52,67981;
35244;-33,93433;0,3455808;-33,11987;-22,75985;
35262;-33,93433;0,3455808;-33,11987;-22,75985;
35279;-41,37438;-8,596169;-36,42896;-34,85304;
35297;-33,33465;-12,34068;-22,49057;-57,41854;
35318;-36,75575;-4,72106;-20,13879;-41,98719;
35336;-36,43677;-9,752693;-24,55451;-29,10244;
35356;-5,215468;34,41504;-24,33819;25,94153;
35374;-32,88375;-8,100415;-37,81102;-61,95973;
35392;-34,54559;-5,55064;-24,51531;-4,718833;
35407;-26,73635;-5,597217;-24,44525;-24,28522;
35423;-29,25919;-20,5362;-36,65668;-42,54519;
35440;-29,25919;-20,5362;-36,65668;-42,54519;
35458;-50,77423;-0,9089322;-0,613322;-27,96755;
35475;152,681;199,9176;-27,91297;-52,17421;
35491;-54,06202;-3,70944;-34,77999;-50,66053;
35508;-98,37687;-68,11314;-24,32249;-42,90217;
35526;86,17532;333,9669;-32,19702;-41,24085;
35543;86,17532;333,9669;-32,19702;-41,24085;
35560;211,4971;131,8291;-17,4224;-36,33329;
35582;-84,09389;-14,05787;-60,05495;-71,5778;
35598;-14,30826;125,0767;39,89392;57,56216;
35615;-104,662;-46,89454;-68,35023;20,03212;
35639;-31,20306;-7,4393;125,7641;52,27116;
35658;-66,65861;36,24961;186,3758;-61,38226;
35677;-38,05222;-21,34948;-383,9351;2,006534;
35696;-33,23374;-7,517462;7,4592;-37,26651;
35716;-12,36798;-5,909979;-5,716496;-43,66771;
35735;-33,41261;-6,431738;150,8806;-61,37013;
35753;-31,50484;-2,22944;-44,75626;-7,80249;
35774;-36,02909;-6,86337;61,13206;-81,92348;
35793;-43,98162;-6,428191;-36,87796;-49,65923;
35815;-36,81178;-10,69044;-118,7419;-71,73309;
35831;-36,423;-7,878909;5,135601;-99,10555;
35852;-30,22588;-7,036832;-3,290919;-78,40726;
35872;-35,62056;-9,254926;-40,74931;-53,09582;
35893;-32,56;-4,338309;-21,70296;-47,67318;
35913;-28,03758;-12,1899;-21,43006;-29,44892;
35933;-35,3062;-9,362347;-11,72093;-34,34208;
35954;-34,88823;-9,368825;-14,47739;-76,65125;
35971;-33,37527;-10,52523;-25,72979;-13,71116;
35992;-32,74662;-5,70694;-34,8984;-57,43238;
36012;-35,73938;-6,869635;-28,71498;-35,29791;
36032;-32,85954;-8,401477;-13,90159;-34,83554;
36052;-38,83125;-2,764226;-30,42183;-20,80233;
36070;-35,10168;-7,240273;-25,51062;-50,63699;
36089;-33,7768;-1,659869;-28,95814;-35,4294;
36108;-36,4327;-6,181696;-14,43107;-29,56051;
36127;-31,90607;-12,02896;-20,06011;-44,32799;
36147;-34,52235;-6,94754;-16,51471;-37,85995;
36165;-32,06659;-4,868795;-38,02581;-41,33049;
36184;-36,22387;-1,84155;-28,92105;-42,6097;
36201;-36,22387;-1,84155;-28,92105;-42,6097;
36220;-33,75282;-5,076736;-26,93622;-19,97926;
36240;-61,19187;-16,92394;-27,91285;-48,64583;
36260;-34,53175;-8,889063;-30,68653;-35,56069;
36280;-43,15017;-15,22473;-37,56858;-46,41708;
36299;-94,95789;-112,7136;-12,35615;-36,58891;
36321;-223,6141;-162,8288;-26,80217;-38,91983;
36344;-475,1242;-48,09748;-27,81136;-56,17311;
36366;207,2166;54,04507;-22,55809;-39,59892;
36390;-25,84108;-26,69769;-66,08544;-46,43695;
36415;-56,56524;-208,1786;-20,49016;-16,35228;
36439;-60,66045;-9,124818;12,23751;-12,8739;
36458;-39,93867;-13,11369;2,766445;-1,005682;
36481;-33,05987;-13,64829;-26,77737;13,18897;
36500;-32,30005;-5,726857;72,39874;-101,8393;
36521;-32,95047;-6,14828;-71,16563;-56,77601;
36541;-34,6907;-7,046922;525,848;-53,95208;
36561;-33,41358;-6,933635;61,01458;-91,03027;
36582;-35,66278;-11,40929;-71,07324;50,1778;
36600;-35,21521;-4,516757;-2,511129;55,09948;
36622;-36,14278;-4,717065;-98,89946;-9,936112;
36642;-34,26611;-8,688271;50,55576;-22,18399;
36662;-35,04483;-4,825736;5,573413;-31,87373;
36682;-33,79762;-4,634575;-15,62682;-18,91516;
36703;-35,67894;-3,314665;-10,81665;-24,71116;
36726;-31,98399;-4,890968;-30,61561;-26,11704;
36749;-34,51804;-6,921206;-30,61984;-25,19926;
36770;-34,62277;-8,366149;1,023431;-29,99802;
36790;-32,71416;-7,469261;-40,47046;-45,8986;
36808;-41,61869;-20,97572;-17,97336;-19,74522;
36827;-39,4537;-4,979705;-52,51901;-52,06292;
36847;-31,32631;-7,90944;-23,28312;-32,57939;
36867;-34,279;-5,701992;-43,63299;-15,65696;
36890;-31,3267;-6,60079;-3,680403;-64,50294;
36910;-33,70703;-6,556419;-44,88484;-28,79279;
36929;-34,35188;-6,136693;-23,52349;-15,14047;
36948;-32,38273;-6,413915;-14,90824;-58,93354;
36966;-38,98422;-6,136746;-30,36296;-89,82044;
36986;-35,59097;-5,693356;-18,78733;-27,45108;
37005;-49,46779;-11,88347;-22,48743;-34,39668;
37025;-45,11411;-10,08424;-36,90205;-60,93513;
37045;-34,89627;-6,457442;-17,61971;-45,05838;
37065;-40,64365;-25,44453;-10,68218;-34,13384;
37083;-53,2757;-21,82754;-35,42867;-30,7579;
37102;-53,2757;-21,82754;-35,42867;-30,7579;
37121;-33,00859;0,7858343;-21,37206;-40,63423;
37141;-24,78016;36,52606;-29,44772;-55,54823;
37162;81,5428;109,8636;-34,16533;-83,98351;
37179;-64,40411;-134,199;-42,13683;-41,49945;
37197;-88,99586;-52,09799;-13,77053;-40,147;
37215;3,621417;151,3257;-37,52839;-46,75188;
37234;-84,48084;-73,71684;-10,94124;-35,11132;
37253;-205,7231;-20,18524;-25,87771;-51,17076;
37270;76,86507;39,04967;1,724685;-38,35325;
37290;-6,545586;91,98318;-28,55211;-26,71653;
37311;17,21973;98,77472;-28,96218;-48,86704;
37329;36,99126;26,22022;-77,07413;10,19392;
37356;-12,51483;170,4582;-15,368;-84,66097;
37377;-48,96981;-10,31847;-148,6511;-96,65688;
37395;-32,81254;-2,638194;-258,9536;-191,4475;
37412;-34,39704;22,23085;-162,0453;-60,31676;
37433;-45,24413;-11,63216;50,49658;-158,8001;
37450;-31,81854;1,492587;396,1136;-88,40342;
37468;-33,04034;-7,195921;-112,7978;-41,48715;
37486;-14,35681;-20,59374;-68,5633;106,5613;
37506;-34,89098;-6,196767;-43,75206;30,5163;
37524;-27,23901;-8,018487;284,1046;-88,66129;
37542;-27,23901;-8,018487;284,1046;-88,66129;
37561;-32,55247;-6,918019;-154,3275;-138,0071;
37578;-35,46223;-5,391962;-178,2103;-16,65834;
37595;-34,16962;-5,908824;-22,17101;-72,30274;
37612;-33,27146;-5,872491;-21,47478;-27,81726;
37629;-33,58356;-6,920949;-13,77281;-20,87132;
37647;-35,62468;-7,996945;-25,11848;-32,57831;
37665;-36,04798;-9,608372;-27,10256;-43,45777;
37681;-36,04798;-9,608372;-27,10256;-43,45777;
37699;-34,71405;-7,280529;-5,414655;-16,56754;
37717;-34,16776;-10,29043;-99,80065;-89,11277;
37734;-31,51535;-5,930833;-12,59221;-2,685545;
37752;-30,76995;-5,94503;-28,47144;-53,58165;
37769;-44,2161;-3,42528;-25,46722;-40,24966;
37785;-34,53226;-3,014378;-23,16294;-27,28991;
37802;-34,53226;-3,014378;-23,16294;-27,28991;
37819;-35,61093;-9,118897;-12,69313;-50,27114;
37837;-32,75321;-8,650723;-28,37055;-23,7079;
37856;-33,20123;-6,906318;-30,33103;-26,22434;
37873;-33,8827;-8,537601;-17,6246;-30,96155;
37890;-33,05439;-7,184148;-41,60657;-30,26631;
37908;-33,26765;-7,508582;-35,7896;-38,27819;
37927;-32,55384;-6,939101;-16,59438;-40,1063;
37944;-33,27194;-6,085036;-29,04479;-27,05125;
37962;-33,27194;-6,085036;-29,04479;-27,05125;
37979;-35,76849;-6,416657;-22,00002;-20,74576;
37997;-36,45605;-5,21272;-27,37705;-42,75527;
38016;-34,58771;-2,788479;-16,4394;-41,75949;
38035;-17,89142;-0,9000931;-27,09892;-46,13759;
38052;-30,80396;-6,335835;-22,9386;-70,09872;
38070;-22,52232;0,292734;-27,01176;-40,33518;
38085;-34,26403;-7,595208;-35,61113;-46,34184;
38104;-42,88607;-14,74952;-36,05574;-38,53702;
38120;-42,88607;-14,74952;-36,05574;-38,53702;
38137;-60,45977;-17,91171;-37,4341;-53,77534;
38155;-80,3104;-115,9958;-21,18961;-38,84198;
38175;-61,24311;-8,798105;-35,36415;-45,70947;
38196;-40,33423;-122,6406;0,9840883;8,689473;
38217;-85,18854;-30,5728;-42,34626;-43,31924;
38237;453,5464;-31,28551;-23,60133;-37,07592;
38255;550,848;27,74134;-12,04716;-42,05556;
38271;113,931;-54,41687;-77,0956;-40,82404;
38289;113,931;-54,41687;-77,0956;-40,82404;
38311;137,172;5,872111;-14,39822;-43,05363;
38328;-4,062888;-3,311675;-77,549;-64,02241;
38346;-122,5913;-121,2212;221,0477;45,22892;
38364;-20,91833;13,43622;-106,7036;81,04997;
38382;-20,91833;13,43622;-106,7036;81,04997;
38398;-35,54679;-3,970303;-284,5444;-10,96834;
38415;-19,48572;-2,305751;-340,7035;-35,06396;
38433;-37,88848;-13,59569;535,0095;-12,98839;
38452;-33,71433;-7,267098;-58,31334;-7,528753;
38469;-34,56184;-7,798258;-271,7192;-59,17826;
38487;-34,71915;-6,211584;-94,76019;-64,49533;
38507;-32,74866;-6,91259;-169,0726;-99,96259;
38526;-33,70887;-8,397285;-154,3464;-43,17985;
38544;-29,98242;-9,135661;4,689937;-13,41434;
38563;-29,98242;-9,135661;4,689937;-13,41434;
38580;-33,02306;-5,329589;-35,39653;-65,09002;
38598;-35,26406;-6,186103;-21,65964;-36,74744;
38617;-33,1335;-7,000587;-11,98221;-13,00449;
38637;-32,4099;-3,666605;8,279781;-37,72419;
38654;-33,54043;-9,210062;-55,64771;-18,55332;
38670;-34,68684;-7,418257;-23,82753;-48,30407;
38687;-33,19052;-4,960113;-79,73595;-70,80549;
38706;-37,01768;-8,725122;-13,02624;-17,08478;
38723;-37,01768;-8,725122;-13,02624;-17,08478;
38738;-35,83332;-7,890961;-20,62595;-53,41608;
38757;-33,40303;-8,032794;-35,26362;-49,3334;
38776;-31,66646;-6,384412;-15,95965;-46,11669;
38794;-34,53437;-8,679235;-23,92793;-51,46614;
38811;-33,25701;-5,315357;-54,707;-28,24983;
38830;-38,94994;-13,44618;-32,30466;-44,26113;
38846;-39,37274;-3,459644;-20,88331;-57,28283;
38865;-35,89707;-9,344736;-32,63896;-39,79076;
38882;-35,89707;-9,344736;-32,63896;-39,79076;
38905;-31,02809;-4,225779;-26,77139;-49,02474;
38925;-33,21555;-8,749763;-36,04812;-23,56401;
38953;-33,89138;-2,986212;-64,82861;-54,66736;
38974;-33,61432;-9,018405;-17,43222;-34,34634;
38996;-33,90053;-6,113469;-19,16269;-34,87653;
39018;-35,24593;-10,45126;37,51465;-56,89728;
39038;-35,26407;-6,786696;-31,57041;-44,50368;
39059;-32,0085;-9,864985;-20,55929;-37,77489;
39082;-14,77475;2,947264;-27,89061;-36,29055;
39102;-109,0824;-124,4998;-39,20493;-53,59399;
39122;-164,9143;-142,2456;-40,67464;-31,28694;
39140;453,7806;-69,2802;-4,020267;-7,650881;
39156;-285,4123;-168,752;14,80422;-27,93353;
39175;64,876;78,76546;-27,78064;-6,546053;
39194;-65,43066;168,6151;-39,51163;-59,62338;
39210;-82,65849;-70,43171;-19,82291;-27,68938;
39228;-26,29428;2,310268;-39,57396;-36,93776;
39247;-64,40072;-66,17896;0,08284441;-58,54779;
39267;-27,70081;116,2224;-178,726;-45,3558;
39285;-13,02827;-9,778617;-249,4093;-24,15204;
39305;-37,43094;22,23265;82,22669;19,40256;
39323;-37,43094;22,23265;82,22669;19,40256;
39339;-41,39304;-8,623509;-326,1331;-184,761;
39358;-28,84751;-22,92091;-356,3365;-27,12319;
39377;-34,45392;-7,145486;31,92245;8,103474;
39395;-34,19912;-8,871194;659,8683;-51,00607;
39415;-34,43644;-5,751924;13,33006;-79,87173;
39434;-33,9751;-9,832724;-183,3535;-177,0062;
39454;-33,92107;-8,734796;-46,33681;-23,12107;
39471;-32,76978;-10,12036;-2,936814;-61,88513;
39488;-32,97696;-8,414735;-91,6044;-45,84744;
39507;-34,53065;-4,966146;-51,23286;-41,40173;
39524;-35,37452;-9,377659;34,86848;32,81441;
39542;-35,37452;-9,377659;34,86848;32,81441;
39557;-31,57041;-10,11059;-6,818782;-32,5425;
39573;-24,35913;-7,784529;27,59571;-59,00264;
39591;-33,24459;-7,862628;-19,82325;-44,79689;
39610;-31,9259;-5,7006;-15,4811;-42,89042;
39627;-31,9259;-5,7006;-15,4811;-42,89042;
39644;-30,67355;-7,837642;-19,26163;-27,50655;
39661;-30,67355;-7,837642;-19,26163;-27,50655;
39677;-34,66395;-5,16902;-17,92328;-36,0197;
39694;-36,55903;-7,402014;-28,32867;-27,95341;
39714;-34,54922;-3,722575;-26,06971;-64,82426;
39732;-34,264;-4,975789;-26,08849;-47,27749;
39748;-32,53823;-6,681874;-26,47473;-40,42562;
39766;-34,39789;-7,467247;-23,35179;-16,37456;
39784;-31,89253;-6,188412;-18,14134;-34,00704;
39800;-31,89253;-6,188412;-18,14134;-34,00704;
39817;-32,99139;-7,431705;-29,87253;-33,9357;
39835;-32,93441;-9,375875;-15,71659;-43,28726;
39853;-31,56514;-6,944238;-13,91429;-39,60956;
39871;-34,87142;-10,83395;-29,36084;-30,85206;
39888;-32,29004;-6,424141;-23,80781;-61,14745;
39907;-33,63732;-5,149677;-13,38276;-23,55247;
39925;-34,38909;-5,283377;-42,09363;-36,98447;
39942;-34,38909;-5,283377;-42,09363;-36,98447;
39958;-33,26195;-4,530248;-27,79038;-40,53128;
39976;-32,7932;-10,81175;-24,33778;-34,53559;
39993;-33,89935;-7,154029;-35,2238;-34,55561;
40010;-32,55601;-10,21774;-17,48849;-35,77743;
40029;-33,47608;-8,283162;-25,0779;-52,20805;
40047;-36,48695;-6,057911;-24,8711;-65,00141;
40065;-33,11681;-9,577882;-29,89802;-34,47882;
40080;-33,11681;-9,577882;-29,89802;-34,47882;
40097;-32,95245;-5,167047;-19,8687;-30,21131;
40113;-34,24645;-8,464695;-24,62682;-45,8742;
40130;-32,1543;-6,782785;-23,47865;-41,24567;
40147;-34,89078;-8,404043;-12,99792;-42,92358;
40164;-32,91421;-7,386802;-17,6374;-41,68113;
40181;-32,91421;-7,386802;-17,6374;-41,68113;
40198;-34,54113;-3,437811;-26,20258;-49,52918;
40216;-31,99982;-4,969474;-15,70614;-33,77386;
40233;-33,74684;-4,36633;-22,07656;-52,51622;
40250;-32,94218;-6,335795;-28,94476;-26,05471;
40267;-32,08936;-6,744375;-23,76628;-39,13617;
40283;-32,08936;-6,744375;-23,76628;-39,13617;
40302;-33,66451;-1,708345;-28,57984;-33,40939;
40318;-30,21071;-7,396125;-9,453188;-32,02602;
40336;-35,74462;-9,631106;-29,9155;-45,68679;
40353;-35,55698;-5,444121;-27,2096;-43,34963;
40371;-32,56993;-7,301082;-32,69555;-38,07775;
40389;-33,5992;-6,84861;-19,57474;-36,31274;
40406;-34,52237;-5,700127;-20,36013;-36,77373;
40425;-34,0296;-5,468208;-20,18254;-40,5796;
40445;-33,56114;-8,022414;-27,04168;-39,38299;
40464;-34,56066;-8,584398;-38,31553;-42,82302;
40481;-34,56066;-8,584398;-38,31553;-42,82302;
40498;-35,97026;-5,809576;-18,9466;-33,9855;
40517;-30,30921;-8,799042;-28,97438;-35,06238;
40538;-32,65573;-9,048391;-27,35995;-38,18189;
40557;-31,49251;-4,221545;-8,914577;-46,44136;
40575;-35,97572;-7,410524;-21,83824;-42,23782;
40594;-35,26383;-4,67189;-32,39233;-34,10452;
40610;-36,64124;-6,29851;-25,09265;-40,71267;
40627;-35,19112;-6,867616;-30,61447;-42,65048;
40645;-33,55425;-8,387753;-33,9828;-43,89259;
40661;-33,55425;-8,387753;-33,9828;-43,89259;
40677;-32,99475;-8,28647;-14,93068;-42,9816;
40694;-32,10999;-3,73667;-26,97743;-34,45832;
40714;-43,23332;-12,62048;-28,85544;-32,53861;
40731;-29,82972;-6,352377;-26,85222;-37,99244;
40747;-34,39618;-5,313335;-27,20786;-38,26714;
40765;-33,58975;-6,178622;-25,29881;-46,10804;
40781;-33,58975;-6,178622;-25,29881;-46,10804;
40800;-77,33106;-65,76427;-60,02253;-41,00686;
40817;-83,11472;-75,67379;-25,6284;-57,67902;
40835;-76,54509;-95,72109;-23,98687;-39,95892;
40852;89,93954;181,7195;-22,86717;-36,20626;
40868;-42,15099;6,317314;-29,37439;-42,74905;
40884;-73,39383;-129,0004;-18,02812;-41,89517;
40901;-73,39383;-129,0004;-18,02812;-41,89517;
40921;18,28061;-19,03543;-30,82858;-37,3758;
40938;-63,17852;-49,43106;-11,0723;-38,68457;
40955;-37,23113;-13,02169;-25,39392;-43,93678;
40971;-29,39853;11,81394;-18,37403;-45,71482;
40988;-47,57482;-22,63924;-28,11395;-42,06575;
41006;-24,54645;-5,387155;-34,34171;-44,42015;
41024;-42,41334;5,736895;-40,80459;-44,95811;
41042;-42,41334;5,736895;-40,80459;-44,95811;
41058;-37,35265;-6,690054;-23,82961;-53,04055;
41075;-36,46367;-10,33925;-24,65697;-50,74913;
41092;-34,08268;-9,814063;-33,63922;-32,32301;
41110;-31,75195;-6,089961;-20,35838;-53,36963;
41128;-35,98655;-13,52518;-159,077;-24,81307;
41145;-32,2658;-4,755228;-19,31096;61,82659;
41163;-34,79963;-8,842723;-62,3561;-196,4899;
41179;-34,79963;-8,842723;-62,3561;-196,4899;
41197;-35,25106;-7,147125;-411,1712;-18,45498;
41218;-34,26099;-5,571201;-266,8643;-167,3976;
41237;-34,87796;-5,858354;-103,2122;26,33187;
41255;-30,55374;-7,499764;5,235333;-51,63518;
41274;-31,48014;-8,336713;34,13924;-52,32116;
41291;-30,58269;-5,942579;-36,53791;-32,14528;
41309;-32,99253;-7,29062;-12,81078;-53,7081;
41330;-31,84728;-7,272753;-15,87497;-24,71307;
41352;-34,39207;-10,73749;-24,34926;-20,15747;
41369;-33,53558;-4,88566;-16,16047;-12,21471;
41388;-31,56792;-8,835952;-30,09378;-33,85018;
41417;-33,77003;-7,036394;-38,97285;-23,56762;
41435;-33,77003;-7,036394;-38,97285;-23,56762;
41451;-33,00904;-11,94884;-46,65143;-54,78397;
41468;-33,90961;-12,12905;-32,13549;-32,64776;
41485;-34,0403;-4,987508;-30,43891;-71,26767;
41501;-34,0403;-4,987508;-30,43891;-71,26767;
41519;-32,18168;-9,015219;-15,7022;-46,78164;
41537;-30,56439;-6,426143;-23,96391;-38,99124;
41554;-30,97098;-8,571624;-27,74737;-40,12883;
41572;-31,42422;-4,729644;-25,50604;-37,25742;
41589;-31,45894;-6,06254;-47,29239;-43,70451;
41606;-30,58079;-8,756813;-24,33895;-51,02948;
41624;-35,38458;-10,33612;-25,02253;-56,0321;
41642;-35,38458;-10,33612;-25,02253;-56,0321;
41659;-32,74302;-5,916141;-32,22324;-37,94933;
41674;-34,27835;-8,395719;-26,99404;-40,53371;
41692;-35,02932;-8,046241;-27,50815;-42,77171;
41709;-29,31517;-6,253885;-30,68348;-34,62291;
41727;-33,20593;-6,672235;-31,03942;-51,48803;
41744;-33,42165;-6,338095;-30,48721;-38,46168;
41762;-33,42165;-6,338095;-30,48721;-38,46168;
41778;-36,24145;-4,071418;-23,21737;-50,46943;
41795;-35,63929;-7,761873;-20,81807;-35,32045;
41812;-36,20485;-7,914468;-27,89074;-42,0646;
41828;-32,49554;-7,67173;-18,0993;-36,81436;
41846;-32,72823;-8,772513;-24,71802;-42,43981;
41864;-35,97247;-7,244095;-19,58077;-41,02012;
41881;-35,97247;-7,244095;-19,58077;-41,02012;
41898;-32,6378;-7,41779;-35,96608;-52,98967;
41915;-34,15692;-6,148165;-30,20913;-42,36407;
41932;-31,40904;-8,884768;-18,42196;-40,10948;
41950;-34,72568;-2,754658;-19,25491;-32,78004;
41968;-31,32284;-10,55699;-46,11476;-45,33595;
41984;-34,20981;-6,544028;-16,79725;-40,59163;
42000;-34,20981;-6,544028;-16,79725;-40,59163;
42018;-36,22537;-9,562023;-20,18237;-40,87269;
42035;-35,72577;-6,216361;-21,40661;-41,57056;
42053;-32,23933;-6,923864;-20,3431;-44,50406;
42069;-32,7428;-7,120849;-26,45211;-40,00084;
42091;-31,20748;-12,49972;-21,39366;-40,12122;
42107;-36,25872;-6,118618;-23,77588;-43,5252;
42126;-32,91547;-8,384914;-26,63741;-11,39518;
42144;-30,29103;-5,709096;-16,80472;-25,17784;
42163;-30,29103;-5,709096;-16,80472;-25,17784;
42180;-31,30092;-8,572716;-23,15765;-48,58522;
42196;-32,10634;-2,050053;-24,51901;-36,65376;
42212;-37,39148;-7,421079;-36,64032;-41,89706;
42230;-33,64805;-3,015515;-25,24333;-37,16691;
42249;-33,55427;-6,699572;-23,02979;-31,45547;
42266;-33,78467;-3,480366;-25,34514;-42,42833;
42282;-33,78467;-3,480366;-25,34514;-42,42833;
42298;-35,6184;-7,680246;-34,55874;-41,12962;
42314;-32,71365;-10,09442;-19,9554;-35,18438;
42333;-31,55885;-5,941313;-28,43019;-43,47705;
42350;-33,58365;-7,391729;-25,45673;-31,1691;
42368;-33,03655;-6,849352;-26,42184;-41,06015;
42384;-32,55897;-4,803697;-25,22943;-41,39612;
42401;-32,55897;-4,803697;-25,22943;-41,39612;
42418;-33,64457;-4,893907;-27,91496;-34,54533;
42435;-32,91286;-2,73281;-33,17855;-44,18664;
42453;-33,46238;-4,579545;-33,81953;-50,40297;
42469;-32,57831;-10,34347;-28,59721;-30,94173;
42487;-31,94454;-6,375752;-32,48724;-35,5465;
42506;-33,53801;-9,567071;-23,4161;-45,07835;
42522;-33,53801;-9,567071;-23,4161;-45,07835;
42539;-31,27964;-3,504762;-25,72278;-17,95399;
42556;-37,94301;-7,421718;-36,98895;-36,33815;
42572;-34,4356;-11,53819;-13,9642;-36,56391;
42590;-35,47841;-2,086285;-18,93637;-48,20346;
42607;-35,45579;-16,95465;-32,57337;-47,89175;
42627;-7,536388;-8,403911;-28,79253;-41,41189;
42645;129,6618;190,3169;-20,63029;-46,44532;
42660;129,6618;190,3169;-20,63029;-46,44532;
42676;-89,58451;221,7785;-13,46184;-39,70096;
42695;-92,691;-39,50662;-33,21284;-34,79303;
42714;-234,1936;-217,4516;-17,93013;-40,12909;
42736;21,11067;-26,88311;84,34872;81,18024;
42756;-52,53254;-21,56304;-11,16797;2,850925;
42774;149,8764;-24,12989;-210,7927;14,74923;
42791;-34,31972;69,35847;117,368;-18,81089;
42808;-58,41751;-18,49038;-107,5048;-114,8185;
42825;-36,28427;8,995822;-39,69943;-41,36229;
42843;-36,28427;8,995822;-39,69943;-41,36229;
42859;-0,8390073;2,548599;-286,4073;7,145321;
42877;-34,7921;-4,2355;-62,89105;-59,14757;
42893;-35,38469;-4,589244;-59,53751;-77,15296;
42913;-33,2647;-5,674026;5,971292;-50,51287;
42930;-32,18526;-5,946259;-48,25546;-30,89905;
42947;-33,04082;-10,34656;-24,96763;-24,18948;
42962;-33,04082;-10,34656;-24,96763;-24,18948;
42980;-34,25755;-7,904525;-15,45238;-41,39164;
42997;-39,04762;-5,940988;-38,59561;-42,79342;
43014;-33,90155;-3,707937;-8,111835;-44,88177;
43033;-33,03973;-5,7686;-17,22849;-33,42381;
43052;-34,90245;-3,020213;-52,1687;-62,2765;
43070;-32,83146;-2,057531;20,84332;-70,07543;
43089;-35,05052;-7,037468;-23,66752;-27,14554;
43106;-33,05507;-2,383383;-23,16396;-43,04442;
43122;-33,05507;-2,383383;-23,16396;-43,04442;
43139;-32,18519;-10,3794;-11,84692;-37,42831;
43156;-37,22693;-9,233428;-22,29806;-52,36242;
43174;-34,40416;-7,034844;-28,97321;-40,44844;
43191;-33,55768;-4,981945;-27,93863;-52,52343;
43211;-34,89195;-6,663503;-32,25448;-32,12254;
43232;-34,28363;-2,269071;-23,01798;-18,86539;
43248;-36,23445;-6,66159;-21,29776;-35,61655;
43268;-33,67675;-5,195535;-19,51615;-28,71008;
43286;-33,93043;-8,768497;-51,40046;-6,062656;
43304;-33,91295;-4,307088;-11,10718;-22,28077;
43321;-33,91295;-4,307088;-11,10718;-22,28077;
43338;-33,89808;-3,867615;-29,0914;-36,02654;
43356;-33,17575;-4,047204;-21,95077;-47,94869;
43373;-34,52818;-5,330142;-21,25014;-59,08972;
43390;-35,926;-4,960104;-31,49349;-43,58712;
43406;-32,21003;-8,637496;-20,38832;-49,93355;
43425;-33,97021;-3,002495;-27,20709;-40,50415;
43442;-33,97021;-3,002495;-27,20709;-40,50415;
43459;-35,24239;-3,911365;-17,84062;-34,523;
43475;-32,19331;-6,069357;-23,91573;-55,13342;
43492;-33,50487;-5,469172;-22,98806;-43,2803;
43510;-32,04851;-6,928361;-21,59093;-47,18066;
43527;-33,05349;-6,536062;-21,23267;-6,467999;
43546;-33,26946;-6,564065;-26,21242;-55,97768;
43564;-34,5229;-5,176665;-31,99877;-54,50688;
43580;-34,5229;-5,176665;-31,99877;-54,50688;
43596;-32,76373;-5,329065;-32,42564;-24,66975;
43613;-35,4437;-1,160558;-23,23292;-46,1113;
43632;-32,73775;-4,461164;-12,61992;-36,56234;
43655;-32,9319;-5,282428;-16,47892;-36,8204;
43671;-34,51734;-4,477137;-17,98582;-26,89031;
43688;-31,45197;-6,064844;-29,32114;-35,53152;
43705;-32,80849;-4,768697;-6,927855;-54,65177;
43720;-32,80849;-4,768697;-6,927855;-54,65177;
43737;-34,49822;-8,642737;-14,2213;-44,69636;
43755;-33,48754;-6,86015;-31,99269;-48,49071;
43772;-31,20688;-3,546093;-23,19066;-43,17167;
43788;-34,9758;-8,763632;-27,02475;-37,91858;
43807;-33,88998;-4,906269;-20,5081;-41,60847;
43823;-33,88998;-4,906269;-20,5081;-41,60847;
43841;-34,52373;-6,737528;-6,741201;-36,4422;
43860;-32,27862;-6,075609;-27,91937;-26,67052;
43876;-30,78205;-7,694392;-27,14851;-54,33404;
43895;-35,53721;-9,466408;-29,32071;-48,03879;
43913;-30,23891;-4,95873;-30,36725;-31,81334;
43930;-35,0648;-8,02949;-13,68552;-45,95137;
43944;-30,95072;-8,121909;-24,81127;-43,16327;
43961;-30,95072;-8,121909;-24,81127;-43,16327;
43979;-30,84524;-6,533868;-28,66174;-31,82518;
43996;-32,92331;-4,955104;-28,01951;-50,98796;
44014;-32,67545;-6,558803;-34,47044;-34,55922;
44032;-35,26236;-3,23452;-23,0571;-23,14349;
44050;-33,45514;-8,87823;-31,48248;-50,00129;
44066;-31,51587;-7,374438;-32,60565;-31,81798;
44082;-31,51587;-7,374438;-32,60565;-31,81798;
44101;-31,57277;-6,440087;-14,24784;-40,80193;
44117;-33,85315;-4,723177;-33,80553;-37,5803;
44134;-35,85957;-7,809927;-29,88234;-34,70202;
44150;-33,89916;-6,918538;-30,01104;-44,29498;
44169;-31,76315;-5,567457;-11,42645;-47,98394;
44184;-33,90311;-8,497519;-22,02814;-54,03906;
44202;-33,90311;-8,497519;-22,02814;-54,03906;
44218;-34,80329;-7,05709;-26,48139;-46,15406;
44237;-31,92678;-4,149947;-26,85388;-45,18695;
44256;-34,33814;-8,56316;-32,58171;-43,86797;
44273;-34,61464;-5,779839;-17,14681;-38,66495;
44290;-35,43347;-5,334312;-38,18587;-41,5942;
44307;-34,88609;-3,990123;-24,59544;-31,15028;
44323;-34,88609;-3,990123;-24,59544;-31,15028;
44339;-34,61327;-5,32345;-22,56608;-38,33066;
44356;-32,20421;-6,077805;-36,85037;-39,1423;
44375;-33,01219;-9,300887;-31,40636;-35,60378;
44392;-34,26776;-7,071176;-15,92095;-37,37555;
44407;-41,51698;-13,87687;-30,13284;-48,86922;
44424;-50,24157;-25,66585;-39,04034;-44,56304;
44441;-50,24157;-25,66585;-39,04034;-44,56304;
44458;-74,94503;-36,24453;-28,38147;-42,52914;
44475;-104,7418;-81,33272;-21,47845;-37,23364;
44492;-46,88183;209,8778;-37,85381;-52,75961;
44509;-27,05212;-29,39448;-21,28917;-36,66126;
44526;-99,7319;-78,11919;-33,32669;-35,14427;
44545;-42,22201;-149,6684;-36,98499;-52,03279;
44562;-42,22201;-149,6684;-36,98499;-52,03279;
44581;-37,26149;-33,0307;-22,71565;-52,89816;
44600;-6,21373;45,20662;-81,58501;-50,88584;
44621;-24,33309;15,55689;-78,16299;-75,9433;
44640;-24,33309;15,55689;-78,16299;-75,9433;
44661;-31,07403;-4,794821;-28,7797;-42,22964;
44680;-27,03707;-0,5987474;-26,20123;-32,81612;
44697;-32,91003;-5,698904;-53,29583;-97,8008;
44715;-32,91003;-5,698904;-53,29583;-97,8008;
44733;-31,20565;-4,314003;-201,0527;71,16075;
44750;-31,22985;-6,121273;-118,4613;-334,5664;
44771;-32,74019;-5,71398;-112,8531;-91,77949;
44789;-34,8838;-6,060942;202,7253;-94,80833;
44805;-34,50676;-6,938708;-7,882143;-12,39097;
44822;-34,50676;-6,938708;-7,882143;-12,39097;
44841;-36,79339;-7,755864;-101,8087;4,233035;
44858;-31,57629;-8,713943;-31,43218;-66,18179;
44878;-36,12807;-8,058519;-29,7192;-26,59421;
44894;-34,26175;-5,71132;-17,65631;-33,71734;
44911;-35,32873;-5,41659;-45,61618;-22,48373;
44929;-33,07719;-8,124423;-12,58063;-42,63817;
44947;-31,83926;-4,910375;-11,28854;-12,93843;
44966;-32,72682;-6,810325;-35,83557;-37,09272;
44984;-34,62117;-6,566976;-27,55432;-39,7934;
45003;-37,20528;-4,355232;-23,4924;-8,563476;
45022;-37,20528;-4,355232;-23,4924;-8,563476;
45039;-32,5737;-7,387327;-44,06366;-50,24594;
45056;-31,5843;-8,383337;-9,484167;-60,20233;
45073;-35,70529;-6,031183;-27,58365;-36,45874;
45091;-35,92002;-9,064531;-29,17548;-50,49386;
45109;-36,7061;-9,616474;-12,40762;-31,37621;
45129;-33,15381;-7,740311;-38,90059;-32,27365;
45144;-33,90475;-4,160743;-9,569751;-26,91037;
45162;-33,90475;-4,160743;-9,569751;-26,91037;
45179;-32,74899;-8,393524;-34,26124;-35,48388;
45198;-35,61273;-5,752753;-29,80303;-44,37265;
45220;-34,32431;-6,419073;-27,62863;-43,78576;
45237;-33,27324;-5,210865;-20,12275;-38,0458;
45252;-33,567;-10,00156;-21,28051;-49,17305;
45271;-36,4212;-4,016159;-15,89795;-43,89989;
45286;-36,66068;-9,714791;-40,33023;-45,25993;
45302;-36,66068;-9,714791;-40,33023;-45,25993;
45319;-35,64025;-4,850659;-17,18995;-55,55256;
45335;-34,49335;-7,115577;-29,62269;-25,33398;
45351;-33,4966;-6,416666;-13,53175;-28,04073;
45371;-33,97836;-7,036984;-31,3131;-38,42927;
45387;-35,12075;-8,397342;-22,26484;-36,62548;
45403;-32,11319;-7,68125;-36,01783;-47,94152;
45419;-32,11319;-7,68125;-36,01783;-47,94152;
45436;-35,50233;-1,717538;-42,89021;-36,6264;
45452;-31,9379;-6,28137;-20,64691;-43,17937;
45471;-31,43931;-5,100348;-23,48652;-40,73885;
45487;-33,07212;-5,709827;-30,60877;-40,33751;
45505;-32,17697;-6,064878;-35,73967;-29,14013;
45524;-34,52373;-5,143775;-6,77127;-46,37075;
45540;-34,52373;-5,143775;-6,77127;-46,37075;
45555;-31,93545;-4,004312;-20,35768;-53,82669;
45572;-33,95565;-10,73178;-28,35933;-43,31382;
45589;-33,22241;-3,024177;-21,00856;-48,02588;
45605;-34,88666;-2,990392;-9,601333;-34,23111;
45620;-34,88666;-2,990392;-9,601333;-34,23111;
45638;-35,85557;-7,049724;-27,70195;-38,34883;
45654;-33,71668;-8,137295;-29,52084;-39,15518;
45671;-33,95535;-6,795264;-16,0229;-50,85162;
45688;-33,27983;-10,11982;-27,47956;-36,40319;
45708;-32,51426;-9,124714;-39,08192;-40,4839;
45727;-34,26252;-6,564342;-31,78861;-38,22414;
45744;-33,90077;-10,36049;-19,10091;-33,76303;
45761;-33,90077;-10,36049;-19,10091;-33,76303;
45778;-31,75355;-2,597002;-35,40539;-38,01137;
45794;-32,39222;-6,386945;-22,22162;-34,89743;
45810;-31,46873;-8,504765;-23,05774;-44,6733;
45829;-31,53185;-3,970241;-32,9973;-58,51719;
45846;-35,0974;-4,45618;-27,03697;-40,00521;
45862;-35,0974;-4,45618;-27,03697;-40,00521;
45878;-31,13447;-2,28647;-24,88559;-43,11209;
45898;-34,72081;-9,797571;-22,49896;-57,17898;
45914;-33,7784;-6,06292;-21,43216;-31,10788;
45931;-34,90385;-2,200458;-21,68411;-38,92756;
45946;-30,04184;-9,67468;-25,26496;-34,38587;
45964;-36,61398;-1,318627;-23,0771;-45,0088;
45981;-36,61398;-1,318627;-23,0771;-45,0088;
45999;-36,47525;-5,637264;-21,16483;-37,58792;
46016;-38,42731;-4,008447;-18,60394;-42,19117;
46032;-34,1118;-6,4885;-11,2032;-38,03999;
46051;-34,89922;-4,328131;-32,54884;-54,01371;
46067;-30,08916;-5,343863;-18,35353;-48,06272;
46083;-30,08916;-5,343863;-18,35353;-48,06272;
46101;-34,53508;-5,882968;-18,61554;-38,07451;
46118;-32,07743;-5,136181;-15,58668;-36,1266;
46135;-33,9087;-7,836175;-43,93592;-41,9683;
46150;-36,87786;-6,707968;-29,14921;-32,26145;
46169;-33,55157;-9,259225;-19,79536;-30,85942;
46186;-34,89089;-10,0854;-32,07274;-51,14452;
46202;-34,89089;-10,0854;-32,07274;-51,14452;
46221;-35,61074;-8,390011;-20,92675;-28,66183;
46238;-35,68295;-12,46297;-28,54433;-38,13427;
46255;87,82196;56,55368;-6,214409;-43,24617;
46273;-111,517;-50,44231;-23,25794;-3,211375;
46290;-83,04891;-65,19514;13,99667;-49,17694;
46309;-37,81086;-0,8847389;-23,85661;-28,23198;
46328;-61,43029;-11,50972;-35,48463;-33,501;
46344;-1,752861;-46,91254;-28,46165;-27,55143;
46360;-1,752861;-46,91254;-28,46165;-27,55143;
46377;76,0918;93,28712;-106,765;-151,2529;
46394;56,5463;98,0254;-134,8748;-26,16051;
46411;-102,2581;-38,60629;66,79025;-77,75218;
46430;-17,20788;66,29988;151,2413;-57,85552;
46448;-36,17684;-8,472768;-262,9457;-291,2933;
46464;-49,67502;-4,38211;-154,3851;72,89346;
46480;-49,67502;-4,38211;-154,3851;72,89346;
46498;-38,35823;-8,719078;-275,1914;-74,1834;
46516;-33,93633;-6,320598;-94,47649;-27,01446;
46536;-32,79578;-8,507059;-22,66577;-80,05372;
46551;-31,69137;3,19755;-22,38269;-51,40131;
46570;-32,80722;-0,7996911;-26,65232;-33,56015;
46587;-33,40359;-5,611943;-15,33446;-63,77869;
46605;-32,81824;-7,841383;-18,26955;-44,96315;
46622;-32,81824;-7,841383;-18,26955;-44,96315;
46640;-33,95745;-6,413257;-34,52748;-53,47655;
46659;-34,2539;-7,169284;-33,9653;-63,16837;
46678;-37,07573;-9,907221;-21,95939;-48,68034;
46697;-58,65252;-6,489638;-17,84973;-35,70118;
46714;-15,28456;13,63839;-31,62005;-15,00871;
46731;-37,54562;7,810059;-23,25341;-41,4066;
46753;-27,3018;-120,2983;-28,17156;-40,64655;
46772;-37,58208;-139,3732;-22,43037;-32,162;
46789;205,601;-98,16893;-26,34771;-42,20309;
46807;-20,42112;14,25253;-6,957927;-46,08965;
46825;-50,90857;-2,492745;-21,74633;-28,03147;
46842;-50,90857;-2,492745;-21,74633;-28,03147;
46860;-46,076;-6,594272;-22,26466;-28,88157;
46877;-46,076;-6,594272;-22,26466;-28,88157;
46896;-44,4022;5,283772;83,62876;-4,646229;
46915;-38,56928;-18,80261;-4,740186;34,70956;
46931;-31,57178;2,776688;12,65562;-142,0382;
46948;-33,14527;-8,876794;-113,7221;-46,20093;
46966;-32,92403;-1,9174;-38,57306;-89,36092;
46985;-35,86932;-8,979226;215,0105;-27,1253;
47005;-33,80095;-3,745704;-58,15113;-24,60661;
47021;-33,80095;-3,745704;-58,15113;-24,60661;
47038;-32,54606;-8,450656;-43,3239;-50,14903;
47055;-34,7259;-1,770025;-33,50998;-34,35572;
47073;-34,22787;-4,433036;-16,39031;-40,66611;
47094;-27,90542;-0,557803;-23,28321;-38,85538;
47111;-37,44076;-22,88491;-27,00182;-31,97601;
47129;-34,20918;-8,256968;-36,4454;-52,11784;
47148;-33,53006;-9,867419;-27,20454;-45,75996;
47168;-32,52559;-10,40536;-28,37312;-1,322009;
47186;-31,7483;-5,891369;-29,35245;-32,16957;
47202;-31,7483;-5,891369;-29,35245;-32,16957;
47218;-33,56582;-6,514202;-33,20357;-39,9992;
47236;-36,2099;-9,211379;-50,99125;-30,86918;
47252;-33,29424;-4,983009;-11,04811;-48,1492;
47268;-36,94787;-8,147053;-16,18783;-50,0617;
47285;-31,4504;-9,235676;-30,98337;-38,32675;
47303;-31,4504;-9,235676;-30,98337;-38,32675;
47318;-37,03015;-8,211799;-31,3489;-30,99135;
47337;-37,03015;-8,211799;-31,3489;-30,99135;
47353;-35,82177;-7,670234;-18,14816;-17,19892;
47370;-38,43843;-5,159454;-75,78979;-58,70524;
47387;-35,20319;-7,048644;-21,19344;-38,08818;
47402;-35,20319;-7,048644;-21,19344;-38,08818;
47417;-34,49966;-5,802057;-18,8812;-40,92891;
47434;-33,92544;-5,869063;-16,64983;-35,79878;
47450;-34,51376;-6,385304;-23,47874;-73,82463;
47469;-32,16952;-5,05407;-13,00262;-26,36886;
47485;-34,22826;-6,04901;-33,01096;-32,53843;
47505;-33,42566;-8,123689;-21,32202;-44,79474;
47522;-33,42566;-8,123689;-21,32202;-44,79474;
47538;-31,45151;-6,432374;-40,5151;-42,17978;
